0.010274162471760065
0.010240458899643272
0.010248280137311667
0.010297199338674545
0.01035297403112054
0.010400160064455122
0.010421945184934884
0.010413678565528243
0.010411940608173608
0.01041912958258763
0.01039722388377413
0.010358466042671353
0.010334735086653382
0.010329604926519097
0.010346616629976779
0.01038697338430211
0.010422712082508952
0.010417954309377819
0.010386808249168098
0.010376307633705437
0.010424431688152254
0.010520512098446488
0.01062356579117477
0.010626539238728583
0.010574810071848333
0.010542191003914923
0.010515013278927654
0.010494372725952416
0.01053037639008835
0.010592735628597439
0.010600120776798576
0.010579676812049
0.010607584579847753
0.010657289368100464
0.010650296898093074
0.010584577484987676
0.010528166121803224
0.010520424540154637
0.01053008865332231
0.010503384489566088
0.010448736695107073
0.010438485930208116
0.0104812867147848
0.010509810550138355
0.01052071402547881
0.010542737878859043
0.010542427268810571
0.010525126985739916
0.010549161089584232
0.010601994593162089
0.010636511761695146
0.010643075190018862
0.010622265171259642
0.010588967548683286
0.010573254711925984
0.010570278756786138
0.010559968454763292
0.010561273272614927
0.010576887484639884
0.010558903105556966
0.010503342216834426
0.010461610939819366
0.010436250630300492
0.010400580489076675
0.010385547359474003
0.010415517960209399
0.010442882657516748
0.010437571853399276
0.0104462198773399
0.010514120985753835
0.010604110495187342
0.010651423600502313
0.010661981175653637
0.010674875949043781
0.010693017644807696
0.010699237980879843
0.010683885731268675
0.010661827602889388
0.01064618976553902
0.01060995646752417
0.010547312761191278
0.010511568547226489
0.010536247240379453
0.010581592575181275
0.010584526523016393
0.010548729898873717
0.01052995591191575
0.010543438962195069
0.010582549562677741
0.010668644590768963
0.010785418483428656
0.010859726727940142
0.01085979732684791
0.010820055766962468
0.010779934371821582
0.010753115764819085
0.010727838727179915
0.01069101732224226
0.010666672154329718
0.010697198209818452
0.010774721764028073
0.010838021370582283
0.010838878366630524
0.010778972196858376
0.010694110624026507
0.010617682684678584
0.010561573116574437
0.010516253737732769
0.010470312708057462
0.010453442228026688
0.010491645722649991
0.010529235568828881
0.010504739710595458
0.010447196778841317
0.010414515254087747
0.010392577082384377
0.010343675210606307
0.010297909330110997
0.010292030100245028
0.01031000495189801
0.010322087341919542
0.010309344916604459
0.010282853562384843
0.010272154344711452
0.01028885223902762
0.010337152923457325
0.01040629857685417
0.010441695023328066
0.010391382053494453
0.010297771585173905
0.010260115857236088
0.010284579796716571
0.010299817386548966
0.01029634044971317
0.010309659228660166
0.010325526241213084
0.010321554092224688
0.010326571383047848
0.010349455128889531
0.01036793803796172
0.010385967593174427
0.010392529463861138
0.01037054973654449
0.010341905371751637
0.010305519090034068
0.010237533699255437
0.010155525547452271
0.010087822864297777
0.010038325041532516
0.010007515584584325
0.009999286110978573
0.010011243105400353
0.010036771299783141
0.010064493203535675
0.010069257286377252
0.01003767533460632
0.009994754614308477
0.009972346425056457
0.009981267312541604
0.010014305664226413
0.01005162980640307
0.010091037009842693
0.010148204315919429
0.01020346499979496
0.01022664580726996
0.010232740996871144
0.010247246888466179
0.010282754038926215
0.010339003230910748
0.010382040711119771
0.010384327387437225
0.010353720309212803
0.010297474153339863
0.010239541428163648
0.010228425089735538
0.010268856107722968
0.010306352619081735
0.010295732533559204
0.010256502670235932
0.010239124689251184
0.010247625950723887
0.010242337647359817
0.01021270708879456
0.010204025371931493
0.010254242867231369
0.010300190646667033
0.010232077329419553
0.010086263620760292
0.010001047735568137
0.009984650386031716
0.009955084254033863
0.009909206158481539
0.009877155462745577
0.009838642745744437
0.009776793566998095
0.009734522027429193
0.009760802637320012
0.009835115196183323
0.009898628492373973
0.009925470217131077
0.009920489734504372
0.009911691208835692
0.009945730776526034
0.01001769901951775
0.010068351163063198
0.0100906622572802
0.010135443347971887
0.01020412949146703
0.010234691405203193
0.010189945199526847
0.010110372242052109
0.010073546757921577
0.010094395745545626
0.010108669761102647
0.01008881972404197
0.010085728571284562
0.010109720930922777
0.010108667111489921
0.010095178277697413
0.01012284103082493
0.010167526612058282
0.010179087265860289
0.010168926911428572
0.010171751023735852
0.0101821329863742
0.010163735928945244
0.010109782398212702
0.010055504776537418
0.010032519618980586
0.010036792431492358
0.010022079818882049
0.009950579521246254
0.00985946980305016
0.009805192856583744
0.009786313036456704
0.009796063173562288
0.009838893639389425
0.009880495148245245
0.009897710294462741
0.009895658877212554
0.009852664570789784
0.009775074238423258
0.009726509430911391
0.009764030466321856
0.009851879347115755
0.009918579095974565
0.009945092385169118
0.009961349042132497
0.009973839800804853
0.009964701991993934
0.009950983575545252
0.009977977115195245
0.010047262457665056
0.010097828726284206
0.010095719045493752
0.010085026631131769
0.010110020881984382
0.010155135549139232
0.0101830226322636
0.010177729134447873
0.010137657739687712
0.0100658174068667
0.009992810797411949
0.00995375168742612
0.009921202273108064
0.009871419696137309
0.009864947225432843
0.00992164619732648
0.009948849366046487
0.00990048561943695
0.009848834336735309
0.009861334022134542
0.009939181478694081
0.010037829903885721
0.010101044706534595
0.010127159499097616
0.01014832392334938
0.010152758450713008
0.010135716034565121
0.010147189288400114
0.01019753391854465
0.010247543051373214
0.010284700237680227
0.010298086795955896
0.010279532603453845
0.010285916526336224
0.010368977941107005
0.01045022053644061
0.010429882076568902
0.010369916604831815
0.010375916194170713
0.010430430602282286
0.0104829544108361
0.010533205512911082
0.010577780962921678
0.010598303312435746
0.010591285375412554
0.01055826293071732
0.010511713256128132
0.010480741697829216
0.010466618179343641
0.010444827042520047
0.010417945373337716
0.010404934582766145
0.010394800619687885
0.010369849095586687
0.010341828567907213
0.010324687601532788
0.010334044613409787
0.010397880135569722
0.010484545379877091
0.010506049185059964
0.010462004595901818
0.010441829194314778
0.010473020563367755
0.010513391264248639
0.010540218129754066
0.0105405387817882
0.010500536505132914
0.01044939732644707
0.010429593462031334
0.010452524789143354
0.01050555902067572
0.010527080427855252
0.010455722326878459
0.010352653334848583
0.010323659225832671
0.010354099001269788
0.010374608002603054
0.010379647216759623
0.01038272141944617
0.010379687084350735
0.01038114033639431
0.010406514436472208
0.010460234663914889
0.010531393077690155
0.01059706496540457
0.01062518276507035
0.010617321012541652
0.010646175302099437
0.010764853754080832
0.010896249543875455
0.010929523298982531
0.0108636945579201
0.010808911125641316
0.010807007160037756
0.010800830004736781
0.010768861514516176
0.010748038860037923
0.01073134484468028
0.010674996834713965
0.010580433651339262
0.010489606640767306
0.010446217220742255
0.010452256377320737
0.010459175808355212
0.010437199212610722
0.010402869917452335
0.010377362328581512
0.010373410736210644
0.010400779941119254
0.01044877536362037
0.0104856211040169
0.010503495121374726
0.010534613933414221
0.01057914185570553
0.010587698670569808
0.010551532087847591
0.010506016388535499
0.010454349012579769
0.010390158232767135
0.010347663967404514
0.010351901021786035
0.010371832058299333
0.010365032870322467
0.01032819300889969
0.01028684554854408
0.010271131142508239
0.010287792687304318
0.010303150143008678
0.010291567042004316
0.010267961483914406
0.0102537194872275
0.010251403681468218
0.010235956872347742
0.010180929901544004
0.010137002444826066
0.010194022017531097
0.01031680087093264
0.010370986564084887
0.010317201695870607
0.010234132171608507
0.010202394549269229
0.010235076230019331
0.0102670797589235
0.01023819224210456
0.01019577226601541
0.010208387768361717
0.010217837649397552
0.010147899587173015
0.010061241476796568
0.010031842922326178
0.010026966091245412
0.010030683525837959
0.010085361930541693
0.010163068021647632
0.010194259742274881
0.010195618069265038
0.010190616636537015
0.010131120579317213
0.010034681248944253
0.010005863637197764
0.010060067367739976
0.010109061170369386
0.010098458756692708
0.010053084623068571
0.010026169836055487
0.010044383511412888
0.010087987722363323
0.010117425250355154
0.010126487265806646
0.01012107149930671
0.010082021467387675
0.010032078786753117
0.01004440884804353
0.010120065191294998
0.010181954749859869
0.010231383866630495
0.01033995669335127
0.010487080113962292
0.01058558217715472
0.010611829929985106
0.010597955035045743
0.01056301090400666
0.010507674780674279
0.010442240396514535
0.010380015303380787
0.010319202025420963
0.010260804630815983
0.010228491260204465
0.010250815215986222
0.010327675021253526
0.010418759733438492
0.010453793434426189
0.01039318930124864
0.010297233678866178
0.01025484429905191
0.010262370540294797
0.010267516018357127
0.010276090153492987
0.010309720046352595
0.010350913333240896
0.010391350698191672
0.010426263643894344
0.010443318793550134
0.010457085308153181
0.01047217576066032
0.010458538932725787
0.010414750282652676
0.010386009586509317
0.010396054165903479
0.010419328764546662
0.010432149367406964
0.010444364482536913
0.010449276599101722
0.010408426953945308
0.010333658067975194
0.010286086334381252
0.010307941427454352
0.010409079242963344
0.0105311365169473
0.010574351721443236
0.010518886996433139
0.010432917168363929
0.010375672187656164
0.010348534910008311
0.010328999853227288
0.010313765895552933
0.010309151716064661
0.010326261390000582
0.0103827432426624
0.010450431695207953
0.010469136035535485
0.01045333050424233
0.010469034067355096
0.010511371889151633
0.010510863361414522
0.0104559752298519
0.010430925940163434
0.010485783331096172
0.010561152258887888
0.010593708327505738
0.010576491099782289
0.010520756372716277
0.010464899656362832
0.010448514001909643
0.010442630457691848
0.010415013290476054
0.010404694634489715
0.010446065803989768
0.010524019957520067
0.010605314674321561
0.010645268266089261
0.010620259486604482
0.010569142734166235
0.01055368602508679
0.010573622612282634
0.01057981094578281
0.010567048406228423
0.010561060856562108
0.010558388167992235
0.01055507977027446
0.010558201174717396
0.010559175899252295
0.010561225500423462
0.01057603356661275
0.010586418949533254
0.010579723415430635
0.010570585448294877
0.010565231032669544
0.010554077960550785
0.010543841172475367
0.010562517824582755
0.01062138042645529
0.010671890350058675
0.010644119915086776
0.01054987785872072
0.010442870466504247
0.01032253293786198
0.010200988838914783
0.010141905718483031
0.010157799834851176
0.010184016309212894
0.010180922858417034
0.010172766232863069
0.010171163068152965
0.010167829075362534
0.010195742847863586
0.010265795234590768
0.010295234730001539
0.010222347672097384
0.010119771256577224
0.010089581108186394
0.01013318016892299
0.010200362431351095
0.010271296135615558
0.010354299296159298
0.010441035465337336
0.010499477076809854
0.010522043381351978
0.010526658045127988
0.010523529315833002
0.010518025024794042
0.010523606794886292
0.01054288721876219
0.01054019283503294
0.010500685051083565
0.01048101503169164
0.010501567297615111
0.010499884637538344
0.010464773171115667
0.010458637466654182
0.010487799590919167
0.010482409680262207
0.010415633900556713
0.010355794711504131
0.010359493247233332
0.010396394070703537
0.0103998798225075
0.010336255480069667
0.010255391274113209
0.010233912945259362
0.010258536925539375
0.010275837748777121
0.010290098104160279
0.010317384770605714
0.010339906616136431
0.01033859366318211
0.010310267256572843
0.010263440476264804
0.010218518907204271
0.010196485365740955
0.010194372716359795
0.010181484331842511
0.01014199448050931
0.010108023986686022
0.010110495057888328
0.010123901090119035
0.01010669833049178
0.01005836735945195
0.010016694210935383
0.010015543147455902
0.010036740433424712
0.010041758962906898
0.01004609272815287
0.01008611400378868
0.0101404749462381
0.010159286663401872
0.010133930251467973
0.010066824303939938
0.009968684965278952
0.009857847960665822
0.009841514481231571
0.009918541931547224
0.01001495371107012
0.0100664735538885
0.010062059317715467
0.010045078301336616
0.010064153035636991
0.010144473798573018
0.010254824107978493
0.010300887976773082
0.010244768583215774
0.010160637886729091
0.010123645118437708
0.0101373755838722
0.01016352525446564
0.01017023580148816
0.010153401989955456
0.010111381546594203
0.010053454793523996
0.010030029483605176
0.010050026718527078
0.010035200228448957
0.009963345711585135
0.00991725703002885
0.009936405587941408
0.009979765170719475
0.010014405220281332
0.010037278500385582
0.010056259715929628
0.010074728187173605
0.010082787966821343
0.010076257595792414
0.01007009479450062
0.010087555856443942
0.010130069577135145
0.010159784893039614
0.01014897909713909
0.010122993015684187
0.01011626937892288
0.01011825589230284
0.010098535905126483
0.01005448336713016
0.010002546035684646
0.009953012829646469
0.0098996981815435
0.009833072673063725
0.009756316945422441
0.009685412594117225
0.009646612610667944
0.009624610794708133
0.009570133346132935
0.009505630026105792
0.009500013487413526
0.009569626925513148
0.00966681779595092
0.009717984749004245
0.009700929531827569
0.009659268101677299
0.009622336984612047
0.009582167305052281
0.009537425059825182
0.009527054922655225
0.009594311320688576
0.009699394712224602
0.00975400036899373
0.009743022581096739
0.0097055843193084
0.009650157503783703
0.009568705603014678
0.00948930274695158
0.009456493868492543
0.00946720011997968
0.00949175249086693
0.009528914161492139
0.009578638745006174
0.00961481299251318
0.009620264221448451
0.009611516664735973
0.009610579961445183
0.009618802745826542
0.009625904660206288
0.009614958656020462
0.009584321565926075
0.009583312207832933
0.009652263419702649
0.00973406551638618
0.009746455210261048
0.009701340172905476
0.009659744552336633
0.009646655188407748
0.009666910793166608
0.009714264085050672
0.009753851741552353
0.009762325328774751
0.00975984475808218
0.009761369202751667
0.009765960329677909
0.009815424336120487
0.00991914193611592
0.01003635729663074
0.010054262084886433
0.009981534096878021
0.009895035529043526
0.009864050832111388
0.009886467985343188
0.009885269636288285
0.009819318251684308
0.009729832003358752
0.009667317853309215
0.009639124439563601
0.009624501699581742
0.009627920808270574
0.00965319798560813
0.009646102131810039
0.009585878776852042
0.009546752565074711
0.009582268418744206
0.009658119960222393
0.009698158891405911
0.009662005652207881
0.009606565744616092
0.009617876643314958
0.009693520218133926
0.00976691713090986
0.009803494231309742
0.009816221802029759
0.009827295653522014
0.0098378814663738
0.00982246052706614
0.009781035254709422
0.009769033803604544
0.009812523499131203
0.009865228410344571
0.009885290954262018
0.009875844209454953
0.009864236060529948
0.00987461012089625
0.009901612526737153
0.009908042901661246
0.009868586731608958
0.009828251656144857
0.009846712835133076
0.009896659736987203
0.009935241602361202
0.009995825530495495
0.01010267822770402
0.010209975910838694
0.010272739045321942
0.010286787790246308
0.010275591830722988
0.010269045457243919
0.010261099645867943
0.01022905056597665
0.010181447567883879
0.010139112176839262
0.010126780190039425
0.010161466952413321
0.01022124791983515
0.010277510739397257
0.010330787054263055
0.010381968463771046
0.010395706302952022
0.010342611270025372
0.010270369274076074
0.010241461116820574
0.010238191715907306
0.010237946456763894
0.010278408837039024
0.010363606403116137
0.010435961841139943
0.010474069209303707
0.010500738571863621
0.010508759955409914
0.010476619659457356
0.010422227806411683
0.010390064273960888
0.010399677052628249
0.01042047701543197
0.010414817428682
0.01037894120439887
0.010328066064976155
0.010294136116281152
0.010309263139497489
0.010319717160891742
0.01023983706254512
0.010134259220212698
0.010128706293180585
0.010200503242667764
0.010255088317207992
0.010265926346182824
0.010238527948968113
0.010180331147275866
0.01013436663430184
0.010136392137501388
0.010164633376989514
0.010194411010015756
0.010228321750182658
0.0102488461881876
0.010222582526039333
0.010159170397091657
0.01010944172507152
0.010098472670651972
0.010111962733790279
0.010139829851686955
0.010174993316177279
0.010200862945057452
0.010220212545245886
0.010249586079735308
0.010278775428887457
0.01031749441754073
0.010410104794427753
0.010510509028099477
0.010529416385106743
0.01051169274142012
0.010536297592334449
0.010550434396136552
0.01048030988080427
0.010372345801442862
0.01032533145043999
0.010348693216219545
0.010362368570640683
0.010324824168346822
0.010254841283895075
0.010165353801567108
0.010075276822317392
0.010014636237174272
0.00998936525080353
0.00999052812345326
0.010017327715177089
0.010060925653669983
0.01008520845323801
0.010061874198727309
0.010002246326766908
0.009937018537893891
0.009897140075918288
0.00989617033628747
0.009919506385922433
0.009940325387287886
0.009949570016469806
0.009968631719239056
0.009992299096193164
0.009978667902760207
0.009940349627286196
0.009921416186261921
0.009895344809629024
0.009816784474533052
0.009719550940208137
0.009671411304734647
0.00968916282756254
0.009742134606931359
0.009799516519997269
0.009850003579631448
0.009892072149086743
0.009926751111634076
0.009948236905038356
0.009946138800587504
0.009941057367250324
0.009965291195549071
0.009992742706090211
0.00996969014639035
0.009902049463707954
0.009845947199501097
0.009822130133397878
0.009797030296176672
0.009760331190191209
0.0097415548725985
0.009743832116946578
0.009740250324830413
0.009722905927337705
0.009699308464769274
0.009682053306605667
0.009705783715471625
0.009770563254132867
0.00981147789163515
0.009804513074923306
0.00979818158550188
0.009820570365991443
0.009853790439665317
0.009881223258562387
0.009914512415416538
0.009973806547932326
0.010043467276263983
0.01008854828774929
0.010128511511720718
0.010198224475607276
0.010233068941161036
0.01014513969188556
0.010034605283290149
0.009930143051315099
0.009908207473345101
0.009924420150928199
0.009975246344693005
0.010051718545146287
0.010097471522167325
0.01010162825929001
0.01009481234708801
0.01006222573108971
0.010005443005356938
0.009992431679274888
0.01003178216284141
0.01005461985943839
0.010046754309441894
0.010033715437166392
0.009999144268222153
0.009932159336749465
0.009875715796370059
0.009859650940634311
0.009848718266002834
0.009820552137680351
0.009797661593183874
0.009778721039183438
0.00974829813465476
0.009704985041171312
0.009644186792429536
0.00957524101017043
0.009551562482956797
0.009622141751460731
0.009736593498382717
0.009793415549211204
0.009781726372893899
0.009769946702290326
0.009788741832599044
0.009828861667774618
0.009905712131876498
0.010020081792026759
0.010121079536620527
0.01017548537813127
0.010191936953924596
0.010173501088283956
0.010127070427406579
0.010083513925783336
0.010064940818119794
0.010078554791398346
0.010122095921542496
0.010153182477224618
0.010113562273327261
0.010010470042470843
0.009917481080628931
0.009883642678614706
0.009885709795635194
0.009883243858348578
0.009886123409960418
0.009933565098326652
0.010020055461209267
0.01009775859536603
0.010145082247909158
0.010169945666566491
0.010164997468236833
0.0101293157460168
0.01011614604620263
0.010168152975384146
0.010236493677366525
0.010235619007144123
0.010136923198588192
0.010018148929812015
0.009994431107770652
0.010052566044032573
0.01007969559635967
0.010055797381792218
0.010052726443391294
0.010086652219761162
0.010112469755113125
0.010130644391756505
0.010182739370502531
0.010260268358979373
0.0103122985153459
0.010319600335787982
0.010318220814224333
0.010350981245283037
0.010409361980855465
0.010441773619968444
0.010392083460465074
0.01026296040508896
0.01015394079266116
0.010132650746963918
0.010132307375315577
0.01009714343585074
0.010076965123880654
0.010079028136096894
0.010020330101251602
0.009903459763154387
0.009843402917031199
0.009874439309351146
0.009910958001855761
0.00990606853272766
0.009910114754457027
0.00997181526152417
0.010015490748919546
0.010086352315265685
0.01013305768603459
0.010164848619606346
0.010153442793525756
0.010093806537333876
0.01003839803626761
0.010015610361006112
0.010008856784552336
0.010025361839216202
0.01005586216924712
0.010052533706184476
0.010041325981728733
0.010077235016506165
0.010129912355914712
0.010168844207655639
0.010212580703664572
0.010253841106314212
0.010282108522951604
0.010325931515544652
0.010383548715617507
0.01039624200668186
0.010339729709085078
0.010272717964835466
0.010278072694782169
0.010376980006694793
0.010512043733615428
0.010635803549084812
0.010720759907271712
0.010710900397971273
0.010630703740753233
0.010596770122647285
0.010627652420662343
0.010639803039375693
0.010610962570644915
0.010578501941636205
0.010526825459674
0.010423505757935346
0.01032001294195652
0.01027246613521129
0.010247817679774016
0.010215809021610766
0.010206321184523404
0.010242888522334397
0.010310212911572308
0.010365547882393002
0.01038194915279746
0.010400648389477282
0.01047559843864292
0.010582355896476657
0.010659370271023363
0.010687624879647046
0.010691543873399496
0.010707344627007842
0.010736704575829209
0.010729183030780404
0.010652274531312287
0.010561615428887308
0.010533442660234869
0.010546635801438243
0.010537947204429656
0.010518336372915655
0.010507740827742964
0.010460993209853768
0.010359310652129352
0.010270457135047763
0.010277178038377315
0.0103754986776039
0.010458144082222134
0.01044917481020093
0.010404362617991865
0.010402421380858869
0.01043059883872047
0.010449022313114256
0.010466101919300854
0.010497591446619482
0.010529804304242133
0.010544615886174143
0.010552742679137736
0.010589179492089897
0.010646058162674308
0.010662451055832207
0.010630603646859527
0.010610226448625327
0.010632054628804326
0.010685380701906978
0.010744661039207131
0.010783930362667888
0.010820621387101709
0.01088390186196193
0.010951988692395389
0.011009786410722882
0.011085032557602972
0.011170948417857289
0.011215321358758957
0.011188024093862624
0.011104911607690155
0.011020629771519453
0.010988782520871609
0.011009967504069209
0.011044584109913557
0.011052091028541327
0.011021440841723233
0.010986143592745065
0.010969416908919812
0.010949281903449445
0.010918573746457695
0.010905326278880238
0.0109222118020989
0.010951817776076496
0.010992691088467836
0.01105078797088936
0.01107084474293515
0.011011270938906819
0.010941148553974926
0.010924398542847484
0.01093250376638025
0.01093606801936403
0.010930403345264494
0.010901480205357075
0.010878204144537449
0.010902491665910929
0.010951690445654094
0.010998066910542548
0.011026818233076482
0.011002870777156204
0.01092631373554468
0.01084127276437357
0.010797925235237926
0.010823274611029774
0.010869848197326065
0.01088255936279893
0.01089601991698146
0.010941667780280113
0.010972051944117994
0.010957531216554343
0.010947708138264716
0.010987795724067837
0.011038856513332576
0.011058541801758111
0.01107727457769215
0.011105560131836683
0.011110698068514467
0.01110380443977192
0.01111103524453938
0.011114903928246348
0.011089033912867308
0.011040330606047064
0.010989542137831449
0.010914701262954622
0.010792521715629846
0.010702417152933776
0.010717728086747228
0.010753378306981176
0.010730136479251086
0.010729831587523221
0.010812668951693923
0.010881681244354695
0.010869768203701825
0.01086045559262857
0.010913631778676063
0.01096535451244563
0.0109634403209202
0.010950061299372465
0.010967073035426439
0.010994382929056882
0.011008531067054718
0.010998964582104236
0.010954471186269075
0.010892215939238668
0.010842309701256454
0.010818973353598266
0.010824043184984476
0.010837565348483623
0.01083866918925196
0.010845797357615084
0.010878244440536946
0.010903232372365892
0.010892291970085352
0.010867921304889023
0.010848293206654489
0.010829725342337043
0.010806829484645277
0.010775774309877306
0.010761441208887845
0.01077975020511076
0.010788004868663848
0.010769753586500883
0.010759137007407844
0.010757396712433547
0.01074536151252687
0.010721467048861087
0.010689124409109354
0.010656913409475237
0.010647545985411852
0.010676835088524968
0.010706894507165998
0.010691973713692278
0.010668559807818383
0.0106848982302472
0.010711930010002106
0.010710350214503705
0.010676487595774234
0.010615469876211137
0.010560417540837079
0.010560348962899297
0.010601715887896717
0.010622584593947977
0.010611128672026097
0.010615379642695188
0.010643288497813047
0.010628769067116082
0.010561531384009868
0.010542206570971758
0.010608037956990302
0.010639226268976927
0.010552070073317736
0.010442844282370061
0.010432965811342001
0.01048066636081785
0.010452068676240742
0.010358157942537218
0.010332079520449042
0.010381845303345471
0.010419015653897077
0.010426284139975905
0.010434783156961202
0.010458307585213333
0.010478280144743621
0.010479214480146765
0.01050185619853437
0.010563701600767672
0.010592150408774615
0.010561792617663742
0.010550282450858504
0.010582797492388636
0.01058879476506263
0.010540257513057441
0.01048991658259183
0.01046210917411372
0.010446742824278772
0.010473285566549749
0.010547396016772837
0.010602088267914951
0.010596223364118487
0.010556292994879186
0.010511001830454916
0.010465550282970072
0.010435527951922268
0.010455031536985189
0.010525536960922182
0.010568345387000591
0.010515601402148604
0.010442228817846627
0.010440642621833831
0.010443454864434898
0.01036746817175299
0.010273653643671422
0.010233264141716063
0.010221774950623512
0.010202056774869562
0.010167383591178804
0.010135860212612898
0.01014488958287984
0.010201009178999812
0.01026021924102679
0.01027205773163587
0.010233244062401354
0.010193686538841576
0.010202947584912182
0.01026190082076937
0.010324007724411785
0.010341704497113824
0.010321122030727565
0.010304106143303215
0.010273615918122233
0.010181255787611008
0.01009192386874929
0.010104814518708736
0.01018116689985618
0.010223844244610519
0.010192518383264541
0.01012129770591855
0.010093359358143062
0.010119568875525146
0.01014793613459915
0.010177261596545577
0.01019800930051133
0.010183854368515313
0.010159900896251201
0.010131428579334169
0.010082206688821316
0.010041035902686417
0.010015527880750597
0.009948405919130892
0.009825034416280687
0.00974911964032799
0.009785137404687703
0.009832526000682264
0.00981170143932104
0.00977703142678365
0.009768233285285532
0.009769690237008036
0.009793672244995832
0.009842937069479377
0.009859414207749068
0.0098104181420058
0.009751280741766096
0.009733216546010226
0.009729261295869946
0.0097092854231596
0.009699841348920017
0.00973951558349654
0.009817890517879277
0.009866890967823566
0.009868348771706224
0.009896817582193762
0.009952505624387414
0.00993519507581368
0.00987466712249443
0.009928366232197732
0.010080510925035924
0.010135956874582916
0.010025594565086067
0.009878831047099084
0.00982235333416611
0.009835990176070482
0.009833581717684866
0.0098102587624453
0.009797491845674813
0.00976335012121126
0.009694692618213594
0.009650893276557326
0.009644379422534257
0.009619031695183366
0.009581065319944173
0.00960090437438339
0.009679035649169236
0.009750641849823296
0.009800928249023854
0.009838577050250024
0.009824579181149602
0.00974331785691902
0.00964747992809862
0.009592151420656591
0.00959719908889383
0.009650380399543792
0.009703996856696904
0.009700065406505018
0.00964939861325547
0.009634940470568835
0.009696076626423746
0.009780565961264073
0.009814620597753674
0.009789389776997268
0.0097600840148516
0.009758781739510596
0.00976503615733236
0.009747390006668865
0.009710565875284374
0.009710575931239872
0.009774476028978825
0.009835693568456918
0.009827528393361717
0.0097667379071936
0.009696291373111308
0.009652760329190642
0.009665342648513615
0.009699961957521737
0.00969016189686954
0.00962940172990784
0.009554151722695678
0.009506387654691934
0.009513774430379271
0.00954541505780071
0.009564705311786383
0.009591441336087882
0.00962107692612335
0.009600408840924501
0.009526956884656101
0.009465514726471155
0.009483410222455859
0.009580108537338674
0.009666168615221977
0.009675336305517703
0.009642642461694778
0.009627693144138902
0.009641590528190136
0.009660031599923968
0.009673060022760183
0.009693102296441793
0.009722531498409808
0.009755590776912869
0.009785896153189241
0.00981574298813939
0.009871664845850319
0.00994440314359963
0.009977072814945132
0.009965881747193634
0.009943673920352012
0.009912184192799031
0.009892885226290673
0.009920352746266872
0.009967425174545496
0.00998645971296355
0.009986755219288171
0.009995922630187124
0.010010806494392455
0.010046524528879672
0.010125981601886451
0.01019613780779764
0.010193356631789356
0.01015761666931212
0.010145779142621904
0.010125299559440464
0.010071041816845537
0.010026037257630379
0.010019899141043424
0.010054419660009443
0.010097858731169253
0.010081962894182651
0.010019296032842248
0.010018241775687784
0.010118240625597536
0.010228523290716112
0.010264643679838627
0.010250502452254295
0.010245562978088856
0.010261451853439211
0.010297876328695565
0.010377875084523112
0.0104713520151563
0.01049017139011994
0.010438491203822196
0.010413720028009266
0.010433550870511682
0.010432773989159615
0.010393988694995642
0.010333209801465272
0.010232960870489478
0.010100350184366107
0.010011430738959461
0.010015577296726405
0.010062706687022001
0.010088607345242053
0.01009107962017879
0.010079181622713804
0.010060446395073086
0.010076802019029855
0.010128701662179083
0.010140038088429719
0.010091415571514517
0.010057918983511627
0.010069942874833942
0.010068959982600063
0.010029759700410068
0.01001145699294284
0.010056855215225369
0.010139557037036865
0.010202992614358664
0.010189865804277361
0.01010896164458245
0.010050022606737912
0.010045912978239358
0.010042831134051085
0.010021428619511425
0.010005314466543496
0.010007153416518122
0.010040730556938797
0.010112495336215943
0.010185861703939736
0.01020982877817005
0.010176840624772011
0.010125240257475526
0.010109112535137682
0.010158691261895001
0.010231989289168268
0.01025891854893416
0.010250870001036673
0.010261396027635783
0.01028227163478732
0.010289412245620043
0.010284344386309385
0.010240819496102631
0.010150309978052973
0.01007933622924611
0.010064670650754124
0.010066432917956263
0.010059868285898119
0.010057437540963292
0.010069350239355117
0.01009703782852739
0.010140139244031161
0.010181129821576177
0.010181445681955665
0.010140373150352388
0.010110876262187958
0.010115206176415086
0.010124129091855139
0.010134573003742844
0.010166105336975307
0.010198454838246107
0.010201342976652086
0.010189080329146236
0.010198835558257997
0.010233015660196543
0.010271180639974772
0.010300528695806862
0.01027606695657596
0.01017106979386881
0.01006698887096718
0.010038294645491988
0.010016373733524233
0.009924026059452444
0.009841201915405691
0.009850731533952058
0.009888558113016189
0.009898489303886891
0.009904001241084188
0.009912889557890594
0.009929048139601946
0.009956923683639617
0.00996012207120657
0.009920135543216019
0.009858199409209192
0.009786833664402366
0.009740773844532669
0.009755611908622086
0.009783219427336008
0.009767210234422237
0.009725116698537022
0.009685624821577222
0.009658996178768576
0.009649673169478774
0.009648588174022733
0.009640092339832335
0.009601902479771525
0.00955026562558487
0.009566371373366564
0.009675422844011336
0.009797505412716418
0.009857366075739265
0.009853303187992424
0.009838272826746106
0.009843148493673652
0.009845662689767777
0.009832483807113022
0.009807994700968265
0.009768194251228124
0.009739613672718406
0.009760213277768343
0.009796636488754302
0.009792554071173071
0.009768408464733511
0.009775717318989336
0.009821185993496328
0.009883985489141196
0.009931221602018923
0.009926094107795507
0.00987412889720872
0.009832492892164736
0.009843755157198757
0.009872893712017685
0.009870730871334672
0.009880520955193787
0.009971147389151155
0.010102413648273795
0.01016155410092324
0.01009885109262541
0.009970411350950599
0.009884979608468712
0.009904950826894491
0.009970473202411085
0.009990239611361175
0.009970235619693995
0.009958895179443062
0.009961991722229868
0.00995809905230999
0.009927936575841158
0.00988483741413802
0.009869441862683744
0.009870143281295896
0.009830277003347874
0.009787391484715045
0.00983484777621925
0.009926325264386833
0.009962409194558859
0.00997717187507078
0.010022311217617243
0.010054151052609086
0.010039713999722153
0.009996544029563665
0.009928681729361415
0.009854781122412533
0.009832026562653482
0.009867677751462906
0.009913015216588973
0.009957798034884035
0.010010333876125514
0.01004638847662136
0.010068172502797098
0.010113455813843757
0.010188307594507933
0.010249315584078432
0.01025249960133806
0.010221131190191954
0.010191459003835916
0.01014550298685208
0.010102067694533616
0.01010254344670102
0.01010114663047716
0.010077277657110244
0.01010573329636827
0.010171705523971468
0.010180937435943633
0.010176123315468431
0.010250879321247339
0.010343335291836411
0.010351347571704536
0.010301206812728196
0.010255715099629015
0.01020437311148271
0.010126193806063383
0.01004607082111761
0.010000478941947222
0.01000253185397014
0.010019960559438913
0.010007432005368173
0.009976639014203101
0.00996012482792139
0.009944243200588971
0.009931192297954113
0.00996922015445307
0.010052100077737124
0.010117399210575967
0.010156794055365025
0.010212618343066424
0.010271288191433995
0.010271716136485339
0.01022800476057455
0.010219620985444634
0.010268068513832987
0.01031888413708657
0.01033204142935574
0.010324336299672722
0.010309715331532061
0.010286048280540853
0.010282750620972366
0.010317553640343249
0.010350570844020695
0.010341944852843881
0.010300359514076263
0.010271245543844999
0.010290362441446632
0.010341902179643512
0.010377238497603684
0.010364913351368158
0.010326569201424718
0.010315818178933114
0.010347641904372722
0.01039022765820846
0.010418705341871828
0.010448326212354005
0.010493768891319633
0.01051233543548733
0.010483683203347027
0.010467864037491382
0.01049567133653909
0.01053190543083474
0.01054908181540668
0.010540683236904443
0.010508275562897325
0.010486552019137889
0.010516547560691834
0.010566606239881366
0.010568899575155229
0.01052701021777466
0.010499940561130643
0.010498489297460764
0.010483676337171345
0.010463994981255382
0.010486549250781536
0.010536661283113062
0.010536566423252226
0.01045625587226823
0.010347248662728816
0.010299688945524394
0.010308401694055646
0.010314575391821562
0.010297273902688175
0.010273659734521061
0.010254179320763796
0.010250021812971681
0.010278308605775237
0.010329845529049635
0.010373007035814225
0.010380161139182746
0.010345160097349435
0.010290115161333234
0.010234112245962023
0.010179383826907725
0.01012782075908035
0.010080657112412154
0.010056526875123381
0.010077997716143728
0.01012045516166836
0.010159305636771023
0.010208419905975461
0.010248095521237701
0.010259397102054209
0.010300044151954353
0.010378000126220286
0.010407127267681062
0.010382188081275672
0.01036869121249765
0.010353627828881145
0.010296761028002947
0.010234697945415974
0.010222559010144324
0.010246126491110771
0.010267811969388276
0.010301305460743607
0.010366153679788112
0.01043492456432432
0.010490584350191057
0.010554589156527072
0.010614709474612027
0.010626012871507556
0.010579149101395159
0.01049293260788545
0.010404632156714798
0.01035801820922643
0.01035165837034583
0.010359135703183711
0.010371478940360248
0.010389999491162599
0.010419122071471065
0.010443814806640148
0.010430612317286432
0.01038249405566603
0.010331710397731514
0.010292041061911733
0.010264612615574152
0.010240022684447467
0.01021841934416443
0.010239227609708905
0.010303963671904058
0.010338625812437385
0.010311482592951506
0.010278990590013564
0.010293484840076417
0.010342647149227559
0.010363111884798855
0.010312977063003928
0.010243311871308834
0.010227576997131109
0.010244744790252298
0.01023338298778981
0.010194397778250278
0.010166571179870515
0.010159306006971746
0.010131860566325486
0.010053568358998746
0.009984776633791626
0.009999902956187724
0.010045696559827774
0.010028269023168833
0.00997403591638431
0.009964687826577574
0.010021230154670775
0.010102210498880595
0.010141287085134535
0.010102210463955999
0.010005139792338014
0.009906910497229547
0.009863003471400589
0.00986396186053753
0.009846233762800694
0.009816847322508693
0.009851809847168625
0.009930789936333895
0.009958652961067856
0.009959076673258096
0.010037018186412752
0.010164448905270547
0.010226371625903993
0.010166811007075012
0.01005929937120527
0.009992210550699383
0.009982224160339684
0.010002371713053435
0.010034604952670634
0.01005843751365319
0.010057506661396473
0.010036114386748523
0.009992799004539848
0.009936192997265607
0.009909271022770554
0.00993874658131972
0.010002295428421348
0.010051311892457306
0.010053571898024529
0.010029552190098911
0.010011780152563005
0.009995780617464334
0.009971483945846557
0.009945693840272725
0.009933562001679093
0.00994570902781561
0.009944953606463969
0.009882614389061928
0.009807186163961888
0.009789408971555532
0.009805568542797119
0.00983349833637476
0.009882855601608754
0.009916904184501618
0.009912917378824205
0.009903413758147508
0.009909139964729547
0.009918753413949162
0.00990420127985999
0.009840532117523252
0.009754805674310774
0.009712546532973647
0.00971797271631658
0.009718976845033468
0.009719791386742145
0.009762506356928498
0.009826260069385171
0.009866635794751347
0.009893890162929892
0.009922199810389429
0.009924910196568817
0.009879609534982592
0.00979361564386636
0.009706994888838381
0.009681378998793662
0.009732627808116377
0.009805455028545112
0.009851132989861072
0.009870920185931028
0.009882152392528952
0.009903644137084484
0.009926498599816114
0.009894809895195067
0.009811730615328997
0.00976651833159849
0.009779046308249235
0.009782319965306669
0.009760278596077114
0.009763747367542238
0.009818379255011677
0.009884101746138185
0.009913101294077933
0.009911024456378072
0.009893529310356825
0.009859727339353412
0.009841917934827506
0.009871321569662542
0.009933673390187324
0.010012440411373972
0.01008681989973411
0.01010563494404778
0.010052349744364619
0.009997523326892405
0.00998512068297714
0.00995614840881899
0.009885951110627502
0.009823896349407732
0.00979145871475339
0.009799823127686978
0.009862984651699663
0.009946955700870603
0.00999048698693514
0.009949630561750382
0.009854179343674331
0.00982658019522205
0.009918842031620443
0.009998857351019979
0.009960813662037254
0.009883789408486337
0.009841041683685034
0.009790117866359652
0.009738701283931733
0.009776326918508858
0.0098972029495053
0.009976736847311258
0.009952375704888255
0.009889056987594813
0.009838879029266535
0.009786047160159796
0.009734649762976914
0.009705289821140469
0.009688657512888312
0.009679607914295047
0.0096852768631652
0.009693001999985427
0.00968855365877971
0.00967775655677542
0.009668155158869922
0.00966042204061523
0.00965659724548459
0.009664191983174532
0.009682382333558053
0.009704481908120215
0.009745402543339879
0.009808738667052239
0.009850815942045302
0.00984363763127476
0.00981667370768264
0.009793002845253796
0.009768192004412413
0.009747066907584668
0.009708795053884388
0.00962088246596977
0.009525055848062038
0.00949142740573734
0.009514607058372348
0.009529724570456892
0.009503757858183234
0.009475029497407377
0.009497868223115801
0.009568546367809176
0.009627913336735218
0.009648044460918754
0.009663010083604604
0.009681076335255057
0.00968488555867225
0.009706521353218705
0.009753752856049687
0.009764599937479943
0.009731424162164331
0.009721919228322804
0.009774078936316074
0.009870516525115818
0.009952833103016019
0.009954484219197184
0.009882910356391222
0.009822668200358748
0.00983334707096219
0.009889442387502641
0.009932428868487476
0.0099414783436805
0.009940046672709287
0.009981376307550818
0.01008215792477131
0.0101541978539899
0.010127196304965764
0.010075348473619669
0.010086468877270818
0.010110873710364104
0.010057897681836039
0.009962949571199715
0.009916523774154484
0.00990922567434609
0.009909932573791594
0.009933113339357078
0.009945767638273538
0.009906670788768678
0.009842616403475404
0.009806229972746223
0.009829811258241535
0.009881120985373854
0.00989647421054542
0.009874604505021124
0.009867371525615454
0.009900621236301959
0.00992975479690358
0.009899219321087003
0.009829449651297182
0.009781807402614504
0.009781384419184178
0.00980031083105132
0.009805362476035952
0.009826029315590859
0.009903968365397304
0.009990283066872507
0.010009603996295482
0.009972479701973498
0.009936101487837731
0.0099437187705189
0.01000349601265043
0.010060025467537344
0.010056864428333938
0.010004866071976721
0.009945990056730808
0.009918161160312593
0.009933807272464037
0.009970525214448571
0.010009591802954673
0.010041344822384416
0.010047197891399264
0.010035068360157311
0.010042275707237423
0.010074240970425308
0.010107281687669455
0.010128713329322636
0.010114577682688832
0.010048348587006331
0.009985007746145129
0.009993611364625394
0.01004505914170295
0.010058596483431756
0.010022759297862649
0.009957749811001122
0.009856059257872403
0.009745927015319466
0.009693466816097498
0.009714760244823992
0.009755157101899385
0.009773841770365834
0.009784880871884526
0.00980221964418888
0.009840251901187003
0.009926778376102447
0.010045568915084005
0.010127215404063463
0.010128589672967791
0.01007553885690868
0.010004545878618955
0.00993843661621213
0.00990676525980234
0.009898290899582208
0.00986396894324571
0.00979544379748404
0.009730815375223755
0.009701939886435867
0.009690136378630997
0.00965528721921146
0.00961813289206475
0.009626588560640812
0.009655090835876763
0.009645493966527283
0.009598658573813736
0.009557663616724311
0.009553650920279324
0.009584696111269296
0.009636272541247309
0.009679925222881138
0.009653859371319413
0.009555594814009964
0.009485659440979361
0.009499065936543047
0.009536065524443985
0.009530224078334868
0.00949139398522675
0.00948892648331821
0.009566056318581104
0.009661324457265436
0.009682084871456028
0.009650687407702207
0.009656260646879673
0.009694357914850116
0.009689902723766863
0.009648687606677413
0.009655629354529082
0.009731478407047689
0.009806993058882654
0.009840089790523053
0.009863421386107803
0.009876097491942347
0.009817220796830952
0.009713101834058761
0.009672306859865785
0.009709052084945142
0.009725302197039128
0.009681125888600945
0.009667643932625652
0.009759684344753623
0.009894901742227376
0.009956070566549896
0.009920821208506823
0.009879510663449765
0.009894015779718757
0.009922322831116617
0.009920820998959244
0.009899303331039846
0.00987645217217505
0.009875481370836497
0.00989025613758713
0.009867981364950538
0.009812904456630349
0.009786357213743031
0.009784234729595482
0.009773687529377639
0.009782234532758593
0.00983061852864921
0.009879604172892869
0.00989071358460933
0.009879958941601217
0.009892380079254508
0.009939480805769563
0.009988710633479059
0.01000495545566082
0.009989244011230768
0.009962121113203467
0.009926011464558541
0.009901002384722232
0.009924053144641221
0.009956600521691143
0.009923539226874709
0.009858564124442637
0.009847828703932464
0.009882183154113591
0.009924348359927535
0.009985443609766663
0.010045508220791817
0.010055474350228905
0.010025028893724084
0.009994429186917841
0.009957274147309363
0.009910895964130759
0.009900726177729666
0.009923555902205408
0.009908826309256255
0.009836535919457674
0.009765510400757193
0.009742881865240633
0.009764829319901764
0.00982653089798987
0.009909991309978067
0.009965401669032871
0.009999766978435218
0.010050128051079809
0.010094409119337797
0.01012396062258631
0.010162084633484482
0.01019571049604565
0.010197571036405862
0.010149945397861302
0.010070207715034484
0.010028024311177433
0.010043624080717564
0.010051416959613561
0.010016694706864655
0.009986012373119593
0.010009204745292663
0.0100546592194587
0.010068362578749657
0.010097482125274837
0.010193363539874553
0.010271905483677983
0.01025994861498475
0.010232323189266026
0.010264685349538923
0.01030870532616973
0.01029811895918101
0.01025423901155591
0.01022973468992859
0.01022309247404337
0.010202000834979116
0.010175119168125094
0.010172833995893598
0.010192095437087118
0.010212799804285168
0.010209116339683532
0.010160078816115857
0.010107752769254148
0.010109482035040855
0.010141407186165453
0.010172169459983706
0.01021899377927184
0.010261317705735564
0.010251214620657265
0.010207243943586946
0.010192993655800819
0.010232377862557769
0.010291880103759468
0.010316384970210493
0.010291467853821814
0.010267715123482048
0.010265714898705482
0.010247132224030793
0.010220100157894194
0.01021295006852597
0.010188789311796427
0.01013153223786503
0.010094141378067434
0.010097425435669721
0.01012244155164808
0.010168909044004977
0.010222399798221886
0.010240767868235707
0.010216548624448478
0.010178666240535676
0.010131264408119022
0.010080179069191217
0.010063414662145078
0.01008024306036532
0.010090836915187537
0.010097402748651802
0.010123053696006537
0.010156518169678748
0.010180307868868112
0.010182725400663912
0.010165262524969876
0.010166900833137333
0.010210279813036323
0.010267788474448026
0.010319254412315786
0.010379328853450715
0.010443453500047327
0.010471982071176172
0.010461045647971332
0.010443666465580464
0.0104247886268422
0.010405412525869906
0.01041468305978924
0.010458274781703948
0.010518641853705048
0.010598502205684781
0.010681618675589562
0.01071510904468596
0.010689934501424431
0.010664219101890922
0.0106691420590505
0.010668919538147748
0.010641527641564608
0.010617905715480446
0.01062324933707714
0.0106553401844576
0.010700443387031555
0.010728188543580472
0.010740873636677861
0.010764581859111786
0.010757057615555822
0.010685937982052564
0.010614278633147478
0.01061292516067624
0.010707099437713623
0.010845832778140902
0.010928919180296362
0.010953940525650978
0.010993709741160273
0.011035938067361712
0.011004794891923665
0.010894595053978265
0.01077981094829738
0.010691542788408696
0.010574166788719594
0.01043301162775606
0.010374476141296328
0.010406969040632248
0.010420330073684455
0.010393237313255668
0.010391712062992156
0.010411597392521798
0.010404531401582063
0.010371030140668154
0.010326539487577975
0.010279717580415309
0.01025066766422242
0.01024198110215366
0.010240951692685485
0.010237270905636251
0.0102123764436692
0.010166717302054167
0.010132223265245557
0.010128389257006347
0.010138137126341462
0.010124858445487916
0.010086001586169005
0.010077327666804194
0.010124581824056804
0.010174789251759648
0.01019981243647635
0.010220933281816542
0.010219725668430329
0.010178436846472324
0.010129856360144913
0.01008775522466749
0.010052949595265091
0.010045063602738082
0.010051157209090889
0.010041511999443174
0.010042700162157416
0.010092663140967488
0.010148943448439241
0.010159090217202902
0.01015772924758494
0.010181984351947903
0.010197302345186472
0.010172159685753286
0.01012707298155874
0.010124306292273105
0.010154286692850291
0.010199021897278726
0.010172336157411336
0.010079167797230185
0.01001829346641898
0.010017325752414763
0.010013201883994042
0.009983244738541543
0.009964626799337566
0.00997646490111947
0.009994039121083915
0.009995925608091056
0.009999285987578332
0.010019873958081007
0.010042732921428979
0.010031643379479647
0.009961074055172502
0.009865567740052938
0.009817643696442247
0.009847832997329532
0.009903441318310797
0.009907028321176767
0.009855087846517563
0.00978970190975815
0.00971604389604181
0.009638603571802377
0.009588910113088787
0.009580865604802966
0.009611551398411394
0.009652275503613054
0.00965453636366874
0.009635662361979484
0.009658644800074398
0.009711647643707693
0.0097232057293877
0.009674659273587167
0.009604654470458628
0.0095334447408095
0.00946902731899172
0.009452599403448402
0.009506077412515879
0.00958196485415101
0.00963004445657134
0.00963319795206189
0.009585453616455197
0.009523406326770782
0.009491807436570526
0.0094628447573632
0.009412463675253092
0.009400437353178859
0.009481656914576888
0.00961687244940549
0.009714959743432701
0.009752046540379524
0.009780455678701401
0.009803531714715064
0.009793681278824806
0.009793702801689506
0.009835896459408104
0.00985317474231124
0.009783003963530063
0.009690028009936213
0.009672435410320758
0.009720746828243136
0.00979191810823977
0.009875490567646921
0.009934093221090734
0.009940264355391264
0.009923253450542688
0.009893004167824983
0.009838962987996637
0.009800447220914065
0.009805914591997861
0.009802156174555422
0.009731632517650723
0.009634959804825484
0.00959708628244698
0.009615475721657276
0.009632332301698625
0.009627319490537047
0.009597568763419986
0.009552341122180223
0.00953059650491923
0.009561453037895263
0.009632399887777865
0.00969410887453705
0.00971447396557778
0.009721790850162506
0.009738248973153531
0.009746826449409128
0.009733887407928705
0.009686225284822285
0.009617093885317445
0.009573110323399305
0.009546405533328653
0.009491112306714058
0.009439256442710757
0.009478929606266319
0.009612758527509868
0.009706697133369744
0.009709060294553637
0.009651012169197202
0.009662534971721471
0.009778225738555192
0.009892886220477522
0.009933701539412141
0.009952682591974736
0.00997444846201688
0.009943086169660092
0.009880804675631225
0.009874969865195453
0.009901148481294513
0.009871616195887327
0.009789600828662514
0.009711369369179011
0.009671741728670896
0.009680291949771345
0.009718182333745062
0.009747483069077134
0.009733079778961838
0.009683578847907484
0.009651174396276474
0.009667582991532982
0.009739350858144463
0.009870319808833301
0.01000571543816477
0.01004701052326709
0.009981366181746125
0.009882216840051115
0.009813098218291998
0.009811060093343258
0.009868279355578125
0.009919953420758248
0.009916410190053284
0.009863045704551042
0.00979839866515249
0.009773941319435835
0.009803146068006753
0.009835910005494952
0.009838725798763335
0.009846273106522857
0.009882634985260666
0.009921481106430293
0.009951735590584576
0.009968795720487833
0.009934917255304754
0.009861913067288697
0.009821900646202267
0.00981168015860021
0.009770475449040533
0.009715858320705593
0.009709400981664658
0.009754434558562935
0.009820105745457114
0.009895673226565123
0.00996682547032833
0.010000245370902121
0.009987993109971284
0.009943981864489615
0.009889687048271298
0.009878489654511213
0.0099157650815323
0.009918001969344914
0.009862979468889534
0.00982920271344483
0.009853710252791643
0.009897371861152351
0.00992525075096637
0.009934617863036692
0.009940480049699545
0.009965098914690315
0.010014859675429762
0.010070261671207845
0.010132884522899985
0.010231136432848871
0.010326140690594912
0.010339353526942431
0.01029005041345954
0.01024633405264467
0.010220004855655133
0.010212331316433848
0.010232016448862851
0.01025048283394426
0.0102312024962157
0.010194281172007323
0.0102029521856457
0.010254747667349875
0.010275546666234732
0.010261315684765578
0.01027457361575216
0.010325136343017221
0.01036793302744627
0.010361392009072006
0.01032025903929025
0.010310924928635359
0.010348690748214722
0.010364074292592704
0.01030912742484361
0.01023185377009213
0.010212666857987641
0.010263333236798644
0.010318946503102779
0.010310641713440418
0.0102391543565318
0.010169261670671403
0.010137434820644558
0.010116378795355558
0.010094819874502718
0.010109809013083577
0.010162429749034346
0.010192767670378088
0.010177799705415965
0.01016444506123662
0.0101788071077317
0.010179508454166352
0.010138698783703149
0.010097223976626992
0.01008357398211956
0.010082932217046618
0.010086739901453257
0.010068233869969846
0.010011647939682006
0.009963430929929018
0.009919832362793386
0.009807453993707894
0.00967333524953574
0.009669199269264937
0.009801773335784674
0.009930964829400181
0.009979056087322533
0.009959535296075047
0.009901946033351124
0.00985280032735318
0.009867209969088435
0.009949397472664713
0.01003101181704551
0.010047995829954743
0.010013007228262722
0.009975951602682472
0.009955886462703347
0.009934163540601731
0.009885396207682789
0.009806123287416995
0.009720904952846467
0.009658853700384497
0.009633201607502997
0.00964058440644294
0.009680999382399023
0.009775338512845337
0.009900834625586868
0.009952789680100977
0.009879153659567238
0.009769320753403008
0.00971744194161147
0.00971446072217077
0.009713585483841597
0.009679499166086316
0.009610116071999074
0.00956836779601872
0.009600959038361907
0.009667371176183224
0.0097236935980618
0.009769776095636189
0.009784073513001203
0.009734472660347819
0.009671636340208352
0.009684463129378856
0.009757059733383358
0.009804683257825672
0.009818987138569355
0.00984700013883412
0.00987525678705424
0.009853600491769612
0.009786606151610613
0.009701437205076218
0.009600497204810382
0.009528353465721012
0.009558719540946186
0.00965525705832988
0.009706299710087478
0.009697592686861753
0.009695913996547461
0.009719851952977478
0.009729767022654413
0.009684383273124694
0.009589567109942436
0.009514795881696046
0.009509286507964135
0.009543588571250438
0.009581924118101597
0.009617387419566512
0.009655429096892477
0.00971289313863963
0.009771058652549982
0.009787335679866373
0.009776002275757492
0.009781784247606992
0.009813532512634993
0.009837808250449599
0.009809251218102872
0.009742560768499971
0.009708966217003763
0.009728996665216982
0.009756636498495936
0.009755315487273037
0.009730609389953316
0.009715209798887372
0.009727274510078132
0.00975312123540789
0.009783566980622709
0.009827331239357591
0.00988445958122611
0.009925817861221731
0.009922186923213304
0.009899422912858426
0.009897245015017687
0.009898671195842326
0.009878761051222682
0.009838599674403668
0.009788905885070563
0.009793255445547402
0.00989370821043849
0.009993663025088608
0.01002112299669534
0.010047735720872879
0.010085960193537176
0.010051456326618791
0.009961111256852746
0.009896095995791256
0.009861435117200017
0.009825551994144916
0.00978772086557001
0.009770072600804269
0.009771695137023926
0.009766902411356568
0.009772530090995133
0.009827322047203779
0.009899180349893868
0.00992322877049446
0.009892410449683666
0.009839351088739932
0.009802990867756307
0.009817277672700584
0.009870653050020337
0.009929362344555557
0.009988042516633868
0.010023271422833204
0.00998985701240599
0.009910384640097619
0.009860920603387058
0.009875034280121327
0.009932129485532641
0.009989063795655966
0.009997783526778221
0.009957302510738373
0.009935005521401762
0.009967376869171858
0.00999124526977539
0.009946207478642465
0.009860447039827705
0.009797276635654271
0.009780806233175099
0.009772249376401304
0.009743686420843006
0.009733730875886977
0.009752228623256087
0.00974770925939083
0.009702663128264248
0.009643685040064156
0.009581285971216857
0.009517731047235429
0.009480373379774391
0.009475335967727006
0.009464011769741773
0.009466766417026519
0.009565061861649156
0.0097124217543751
0.009742720532231033
0.009636877123266458
0.009540289691649377
0.009510403661988676
0.009482832360081375
0.009436771776527166
0.009412245494313538
0.009411635217256844
0.00940266799647361
0.00938728946261108
0.009388078069314361
0.009397411393001676
0.00938911500852555
0.00936589965596795
0.00934881498105824
0.009320816388353706
0.009269386543892325
0.009249440431594848
0.009296675128862262
0.00935613346286118
0.009366137213073672
0.009340910618193447
0.009323134822770952
0.009303787415847182
0.009254557667300106
0.00919041977263987
0.009152885577641427
0.009162046876735986
0.009170279740355908
0.009132818453945219
0.009117610948160292
0.009152762810699641
0.009122580904513598
0.008999840933829545
0.008901343145407737
0.008873640578240156
0.008880932009778917
0.00893121783155948
0.009030871102586388
0.009108288954012096
0.009115231232717633
0.009107064814306795
0.009139152886345982
0.009178885780274868
0.009175069616176187
0.009144402528181671
0.009139294801279903
0.009174829958938062
0.009226340427994728
0.009265773673541844
0.009288550820201635
0.009314590925350785
0.009357729773037136
0.009412347744219006
0.009454049798659981
0.009451079317368567
0.009408932444639504
0.009378261305391789
0.009387041246518492
0.009403718719258904
0.009403119776397944
0.009395976020023226
0.009386704377830029
0.009380605886690319
0.00938359858468175
0.009382170401513576
0.00938935047481209
0.009429449820891023
0.009450072553008795
0.00940946674440056
0.009378888714127242
0.009395464826375245
0.009393996256403626
0.009348606537096203
0.009299578657373787
0.009277279148809612
0.009281374402344228
0.009275674382224678
0.009219680833630263
0.009154249550774693
0.0091691182134673
0.00925850729458034
0.009340206724591554
0.00936464614700526
0.009327831203117967
0.009286066675558686
0.009305080440826714
0.009351889318786562
0.009343021819368004
0.009272408429533243
0.009232489098794759
0.009303951598703862
0.009448081543669105
0.009551304480992258
0.009569845292717219
0.009578209379687905
0.00963713343720883
0.009691637167707086
0.009664888442493975
0.00957910947035998
0.009529384658671916
0.009558388269506396
0.009613642222248017
0.009652329194359481
0.009697182676754892
0.009760269015096128
0.00981763201765716
0.00986170229036361
0.009907739968039096
0.009967146199196577
0.010020467559807003
0.010020078192465007
0.009970082375220955
0.009928102027624846
0.009907336649484932
0.00989777029491961
0.009893559161573648
0.009849966266192495
0.009748873882927
0.00964501680340618
0.009574084137566387
0.009517750032246112
0.009510525153018534
0.009485333450138569
0.009534168406389654
0.009605645528063178
0.009637441807426513
0.009636333980597555
0.009652748331427574
0.009682464953511953
0.009669150882400572
0.009653640142641962
0.009738464495167137
0.009874957203865052
0.009934476553462445
0.009915169444866478
0.009881062796339393
0.009850689750164747
0.009837980717420577
0.009868808370083571
0.009928401354700326
0.009957631756551564
0.009922172450460493
0.009862180477939545
0.009834469761699438
0.00983341625891626
0.00981564907822758
0.009772546216845512
0.00974148826673627
0.009744603945873677
0.009748460547998548
0.009723457740619779
0.009697622414678335
0.00970347311347723
0.0097286113537848
0.009740302744321526
0.009743136414326727
0.009761060536839068
0.009739650865085422
0.009635796300135552
0.009557958734221756
0.009594571352936327
0.00966144420672208
0.009675913169048726
0.009688516934402288
0.00975186398718506
0.009803159371949732
0.009775364506058395
0.009735682792961598
0.009769560275599361
0.00982311156578362
0.009810271537862719
0.009755353722721339
0.00972490374930203
0.009720988515764474
0.009698910457082092
0.009645437449216842
0.009614079878665506
0.009660456273704767
0.009736195779405534
0.009735564272850751
0.009665448707528413
0.009621639214456081
0.009629065683111549
0.009661283008754254
0.009721911055967212
0.009800946563482285
0.009853366091847419
0.009863692079670727
0.00985379658639431
0.009826388070359826
0.009760722746141254
0.009664358054287732
0.00958031182643026
0.009529468049295246
0.009495858014561235
0.009460722985677421
0.00941657121758908
0.00938849413767457
0.009408943126909436
0.0094459607033059
0.00945700985379517
0.009478926714509726
0.009540695012547076
0.009569054506719112
0.009499552710913121
0.009397362447343767
0.009370304397307336
0.009416181929409503
0.009438555305823684
0.009396721492521465
0.009347011796198785
0.00933394381776452
0.009350702501833438
0.00938975197263062
0.009437903543002904
0.009478581892326475
0.009519102545455098
0.009562247614376247
0.009611561833880842
0.009701358187012375
0.009838312207721174
0.00991338066291064
0.009948396007530391
0.009876850503496825
0.009801000566221773
0.00978768511209637
0.009796402440406382
0.009790579206310213
0.009796768291853369
0.009817643403075636
0.009802315291017294
0.009726787395775318
0.009647860513068736
0.009634995884262025
0.00967609987128526
0.009713777587749065
0.009718237207271158
0.009682793756946922
0.009626143663190305
0.009605057989247143
0.009666095208376645
0.009787065791897476
0.009889244195073843
0.009918010951951146
0.009904726347886026
0.00992490800563246
0.009993278309702874
0.01002961817663163
0.00996800058055669
0.009878547159023582
0.00986461190506816
0.009892074936069549
0.009896587529219687
0.009917734898626804
0.00998388200532645
0.010025057615712285
0.009987524668686092
0.009942372115328908
0.009965811190195382
0.010000661583617329
0.009997122371569276
0.010033423732966184
0.01014005420729518
0.010204391130246222
0.010175283029675485
0.01014802728779614
0.010174082443118095
0.010197188137099147
0.010183044825680554
0.010153265791013838
0.010124426577240228
0.0101028046105057
0.0101092329621315
0.010148560083471238
0.010196540080942213
0.010255688708275557
0.010329006328247488
0.010352789149619639
0.010285660130903125
0.010200374275445939
0.010181588218547404
0.010219013155438005
0.010257115853019059
0.0102713566692546
0.010262875379994511
0.010231168600730598
0.010187508729286492
0.010170052330940961
0.010206939233466984
0.010265773199498653
0.010281203049235046
0.010242944499477744
0.010204062424600124
0.010190691486932336
0.010181758832186461
0.010181111157871783
0.010215897257439792
0.010261544580571354
0.01025424816645682
0.010194322098977865
0.010151498368941247
0.01015159286558628
0.010153898703865707
0.010149537306278943
0.010185658331029118
0.010274435342289508
0.01035592186730355
0.010374689679592848
0.010343113197013736
0.01030938491690904
0.01029987623449415
0.01030157540924847
0.010282379956915975
0.010242356830276548
0.010221289112232626
0.010238689477555454
0.010286148283630609
0.010352893387898804
0.01039728538133204
0.010369628486223519
0.010300345667637885
0.010288721965625882
0.010374310980550945
0.010482403668574988
0.010535662532784046
0.010536521160975098
0.010517477914690971
0.01048907009884715
0.010448861070908606
0.010410269387066365
0.010410620397888124
0.01046780998352915
0.010517147765494884
0.010479605728760362
0.010407831659540534
0.010419203164055944
0.01050557354465127
0.010581557806581258
0.010634555448777974
0.010662013972178102
0.010620971331372858
0.010538431373424828
0.01049609161913395
0.010503141204826533
0.01050975412596017
0.010491375136189163
0.010457137930206955
0.010442522764205932
0.01047962562646717
0.010535345366224646
0.010562624791637063
0.010572978872805833
0.010570174315944314
0.01051448993384838
0.01040416959207505
0.010309248426929117
0.010293400627560914
0.010341994217596948
0.010394447348080576
0.010414032880216837
0.010393300703726708
0.010329796518199146
0.010244861431419849
0.010192566001787782
0.010193671309389174
0.010201388960704208
0.010182648394256831
0.010157759892754257
0.010133328498341143
0.010105376513674855
0.01011186842340976
0.010168911833316087
0.010208535813726485
0.010186300431378185
0.010161577402614056
0.010165987787768244
0.010144396531395615
0.010104292025789618
0.010126313390210272
0.010211090678349138
0.010271542584523558
0.01026418779976666
0.010241275806911289
0.010241197175346314
0.010223247064277529
0.01018155130557716
0.010174787305295467
0.010198933118954302
0.01019728597253561
0.01018364476505667
0.010215645600110292
0.010288690384477377
0.010358474678359925
0.010420470964163542
0.010467908116988838
0.010452369865961373
0.010379472975619137
0.01033016154076904
0.010338088474236428
0.010346612157300115
0.01031594124622643
0.010280850636772811
0.010265389666892588
0.010242895008996129
0.010191602539271117
0.010110800424590706
0.010026545566506683
0.009993098909035325
0.010027436483651399
0.010088256280869245
0.010140238786116243
0.010183809660375118
0.010216632978990675
0.01021245829295367
0.010171092627570034
0.010128549281507731
0.010092414990067482
0.010043561095371842
0.009992867996916175
0.009970509577542544
0.009967758236452937
0.00994148881174624
0.00989593651611358
0.009890802497975528
0.009940993622876704
0.010001308829523624
0.010038920105434954
0.010055019711144269
0.010067949569784105
0.010069074262864887
0.01001134272199124
0.009911713977344335
0.009878945732489229
0.00995255371555686
0.01002280216664076
0.009987845206633211
0.009899707208387554
0.009848132086917758
0.009817155664786697
0.009779474097304047
0.009748635948635637
0.009700985220260918
0.009623215137980878
0.009565727454610169
0.009554025265388191
0.00955821002367884
0.009562383000738918
0.009569604624994099
0.009587511732243002
0.00963139660190791
0.009681295030750334
0.009697754583321512
0.009682937376201153
0.009673979966901242
0.009710789318196475
0.009778218208812178
0.009801261345855891
0.009757974492385984
0.009705277075991035
0.009685159963555633
0.009683597893454134
0.009659006432630122
0.009609193191863596
0.009584055859595536
0.009590474083088338
0.009584806673228741
0.009564228947274387
0.009567685169167816
0.009622436519712209
0.009712706259451807
0.00978913813829422
0.009804885489866138
0.009740001228637994
0.009647751124575735
0.009619991453364491
0.009666006211191416
0.009723562500439584
0.009746479727327824
0.009738426529802382
0.009735590210184455
0.009748615967109799
0.009757997584529221
0.0097465613624081
0.00971660641953349
0.00970197397749871
0.009706928366795183
0.009682656330987811
0.009632572433911264
0.009609611411578954
0.009613627581857145
0.00961797744501382
0.009619659967720509
0.009608014179393649
0.009576204009354114
0.00956313787959516
0.009605532614514231
0.009670910201966762
0.00971031401772052
0.009742615255527198
0.009806494982913137
0.00986883326433599
0.00987286028917879
0.009838404483161867
0.009819323979318142
0.009812373034656048
0.009795053978450596
0.009785952572710812
0.009804354505613446
0.009819478830322623
0.009795143688097595
0.009754755031317473
0.009727972075343132
0.009708698359318077
0.009711527288891375
0.009745498863048851
0.009767134445719422
0.009753424655646086
0.009726178096607328
0.009686970398761333
0.009640905181877315
0.00962900270242244
0.009658325952477754
0.009680241425521673
0.009667116655036808
0.009652791726402939
0.00966282355133444
0.009660159456543624
0.009610579567961394
0.009543147068470717
0.009517681542783976
0.00954299264587462
0.009558249106630683
0.009544920176267624
0.009553772043436765
0.009594000801444054
0.009626750480383634
0.009622468082234263
0.009592013945803047
0.00957298869267106
0.009560272004455328
0.009532807995565235
0.009511959878727794
0.00953131802380085
0.00959475727751851
0.009660368068143726
0.009689514795318245
0.00970466793049127
0.009746810626238585
0.009795958870090543
0.009781060991808772
0.009695234592072666
0.009639802044257522
0.00968977764248848
0.00979175414890051
0.009846956003457308
0.00984225379768759
0.009840739825740456
0.009865684174001218
0.009889140692539513
0.009898254028521479
0.009891484454274178
0.009871157472953201
0.009861316410824656
0.009872708003968
0.009876100379042328
0.009864319721236825
0.009871551580727101
0.009877739483490586
0.009816875825636088
0.00970330265816301
0.00960907782893628
0.009581385236233473
0.00964633700903505
0.009751939168199896
0.009782609920948744
0.0097317495662719
0.00970607461873442
0.009757261178456246
0.009823208819143473
0.009829072915017605
0.009780439035966992
0.009722930206917226
0.009695889726281166
0.009719609366729855
0.009753073933534324
0.00974651745054871
0.009726002067327499
0.009734798208810388
0.00975311767309904
0.00972897672560066
0.00964064430911094
0.0095711829373613
0.009484739759936928
0.009485823069699108
0.009535912042483687
0.009576039547100663
0.009607007768936455
0.00962776055559516
0.009625050481408834
0.009638455081731081
0.009690351695753633
0.009729459350928664
0.009729194566607475
0.009725422402843832
0.009745688512921333
0.009775044661946595
0.009792092852294446
0.009799591354094446
0.009812463731504977
0.009843042003922164
0.009890154465101659
0.009950013644993306
0.010014740144833922
0.010041514546610415
0.01001333212479949
0.0099941203603521
0.010027612135745585
0.010088867461308836
0.01016342491377145
0.010238519967533648
0.010267764567397536
0.010234205098822714
0.010172999892383815
0.010115800630301238
0.01005632028914988
0.009989598700776696
0.009958785446360707
0.009993522143922746
0.010050521050579846
0.01009374158922583
0.010166330127976835
0.010297687286511063
0.010404699994251133
0.010404545799829065
0.010343210268765689
0.010315976077690721
0.010352649078704416
0.01040388495195657
0.010426555052399636
0.010453295726329088
0.010516500514931977
0.010602443884126843
0.01068202780559659
0.010712776803411544
0.010684105181135238
0.010623424625955523
0.010535140144638718
0.010447671529836952
0.010437960498966276
0.01050116871483624
0.010546920718625188
0.010542593179270626
0.010500377635471523
0.010416253237053752
0.010330206318758427
0.010297940042801202
0.010291627482511103
0.010267842570319772
0.010247961631976069
0.010266665341332555
0.010344332763925195
0.010461158999241889
0.010528306337073445
0.01050494225230068
0.010474925609305501
0.010496928552165628
0.01052197175566107
0.010521578188054263
0.010536633837036789
0.01058389903511852
0.010618506041355431
0.01058588681742549
0.010501016410999
0.010434863818809391
0.010408803923055529
0.010401334445923567
0.010396103374660015
0.010363121530972422
0.010313253188505768
0.010319354292005301
0.010399607932195068
0.010497278231196106
0.010569353625178336
0.010603697248734533
0.010612243115901946
0.010636284002102911
0.010691840248182417
0.010721532092429698
0.010685189682990313
0.01065089037641883
0.010687803216278553
0.010712724807672203
0.010780243161134422
0.01081252441741526
0.010803036228753626
0.010763224172405899
0.010705711655318736
0.010649939058348537
0.010612514186650514
0.010570091921836137
0.010518482518382371
0.010505073349922895
0.01053234283812344
0.010544344363734127
0.010521369809284807
0.010494056711904705
0.010476367780938745
0.01044756659772247
0.010397580228745937
0.010343045946210622
0.010307204746641218
0.01030377718154341
0.010316784996539353
0.010316932899877429
0.010319312191568316
0.010361547749489546
0.010410272940061987
0.010396654992364347
0.010325253279879688
0.010235154503025114
0.010149254086427391
0.01011464383918792
0.010171902994625271
0.01028108472470194
0.010365572776645422
0.0103771385923028
0.010325810802169145
0.010285180495120585
0.010303080724552273
0.01031695713289082
0.010245364010334015
0.010114728584885596
0.010011204993352294
0.00996874451637268
0.009974200278520584
0.010001679849810898
0.010009776335209608
0.009986264896579087
0.00995568795595318
0.00992116920184344
0.009887827532365919
0.009866304998286068
0.009819442480802536
0.009750731904059649
0.009741290919482708
0.009792398954741656
0.009831774858757853
0.009846811844035984
0.009847253239713609
0.009838864766061306
0.009854189874604345
0.009895073994994164
0.009944731900468469
0.010013240776024758
0.010077173714525997
0.010098204179666937
0.010103344167582691
0.010120642823167145
0.010121117541566492
0.010082826218567788
0.01001895846799016
0.009964180192910135
0.00995130766183138
0.009966507270000875
0.009962073382921518
0.009907784759998322
0.009831991964019834
0.009818153451196849
0.009897089172154665
0.009991713603958487
0.010034934193827212
0.010040197279304266
0.010037253689952196
0.010048231012187898
0.010090101133100689
0.010138008226640523
0.010158478431403637
0.010168963666073979
0.010181564325466751
0.010155514567159116
0.010078116399236024
0.009989257571287453
0.00991287149488926
0.009859832702204585
0.009839933202601969
0.009839503313414752
0.009848935338668525
0.009881054949946701
0.00993025050498545
0.009974292321130633
0.010040514254942536
0.010159769002348185
0.010246670856140554
0.010215022778138518
0.010132894879207014
0.01008592506404966
0.010079351793974638
0.01011043515522033
0.010160396462306381
0.010190828409977258
0.010194254005327821
0.010175054199062289
0.010131151950918137
0.01008584254886955
0.010079709230922163
0.010110809355974198
0.010112233296968042
0.010048943683505058
0.009986586500890553
0.009977515856735408
0.009986980319954455
0.009976226543076337
0.009954745029099286
0.009944411413744091
0.009927982641384005
0.009880040031857789
0.009839105559512973
0.009843364763073624
0.009871430569328368
0.009918893231078982
0.009988684011623263
0.01004181660246104
0.010043705636635423
0.009993459801189602
0.0099117236956954
0.009854449443519115
0.009872164917178452
0.009935341132804752
0.009978048643097282
0.010004127477295698
0.01005013719201088
0.010099159604869783
0.01012414472643286
0.010140907121822237
0.010169448894448579
0.010202093133702874
0.01020968217868358
0.010174131230451166
0.010139350211247802
0.010153067107312381
0.010173655273392796
0.010159114669077098
0.010143294082954526
0.010130872474983335
0.010089031979441642
0.010044045289978385
0.010017432202585042
0.009968326613306999
0.009901944315060973
0.009874580795876681
0.009874292435124516
0.009840804333798588
0.00977496081031859
0.009740094570443034
0.009759216061793268
0.009789877752773464
0.0098221324570477
0.009878436331637203
0.009936387431807817
0.009971356908790767
0.010000667637214064
0.010041603222489356
0.010081027504056692
0.01008085378445685
0.010035858759656548
0.00999869697727263
0.009989636773243547
0.00997087348252535
0.00992952901404351
0.009881832809187472
0.009841890218667685
0.009847176652401686
0.009914851728826762
0.00998198864981532
0.009993326854892076
0.009969298611395061
0.009929121942259372
0.009864175897091628
0.009806059054099023
0.009803228569217027
0.009838047362864017
0.009867315636947751
0.009887670925818383
0.009901975295506418
0.009899982931092382
0.009871083805337548
0.00981825272552669
0.009786598957143724
0.009820433813147247
0.009874242013320328
0.009833075879141688
0.009665036951191723
0.009511659923009574
0.009499911582097412
0.009567227382212877
0.009624436534941196
0.009654513001441956
0.009625942343845964
0.009546449622139335
0.009483920312486589
0.009471110696904362
0.009516292293556034
0.009619127265177668
0.009726727455854416
0.009781795488670468
0.009807123597711324
0.009876813781447709
0.009991773036308587
0.010054412744939328
0.01001886276062578
0.009931163610890508
0.009819216658361257
0.009721304993145169
0.009718690169975161
0.009810912730172277
0.009888522829860448
0.009867363921366633
0.009791883691214025
0.009778302581980824
0.009848410040140152
0.009908171012066305
0.009897239389829338
0.009840153977274895
0.00977442175615579
0.009730119192972779
0.009735530447214842
0.0097690264089033
0.009767169547267258
0.009711522576399147
0.0096380465477705
0.009593533277511597
0.009610606380738318
0.009653704897500575
0.009650163748301566
0.009594296040013432
0.009523933078162372
0.009486835207790137
0.009516669102013112
0.009545036964118481
0.009507501181215048
0.009476960031315684
0.009504553833976389
0.009517577686347067
0.009469762295484543
0.009420633702538907
0.009438153877854348
0.009528342434205115
0.009640323901548982
0.009693749616853892
0.009674854637123644
0.00967245918698609
0.009745907010510564
0.009841903960332275
0.00987785582896322
0.009848180920816957
0.009807864045724273
0.009772672271355986
0.009727314813062549
0.009693034263327717
0.00968614986166358
0.00969427312258631
0.009708634042181075
0.009713238761760295
0.009707430782727898
0.009723988361656666
0.009787687668576836
0.009883419973775745
0.009943444742821156
0.00992334188427776
0.009886131403036416
0.00989402251318097
0.0098961461475119
0.009842722960747778
0.009781246753409505
0.009751239074394107
0.009735649484209716
0.009741435637697577
0.009792453087866306
0.009862585179507732
0.009904955755919218
0.009929067851044238
0.009978312621824444
0.010038065998815
0.010053522177040577
0.010030926228500903
0.010032604234293103
0.01007476398255676
0.010103063681162894
0.010082915355451406
0.010042515438981355
0.010022910689003765
0.010044522383250296
0.010089432676322759
0.010102377329021693
0.010041466122493148
0.009917875779792666
0.009804068179801107
0.009750824919901788
0.009742159522138536
0.009747688532806933
0.009766450789757073
0.009754890552721917
0.009684651368297636
0.009622242883779109
0.009624610510654748
0.009658513641916215
0.009669182649813592
0.009645279068499803
0.009629451255314052
0.009681750042364
0.00980173324700445
0.009919250197708607
0.009962528068572283
0.009918991136364639
0.009848633427172898
0.009812022279947995
0.009806237304583193
0.009799658567644656
0.009764876295812429
0.00970337166916579
0.009676567511633039
0.009731245459988713
0.00983495003078133
0.00994156850501895
0.010023934422060848
0.010060306671075523
0.010060673179104924
0.010048471968621015
0.010022121802903712
0.009984717685729266
0.009951234189793467
0.009913675505667924
0.00986703491769731
0.009827758176252246
0.009806300508789717
0.009817688120529055
0.009856973635032773
0.009891828265972435
0.009941770820878446
0.010027867890894413
0.010089691425673664
0.01009544005151838
0.01011915004812181
0.01021461233496666
0.010309665957465767
0.01032901090104133
0.01030578393023461
0.010268436041660606
0.010207031765021383
0.01015853185672313
0.010140676870942117
0.010099499556235968
0.010017155804671347
0.009953277823515237
0.009954398954287172
0.00998594191391021
0.009975773091427982
0.009926236160099506
0.009901715824380517
0.00990259341429919
0.009868140551261603
0.009785162974148989
0.009715954335406422
0.009707983736880123
0.009731161734089255
0.009733959371224045
0.009702286492101848
0.00966021372936666
0.009635161869227886
0.009621105007827282
0.009614928229711949
0.009651967440731823
0.00972410939168185
0.00975802529603243
0.009743915544822812
0.009753689030185341
0.009815982333384455
0.009872160223312675
0.009860824923962355
0.009797681546770036
0.009713279292918741
0.009595739743672312
0.009475410566665232
0.009429794768802822
0.009444012693129479
0.009447753848508
0.009400145034305751
0.009311092472635209
0.00924506685230881
0.009254374336451291
0.009329783688299358
0.00942943913396448
0.00950201865285635
0.00953181680291891
0.009567986149340868
0.009639763166196644
0.009708519242703915
0.00976712022908032
0.009833882628008724
0.009896699232049286
0.009915935075841844
0.009911149083636701
0.009938995921984314
0.009993844972923398
0.010015143803320825
0.009968384290114046
0.00988248669076711
0.009827403803355991
0.009835636354982852
0.009847369599156082
0.00979579665698111
0.00971695117186755
0.009688142882660032
0.009709961283951997
0.009732999876141547
0.009738056627102197
0.009733700128272176
0.00972712267190218
0.009718565163202584
0.009700664407573641
0.009670977951027454
0.009641290516592562
0.009609005316160619
0.009555833400227129
0.009495007814839482
0.009446377861313521
0.009404266756027936
0.009404576574452221
0.009495183946564794
0.009621423692442477
0.00969098552595824
0.009695201329886913
0.00968243861105293
0.009699440537951886
0.009751296429894864
0.00978088099975139
0.00975376441143453
0.009710997687652706
0.009700688142329454
0.009740719818510116
0.009802302457392215
0.009812549045309425
0.009746162700466812
0.009674950619228184
0.009685243088752031
0.009761127368547022
0.009807991427369416
0.00979991533793509
0.00978666536975652
0.009780731364153326
0.009762645335868
0.009746778015978634
0.009745724969543517
0.009732610331848263
0.00969784589484334
0.009669900992885233
0.009678675173781813
0.009718292877078056
0.009748785248957574
0.009759992663748562
0.009767827321775257
0.009773078840225935
0.009781580395065248
0.009798773797228932
0.00981382854282856
0.009820294701494276
0.00982242677360773
0.009833153993822634
0.009861113629303872
0.009892465760931373
0.009911355576477945
0.009920544009655714
0.009932870976626873
0.009945665071718394
0.009942958662286401
0.009928227420896291
0.009891989920288325
0.00980425149668008
0.009707264141179622
0.009691009405069053
0.009771601441316306
0.009890936217270791
0.009985035602003336
0.010020087771117688
0.010018905554898084
0.009998947973363101
0.009982497366145253
0.010007401197217405
0.010044524064287543
0.010024111149832607
0.009942666785791516
0.009856374338269233
0.00981185661163181
0.00981937600299716
0.009857024340890348
0.00990161201916635
0.009937802050262689
0.00992645408026874
0.00984976656269282
0.009765347936190666
0.009732913966290653
0.009737137798219919
0.009728259537369013
0.009699620963074267
0.009678929392248393
0.009678732436150313
0.009697336629033089
0.009723546765744686
0.00974386949557811
0.009772588619962335
0.009840107546187938
0.009941327814012767
0.010030321120284498
0.010070466757752002
0.010055754552595317
0.010009124535135925
0.009974918481893837
0.009979551415890455
0.010029222033917904
0.010116153573617339
0.010178970266133546
0.01015969333704561
0.010112357949838042
0.010127855050377547
0.010199302351102233
0.010265052113682031
0.010298146549612284
0.0102941320464015
0.01025526199489832
0.010216109575703741
0.010214950344525277
0.010240405909717082
0.010265506589785218
0.010280749220401049
0.010269493944942951
0.010230104383081197
0.010184136028401554
0.01011613798327744
0.00999263853766024
0.009824813995510339
0.00966962323524058
0.009649616302922367
0.009739916156977415
0.009822655264288186
0.00980716127436608
0.009714212534017861
0.009638295783661306
0.009637195467948913
0.009689507628791035
0.00972820634022355
0.009722602530382573
0.009720839108340443
0.009767493628896774
0.009830776192247868
0.009854723946191371
0.009853390590287746
0.009869383787736297
0.009880440905690194
0.009857092569582164
0.009818005948327482
0.00978980383835733
0.009787297202274203
0.00980062087997794
0.009802644285373389
0.009795106039382518
0.009808572982437909
0.009846710194833576
0.009862255430780351
0.009825582345947624
0.009776579504832626
0.009761743270792067
0.009776997668668628
0.009791123075410723
0.00979938409756869
0.009808617318049074
0.009780468670651316
0.009724932154640556
0.00975391611456871
0.009873893018811941
0.00994230953976512
0.009914825623854994
0.009883428127504885
0.009894277746789158
0.009914768729358911
0.009936860390007496
0.009997529336251318
0.010091534866951406
0.010154811679385603
0.010163705591112375
0.010166566502302885
0.010197298880666495
0.01025240787304938
0.01032749515492469
0.010383106600493193
0.010379922892898321
0.010355520113371312
0.010349525553174317
0.01035897365771234
0.010395218194462359
0.01046126569621265
0.01052339369431138
0.010550510077737272
0.010524691212922335
0.010458817966282367
0.010424385438673198
0.010453916294500232
0.010476664598099887
0.010462433486245572
0.010466786064207555
0.010484970989637077
0.010442984164692462
0.010325533645227552
0.010207073288038373
0.0101651097740978
0.010185693493112921
0.010197246000170707
0.010202761227265
0.010242411876097321
0.01026422297116369
0.010219379430636763
0.010170607063919306
0.010167157156392931
0.01017353666946292
0.010166614181362093
0.010161109333857894
0.010175602096132934
0.010227912226691843
0.010303598358295857
0.010365381464362144
0.01040589664131403
0.010423327079042793
0.010394398928619921
0.01032069832086563
0.010238429787568748
0.010175597043707968
0.010150198647752405
0.010182575332000851
0.010273433937691152
0.010383701622486115
0.01046904485207051
0.010526193366385996
0.010514845489524305
0.010469781043939292
0.010446142614819109
0.010470631355419755
0.010508988648653031
0.010528341336175799
0.010535609214566649
0.010529637918807566
0.010513689769431948
0.01050344376359135
0.010489030312746762
0.01046536919195205
0.010452739498578011
0.010459532565437257
0.010470656286925078
0.010477651809342205
0.010501198344863951
0.010550301703624428
0.010593706844374537
0.010608685482293368
0.010597741757519543
0.01057660646736622
0.010581658538430929
0.010616317321546376
0.010627703820355237
0.010613975673913955
0.010639906516298652
0.010701017142273485
0.010728636556304991
0.01071424517314881
0.010698273181915283
0.010697909919545055
0.010698524210602045
0.010688488585874439
0.010690875151194632
0.010713953361846506
0.010732908863574267
0.010753881484270096
0.010785235636867584
0.0107998513802886
0.010789010124281049
0.010770330759696663
0.010746494219638407
0.010697210999205708
0.010613375040702522
0.010533460839651525
0.010504046850837768
0.010505558443255722
0.010481649218127132
0.010433213706128298
0.010392453093081712
0.010343210687860847
0.010280030597932636
0.010244025406427682
0.010246982397511602
0.010284132016822696
0.010348642724566162
0.01037621326278895
0.010305480151437223
0.01017388307955116
0.010078136818483472
0.010074273417703807
0.010122902542352676
0.010134857129305602
0.01009891492780298
0.010092948907986283
0.010130932251922787
0.010144645753316582
0.010132215628400444
0.010159886181354523
0.010232653552666306
0.010281339171342552
0.01027391032781452
0.010261480389162898
0.010282827178016304
0.010305772046558559
0.010291541996411979
0.010244153486564756
0.010198929663747549
0.01018907479941845
0.010214868322946132
0.010246602781116963
0.010263085030019284
0.010279089147225022
0.010295668873004616
0.010268185245804489
0.010197396231815219
0.010155306728556752
0.010157647477462887
0.010151488240808249
0.010147503102198243
0.010197251294739544
0.01028264731168747
0.010359878959134221
0.010419241455383598
0.010443859696388245
0.010413606911897659
0.010364079037681223
0.010348376715555788
0.010354706509970129
0.010363752865232527
0.01040457395836711
0.010442905025556684
0.010394772230647505
0.010300324158743024
0.010259865634143352
0.010263688708655537
0.010259500220417977
0.01026231279131025
0.010305081168189645
0.010357141364365816
0.010353178214281798
0.010302031352184713
0.0102670272346586
0.010253712479025125
0.010243073673918843
0.010238908673636615
0.010238522756844759
0.01025896820705384
0.010317346476949752
0.010389683074317873
0.010449623763561249
0.010472855339758098
0.010444181612692774
0.010367409302853048
0.01026721970178187
0.010154487793333828
0.010098840710707008
0.01012630491051823
0.010136217665858567
0.010067231054417789
0.009957792782224716
0.0098938861861825
0.009912956510670484
0.00994349034037441
0.00990543246269226
0.009826755537651478
0.009777841870673001
0.0097681570565328
0.009757702881470322
0.009726109015755355
0.009695119797252119
0.009688180261291564
0.009699193127453327
0.009701399528421462
0.00965992858633399
0.00957251742016524
0.009515655059367419
0.009563186764717102
0.009673104775138198
0.009752914854325355
0.00979029986076057
0.009825470689684153
0.009859728515148164
0.009875632971525192
0.009872553893364966
0.009853418772108853
0.009841696713119746
0.00988648084923625
0.009986738259904086
0.010045585394836963
0.010004706233739852
0.009949996504001319
0.009953437056392431
0.009960975423455238
0.009925235682167112
0.009876298876479268
0.009837538083083928
0.009796471893787384
0.009747472465969622
0.009706592210568488
0.00968767783138901
0.009673939570784568
0.00965279539115727
0.009652250888757407
0.009682700615376233
0.00972621439024806
0.009784715240821243
0.00983842852525413
0.00984869136940688
0.0098436588793993
0.009869952644221485
0.009899000329896808
0.009873494212515653
0.00980080310255289
0.009764731917530299
0.00980552466120571
0.009833921939134597
0.009793198555707932
0.009757546163164078
0.009742472800426186
0.009685384896583856
0.009620185308158398
0.009609843585640192
0.009623234667815268
0.009621328767389059
0.009632488167844712
0.009674063823185862
0.009715908276848494
0.009746443177573384
0.00974652131088078
0.009676800989545882
0.00958880985621363
0.009588156072422862
0.009677118631079793
0.00977612062357366
0.009838918447494507
0.009851987627334892
0.009802090981975198
0.009708733200095594
0.009634682461619377
0.009626263021491468
0.009658571225591004
0.0096889110468328
0.009738217941485345
0.009809532002545893
0.009823627499863506
0.009757432849146425
0.009682630654424429
0.00964165159035474
0.009630268649198115
0.009647165643982589
0.009685712503269314
0.009713987670838833
0.009735155277885496
0.009782162420451641
0.009860687754116953
0.009875262738205492
0.009805982327088713
0.009775872738100589
0.009836248639039695
0.009937287135981023
0.010002221283502876
0.009991439459845423
0.009958963035605848
0.009980023992247879
0.010027291812002658
0.01003816729877144
0.010042607905343176
0.01008495872374624
0.010117775863036513
0.010102489432319998
0.010085719418711961
0.010096137844957411
0.010113218817859888
0.010155785069800914
0.010246837493032217
0.010315387919545173
0.010280891843140126
0.010195455797947943
0.010162787246517837
0.010172693175263703
0.010170376054011285
0.010182606456801295
0.010217691375873982
0.010221327315084636
0.010215501463972033
0.01024902573786676
0.010262849261052906
0.010223148758523166
0.010224290811456739
0.010303775537759066
0.010369968684390187
0.010384466359391808
0.010385717125609517
0.010365272746421397
0.01032048320863396
0.010305271684192121
0.010323392911814153
0.010332494415342808
0.010345484395511449
0.010384693341329694
0.01040799530223012
0.010384038933552801
0.010359620936214923
0.010375877125188709
0.010385267813690006
0.010324912290088832
0.01022963940165937
0.010186329754069447
0.010200275531969965
0.010208064932376146
0.010192877296358347
0.01019076163880527
0.010214102738536894
0.010210945932194591
0.010123396767303347
0.0100057732174173
0.009956140369176865
0.009962192159146071
0.009993732310831546
0.010061341268010438
0.010105487369000911
0.010077572553418577
0.010040292083285749
0.010044744750484825
0.010067595145665109
0.01007940080948174
0.01006401855032891
0.010026623867452145
0.010014997529797256
0.010056648245081306
0.010104947462677956
0.010102427233941853
0.010026177843101322
0.009881220734678208
0.009748807870782911
0.00974822262302041
0.009867670927196742
0.009969570431858301
0.009976176782511175
0.00993332973215729
0.00990149141754955
0.009862130652181804
0.009774412023834883
0.009694308820180596
0.009717245725914836
0.009789419881999493
0.009779864246957004
0.009706563726067543
0.009664313131943346
0.00965116662438959
0.009623665902763605
0.009601142066530883
0.009621990490704774
0.00967035320121795
0.009726266521029174
0.009807920171879233
0.009898668248206377
0.009946544454433024
0.009948654333129525
0.009932493288069964
0.009906722619198262
0.009883154183626175
0.009879865311086177
0.00989485218655318
0.009903914891183377
0.009878355339169502
0.009822957669384777
0.009796046414412557
0.009845962291583419
0.009929881249554455
0.009969840352423489
0.009980502277612687
0.010014965459704398
0.010038739843294025
0.010012227650731802
0.009991171113215387
0.010028255069628358
0.010079113407991827
0.010084989154711366
0.010068015600554646
0.010051845088601113
0.009991573286242783
0.009894736297428607
0.009845762103796006
0.009845886593684555
0.009833890181034803
0.009815729502588511
0.009809758169576526
0.009780099941417575
0.009703854280523956
0.009628426376730203
0.009619366861879825
0.009673875086009502
0.009729502517729997
0.0097468874277547
0.009734637932851911
0.009707161504775286
0.00968046395573765
0.009667876036837697
0.009667784385383129
0.009711828343570232
0.009817789969965816
0.009903623801656068
0.009900856637395919
0.009867736352607608
0.009889747584238648
0.009955496499314905
0.009995941589586436
0.009985976503230631
0.009953436129726469
0.00993273769505322
0.00993440145161003
0.009943104493431746
0.009965150230564178
0.010048718852922321
0.010180344977416099
0.010253149345517158
0.010225655515678228
0.010175234023481607
0.010173735092394054
0.01021863718982786
0.010255845226347447
0.010238410020247102
0.010180402519181371
0.01012841757852584
0.010110092386603355
0.010138630499131978
0.010203533400781452
0.010267850947566331
0.01030220843385905
0.010296337027102708
0.01027163370512426
0.010284330206923186
0.01036215181928128
0.010441570109687746
0.010438228780403734
0.010364406206645072
0.010290242023766041
0.010236499719321729
0.010187326706945896
0.010163240260444581
0.010197151792235673
0.010269504208117723
0.010315898424014449
0.010299455453641713
0.010278782551176846
0.010342370667494834
0.010465688984841109
0.010537990094162524
0.010517415939830244
0.010469561996869743
0.010453202598728239
0.010445505152456463
0.010410699183121324
0.010365118281915784
0.010346766486763954
0.010355252213776112
0.01033893064595759
0.010273440834134817
0.010219725351780652
0.010244153668172657
0.01032382221892476
0.010386177692562342
0.01040796389337629
0.010423914077691734
0.010457957182079553
0.010486149569042027
0.010476214098744094
0.010438278359360993
0.010404636953026056
0.01038901117630303
0.01038559939712286
0.010380012160167098
0.010368439885787666
0.01036219127010554
0.010358243612572551
0.010342731280252338
0.010320812943391502
0.010303797950036823
0.01029679163824767
0.010314756915904581
0.0103607378853485
0.01038069840054959
0.010320586180314421
0.010234302096068858
0.010211446988396346
0.01023303006310016
0.01022263993974775
0.010192576739937067
0.010236301743425429
0.010338624590076506
0.010346467923372984
0.010232193847186863
0.010155035918578505
0.01019241646397859
0.010258382866159082
0.01030270243063569
0.010358151383697986
0.010417165295220911
0.010440237815491854
0.010416499651037157
0.01035364754498005
0.01028837002813816
0.010256410934962332
0.010222231461666524
0.010166240641847252
0.010158338784240186
0.010206823623739182
0.010234734192490578
0.010236593927256763
0.010254108388908207
0.010279460367746652
0.010280755897983909
0.01023767480161041
0.010151275382377208
0.010080623035319149
0.010111917071044444
0.010226993816904723
0.010304591595195233
0.010295041636563838
0.010277550043538213
0.010314070042222739
0.010358809400349856
0.010354320947080851
0.01030815246514976
0.010250246431678534
0.010202869563363493
0.010175178349018097
0.010152316880412399
0.010133750480599701
0.010147014823742211
0.010186168979853392
0.010193791976198553
0.010130683365277946
0.010045177121646702
0.010018790946342051
0.010057271309196949
0.010119313816539943
0.010200816290453076
0.010302042518742383
0.010369498911313713
0.010356662324629723
0.010281935171224176
0.010203124452382327
0.010170456850901247
0.01015538463369012
0.010082704178057612
0.009975880039855839
0.009923295346088707
0.009936759318225085
0.009969546836800873
0.009994390048086643
0.010012128278613091
0.010024872869253158
0.010022837799042464
0.010002819122746587
0.00998813702724874
0.010003129462711513
0.010020812880247832
0.009999939906410873
0.00995379759464413
0.009900671797804534
0.009835660043172538
0.009783849800005556
0.009764425866305828
0.009744679466821253
0.009712342112325132
0.009709656108170747
0.00973617726471275
0.009719442501664162
0.009647283758968115
0.009605087428353727
0.009637590860947967
0.00969205922447145
0.009713572026230395
0.009721063137985765
0.009754995019175112
0.00980507405474782
0.009845240362919868
0.0098591342382133
0.009827395374886692
0.009782876931130885
0.009794460400007666
0.009850523234345019
0.009880245085805655
0.009878205703571438
0.00989408052060753
0.009937326367944479
0.009974157670512795
0.00996917886659503
0.009927533739246428
0.009917770284228028
0.009986280021257699
0.01008050749078393
0.010110895843245088
0.010071428464725614
0.010041510765440763
0.010046553863212467
0.01004975585732609
0.010056019434705377
0.010072648911736905
0.010073666479438543
0.010059282989241183
0.010067400392144918
0.01014540288131684
0.01025910914875567
0.01028160756919533
0.010191344060003757
0.010096230525523425
0.010049443198367954
0.010026936996728181
0.010007549338042735
0.010002482486888765
0.010029199793934821
0.010068420590832829
0.010075402725487948
0.010034407046623528
0.009990256433375179
0.009996170764788986
0.010030467961914837
0.010002772705629468
0.009886839985847473
0.00980648711323738
0.009872303125448526
0.010021241693757475
0.010117722665891052
0.010105947046540678
0.010034367516636849
0.009976669377647341
0.009962320625782013
0.009992028628475964
0.01005083843600005
0.01011781752575189
0.010205833162181079
0.010310759251005948
0.01035748042166233
0.010313930995762348
0.010254885517060757
0.010243442994542419
0.010257365531288087
0.010253380043432117
0.010236108480021357
0.010243107555434108
0.010291676730848848
0.010364137580618262
0.01044439504854381
0.010527598070912064
0.010598837351426482
0.010656108958646654
0.010701299426145852
0.010707275490276516
0.010669512418098747
0.010630336184985935
0.010616238708607853
0.010602073082700371
0.010556589737534523
0.01050055296625942
0.010481424937024713
0.010513294651173056
0.010556592126376926
0.010560310739092528
0.010536593762226402
0.010525646023452281
0.01050096292514354
0.010439107296988367
0.010412898766808211
0.0104628254333511
0.010496189212426543
0.01044615728314966
0.010396144352853298
0.010431840121746062
0.01049887692090124
0.010505138668231667
0.010458063650876284
0.010422590374946594
0.010410889661870896
0.010402451865375043
0.010401430139318109
0.010399378095753491
0.010390637558884919
0.010397222102619707
0.010389491533860564
0.010338750728406012
0.010329293902032077
0.010407748334109783
0.010470859734341502
0.010471104639582335
0.010503015741705894
0.010594080956652761
0.010657488317228854
0.01067350928671658
0.010700613120570778
0.010728810518048703
0.010685004079714417
0.010568824266083538
0.010471124737523495
0.010421815109439195
0.010387349855154753
0.010329336458817125
0.010254846978932619
0.010201406935229897
0.010200663986615836
0.01023075803183019
0.010235102204605937
0.01019865575246513
0.01015978925395757
0.010151608199812472
0.010166684710420669
0.01017168681602925
0.010145371900871397
0.010108206900767983
0.010088528213091195
0.010077309506013989
0.010069321729242802
0.01007942030671984
0.010074744690209627
0.009999479702673852
0.00989164819009602
0.009846981256268919
0.009870417625643313
0.00991266761906445
0.009966433034278452
0.010005667000077665
0.009991771010681987
0.00995079214219004
0.009929357245564461
0.00994175136089325
0.009978181230835617
0.010019009942188859
0.01003455146215856
0.009992165099829435
0.009903120957314968
0.009826965373940766
0.009791914918459953
0.009771859790198505
0.009766670134849846
0.009807897601276636
0.009880057917907834
0.009937160811387003
0.009969623037613928
0.009999943803995848
0.010046143080107867
0.010103797409683465
0.010130577976815403
0.0100666394084692
0.009934212560765446
0.009839640408754348
0.009809011360630393
0.009768468043766916
0.009703954742290079
0.009667312279343605
0.009662668420933187
0.009660963923670352
0.009664051490835846
0.009692819402553142
0.00974440911784768
0.00977510484866798
0.00975747540127486
0.009736221875064075
0.00976081074681133
0.009823331162333488
0.00990475108847022
0.009994052764959634
0.010072752982378006
0.010116661274805665
0.01011331483721733
0.010115603674203158
0.010203491058200597
0.01035462093539536
0.010449318424798548
0.010415686215274035
0.01030875312164426
0.010234242952428758
0.0102257966902107
0.010238174283877015
0.010245799547992646
0.010250770235434175
0.010230015460401774
0.01018578480463475
0.010163024556823075
0.01018369935452938
0.010240324856713414
0.01029112127609551
0.010274828895926475
0.010213164272718131
0.01019006512593478
0.010202126344665885
0.010171889555640518
0.010086845839396119
0.01001406674273312
0.009999841116368771
0.01002330676652491
0.010052847522310913
0.010099755711853503
0.010185604193247854
0.01027584115974605
0.010326249296776951
0.010317099206149578
0.010274476381018758
0.010232876567170025
0.010229614446870983
0.010259006530977785
0.010263892514631152
0.010225131954066456
0.010187146146781742
0.010183003810234369
0.010202248836867512
0.010221355520188808
0.010243419967591762
0.010279393177479506
0.010294947572983802
0.010267363646999001
0.010240285894833506
0.010234939493238926
0.010228922683745622
0.010259547429159284
0.010380189004354178
0.010518072876147927
0.010552112981677055
0.010488942041993141
0.010428400048986076
0.010426493547856807
0.010448949136771262
0.010423630783334374
0.010358729241415858
0.010342897898517549
0.01038840698543936
0.010420452640391886
0.01041040695272386
0.010396365369670093
0.010416901996359229
0.010472355266101659
0.010526571795344353
0.010537796104326844
0.010504680727608502
0.010465440563857556
0.01043682002928108
0.010389454439282417
0.010285485358908773
0.010151744429022074
0.010072320187464356
0.010065430467948317
0.01006060378625989
0.010010303519666195
0.009977281177416444
0.010044255685061216
0.010148153412155808
0.010181306749582291
0.010159653490409254
0.010135750435292721
0.010121986102312804
0.010130234807729722
0.01015891881659627
0.010183576173149049
0.010180100146681071
0.010148246004246176
0.010137946833856404
0.010178215885534882
0.010212776660919189
0.01020249932538718
0.010173346004448832
0.01013928892556578
0.010104112070985138
0.010085071655921637
0.010078333262354135
0.010046515762805939
0.009937846818938851
0.009752020477317274
0.009589702221564949
0.009556766669265925
0.009645835729315877
0.009758944413624704
0.009806871362961829
0.009785663853399455
0.009761635554023087
0.009761191727593542
0.009745908547192811
0.009711823062971234
0.00969722933601588
0.009708025269210338
0.00971814056392759
0.009717401787638665
0.009731713221408428
0.009787030997686089
0.009859020439907908
0.009896997958421708
0.009888277580030263
0.0098639469826594
0.009855953217484057
0.009852805454283953
0.009805993661284446
0.009718400263227522
0.009657830181531608
0.009656130359508098
0.009693672014400363
0.009743712986819445
0.00978955109603703
0.009854725184850395
0.009964184067212046
0.010064410227350891
0.010091031161136925
0.010083807455375791
0.010122557054273784
0.010186042580753564
0.010186468758620322
0.01012574919965118
0.010083920089527965
0.01009317156393081
0.010133230988867582
0.010174350021407009
0.010191775052808225
0.010186847718432545
0.01019237392116338
0.010241268570534885
0.010304976399056613
0.010309425862506032
0.010250912243500353
0.0101987917535007
0.01018075668718666
0.01018200206104666
0.01019661701284349
0.01020966202020645
0.010221891691908241
0.010263607329688966
0.010315464921295642
0.010314851780422032
0.010261903279460966
0.010217421920970082
0.010218641962856054
0.010241921748965979
0.010226641776971518
0.01015100602991879
0.010065492261201143
0.010040846206247806
0.010094179520383478
0.01017217580229044
0.010231411205604673
0.010278354957699775
0.010318698738701641
0.010343129392713308
0.010352545636706054
0.010354932029731572
0.010358534529805183
0.010383667163550854
0.010420043193735183
0.010415486921556295
0.010383919919840992
0.010392024191096425
0.010449301972985268
0.010534128001891076
0.010619216337800027
0.010664980704896153
0.010663260379806161
0.010635828939266503
0.01062488636933267
0.010657450770959259
0.010679687084630131
0.010652053859084845
0.010616353140212595
0.010576458396390081
0.010503050931729376
0.010422222819179296
0.01036761221010238
0.01035374979954213
0.01040123486891389
0.010497994367033242
0.010600479692220688
0.010682240934111178
0.010723238168284297
0.010714372023940086
0.01067891862243414
0.010642181383445859
0.010621346277184784
0.010629349993541837
0.010653604427352548
0.010673735793679952
0.010696799950674176
0.0107302179466933
0.010747818392701447
0.010726589583791793
0.010680358237586916
0.01064411383587867
0.010647021466866136
0.010671570268459617
0.010665812911465764
0.01062618979718536
0.010597475562244654
0.010604692474007606
0.010648993598297239
0.010716035161167384
0.010772735914215445
0.010792689817026257
0.01078041551169008
0.01077054241206497
0.010774810314178467
0.010757799735292792
0.010712135746143759
0.010669883447699249
0.010643954700790347
0.010637725763954222
0.01063464666251093
0.01059459594078362
0.010537280426360667
0.010534161692485213
0.010597569472156464
0.010667719445191324
0.010705943764187396
0.010722101414576173
0.010709680137224495
0.010644559250213206
0.010553666739724576
0.010505832778289915
0.010508896778337657
0.010505189294926822
0.010489843511022627
0.010499784420244396
0.010515727484598756
0.010498318220488728
0.01045957114547491
0.010431113932281733
0.010421427772380412
0.010428606937639416
0.010447687855921685
0.010465124403126538
0.01046112421900034
0.010438219741918147
0.01043472501449287
0.010442245854064822
0.010385876535438002
0.010276087936945259
0.010240487060509623
0.010334131680428982
0.010461271093226969
0.01050962389446795
0.010478036310523749
0.010440344931557774
0.01041880062315613
0.010399239854887127
0.010416805827990174
0.010473921298980712
0.010487641249783337
0.010435372521169484
0.010383320073597133
0.0103534796833992
0.010326124774292112
0.010295099094510079
0.010245250156149268
0.010182961137034
0.010155158205889166
0.010169923063367605
0.010184901016764343
0.010173490010201932
0.010149361188523472
0.01014726899098605
0.010166814592666924
0.010176816838793457
0.010191296935081482
0.010244014323689044
0.010329906083643436
0.0104220824316144
0.010495008383877576
0.01055369254667312
0.010605193120427429
0.010608881530351937
0.01055884980596602
0.010510536702349782
0.010475081950426101
0.010423874375410378
0.010365247307345272
0.010335588231682777
0.010352870323695243
0.010392979560419917
0.010412032827734946
0.010403052563779056
0.010384513135068118
0.01034408012405038
0.010271227802149951
0.010221646302379667
0.010256093391217292
0.010333806378766894
0.010381644833832979
0.010395871554501356
0.010387142174877226
0.010357853346504272
0.010329897738993168
0.010316346911713481
0.010329640987329185
0.010368629852309822
0.010377024644985794
0.010337754958309233
0.010320341335609556
0.010344969686120748
0.010343859582208096
0.010278151477687061
0.010193414827808738
0.010152694438584148
0.0101627584034577
0.010202621980570257
0.01024960863403976
0.01025237111840397
0.010203039939515293
0.010178367900662124
0.010203208811581134
0.010211655143648387
0.01018251764588058
0.010155306388624013
0.010138757368549705
0.010127268400974571
0.01014197435695678
0.010198412416502833
0.010270734643563628
0.010297838263213635
0.010254451134242117
0.01018418479245156
0.010136621007695794
0.010129043287597596
0.010142580210231244
0.01014704545494169
0.010151728875935078
0.010187242431566119
0.01023852635640651
0.010246656727977097
0.010184480031020939
0.010093988939188421
0.010055451975204051
0.01010060554370284
0.010169218508526683
0.01023266050964594
0.010323790931142867
0.010397587069310248
0.01038128447253257
0.010295817228034139
0.010196097702719271
0.010120362462475895
0.010090388245880605
0.010094582000747324
0.010113000068813563
0.010133791780099273
0.010144674177281559
0.010148108298890292
0.010161064001731574
0.010176161965355278
0.010164502509869635
0.010133213349618017
0.010112152541987598
0.010102277076803147
0.010092011950910092
0.010067107691429555
0.010010748226195574
0.009935991587117315
0.009874925380572677
0.009853948978707195
0.009889934086240828
0.00995769479777664
0.010002615372650325
0.010007097870111465
0.009988843118771911
0.009958483381196856
0.009912632061168552
0.009857792644761504
0.009817321202717721
0.009797641527839004
0.009795706737786531
0.009805497396737337
0.009786141184158624
0.009731952049769461
0.009713502624072135
0.009758048262447118
0.009817248079925775
0.009853812167420983
0.009864038573578
0.009867189722135662
0.009887613113969565
0.009918601410463452
0.009935672376304865
0.009948631660081446
0.009993416420184077
0.010052752536721528
0.010070418301038444
0.010062116738408804
0.010074212714098394
0.010076560107991099
0.01002514872699976
0.009947345345281064
0.00991390923038125
0.009946429510600865
0.009965369454585015
0.009909934564493596
0.009848819756880402
0.009858294767327606
0.009897351399995386
0.009893901078030468
0.009865231970325112
0.009877268974669277
0.009924222123809159
0.009934761305339634
0.009872455820441247
0.009762222007848322
0.009678426757454872
0.009700835589319468
0.009809958124533296
0.00989563884679228
0.009904387029819191
0.009884071005508303
0.009873164338059723
0.009862171527929604
0.009845395227894188
0.009815569128841161
0.009780982001684606
0.009788782554678618
0.009850319111719727
0.009911999832838773
0.009936376675032079
0.009949250291101634
0.009963086447678507
0.009924260014668108
0.0098280989844352
0.00977125714533031
0.009806741862557828
0.009861395829357206
0.009851332572288811
0.009802631032653154
0.00980237993877381
0.009874528511427344
0.00994554115459323
0.009936253246851266
0.009856954040005804
0.009773640208877624
0.00973484268411994
0.009743598299100995
0.009758265782147646
0.009762883260846138
0.009803857272490859
0.009886646242812276
0.009933400582522154
0.009901898093521594
0.009838389656506479
0.009790659160353243
0.009767550332471729
0.009774271454662085
0.009811957147903741
0.009864139896817505
0.00991802048869431
0.009979818579740823
0.010060182893648744
0.01015590969938785
0.010250547514297069
0.010323084639385343
0.01035105864983052
0.010332682095468044
0.010304888766258955
0.010287128398194909
0.010242924969643354
0.010158552508801221
0.010089506166987122
0.010081895254552364
0.01011484836693853
0.010129081355407833
0.010089008952490985
0.010035742637701333
0.010035937982611359
0.010077583407983183
0.010102587644942105
0.01011781963519752
0.010171269881539047
0.010246866783127188
0.010290168030187487
0.010303159723989666
0.010319448364898563
0.010327391582541168
0.010290380679070949
0.01022754630073905
0.010216544787399471
0.010275975423865021
0.010323001663200557
0.01031430508941412
0.010298686856403947
0.010286512379534542
0.01022751649376005
0.010143173467367888
0.010128597184084355
0.010199685781262815
0.010278403870761394
0.01031600035727024
0.010302159353159368
0.010246595647186042
0.010213413941673934
0.010232183607295156
0.010230480348691345
0.010166251054033636
0.010104626296088099
0.010097438343800605
0.010106445895507932
0.010083856144919991
0.010046306406147778
0.010052253166213632
0.010122789409942925
0.010179773084819316
0.010122669348493218
0.010000291569158435
0.009944569920189678
0.009934174823574721
0.009882837608456612
0.009850025908090174
0.00989761225413531
0.009935824619606137
0.0099124710354954
0.009903822503983974
0.009915696526877581
0.00988151672296226
0.009836985669098795
0.009867217196151613
0.00996689603663981
0.010058737085200846
0.010103496122173965
0.010147011233493685
0.010226145307533442
0.010291171930730343
0.01028610287234187
0.010228967405855655
0.010183887747116387
0.010196178802289069
0.010228744870983065
0.010195406805723905
0.010105022876523435
0.010063469228334725
0.010104157910682261
0.010145319951698184
0.010129373529925942
0.010103240180760621
0.010130048375576734
0.01019194018561393
0.010217181583866477
0.010176142095588148
0.010121577917598188
0.01011295348405838
0.010150585053488613
0.010214358530938626
0.010281725460663438
0.010313439345918596
0.010302253519184887
0.010298222177661956
0.01033949819393456
0.01038686854299158
0.010370597741566599
0.010286451918072998
0.010195450591854751
0.010139787662774324
0.010098558128811419
0.010047202445566655
0.010003097937442362
0.0099751241132617
0.00996002093423158
0.00997919705696404
0.010032752202823758
0.010084308292716742
0.010126859685406088
0.010191005589440465
0.010290604420006275
0.010397872114554048
0.010487659736536443
0.01059557796921581
0.010770038827322423
0.010969260050915182
0.011123795956373216
0.011285011852160097
0.011542667197063565
0.011815247829072178
0.011894724499434232
0.0118034807452932
0.011755266599357128
0.011736356550827623
0.011774971825070679
0.011743190353736282
0.011674775476567447
0.01165213112719357
0.011645525475032628
0.011696982379071415
0.012206709473393857
0.013607349898666143
0.01578894422855228
0.01838959890883416
0.02131231371778995
0.024188383528962732
0.02591046741232276
0.026139881126582623
0.028493778104893862
0.03215754385571927
0.03607483726926148
0.039651246219873426
0.04319802514277399
0.04664950473234057
0.04840840891934931
0.049667310807853936
0.05313997910823673
0.05683550903573632
0.05961771459784359
0.06133009515237063
0.06212636148091406
0.06222293992526829
0.06334893892053514
0.06578557213768363
0.06935524094384164
0.07292779283598065
0.07528493284247816
0.0763388103665784
0.07682221272028983
0.07701013925950974
0.07754822271876037
0.07917025431524963
0.08084250876214355
0.08169676656834782
0.08253669232130051
0.08477649201638997
0.08842469012364745
0.09186796701978892
0.09373567183502018
0.09424261172302068
0.09433999804779887
0.09562701786402612
0.09837208612821996
0.10139197781682015
0.10312275719363242
0.10336771594360471
0.10372996550053358
0.10475261773914099
0.10687297146301716
0.10929389465600252
0.11028306587133557
0.1112491426244378
0.1134847300220281
0.11608480561058969
0.11836875336244702
0.11959404679946602
0.11973244328051806
0.1197360866283998
0.12005253840703517
0.12003885570913553
0.1205656190076843
0.12145265171304345
0.12227047454565763
0.123118403297849
0.1242030546721071
0.12538694651331753
0.12658482781145722
0.12821069214958697
0.1302862307522446
0.1318204077053815
0.13234306454192846
0.1327098160982132
0.13333807252813132
0.1334076027199626
0.13436068689916283
0.13578423311002552
0.13641797345597298
0.13662140778731555
0.1372565051028505
0.13772428834810854
0.13829083477612586
0.1388633100548759
0.13872021154966205
0.13964201660361142
0.14187021872028707
0.14490984254982323
0.14723455338273198
0.14758920415304602
0.14813967856112867
0.14909391743596642
0.1501720539247617
0.15154801160562784
0.15312226452864708
0.15444510751403867
0.15495269348844887
0.15497184904292227
0.15502188423182817
0.1551353372586891
0.1551520903315395
0.1550933351367712
0.15477686529513449
0.15369147900026292
0.15188925864640623
0.1498996458016336
0.14749694135040045
0.14458199486136436
0.14280032684095204
0.14282535700593144
0.14061615714337677
0.13813542089425027
0.13509144755546004
0.13201137117110193
0.12970536899287255
0.12663459033239632
0.12623826568946242
0.12808088010177016
0.12746988443657756
0.12386599278543145
0.1237121825478971
0.12496231191791594
0.12524039954412727
0.1255109408032149
0.12460798171814531
0.12210016993805767
0.1184962883219123
0.11513131628278643
0.11316186221316457
0.11237774276640267
0.11202352171763778
0.11223723809700459
0.1122100477432832
0.1107733413297683
0.11056899584364147
0.11156401057727634
0.11180986875668168
0.10982695903163403
0.10617306518368423
0.10274229628965259
0.10111464454326778
0.10117800706531853
0.10153076782356947
0.10027425304986537
0.09805199296679348
0.09510193414520472
0.0937967954389751
0.09353213438298554
0.09454946021549404
0.09504273449536413
0.09319303032476454
0.09113989620935171
0.09040813745930791
0.0894579700473696
0.0876477111177519
0.08604814691469073
0.08496791697572917
0.08422953281085938
0.08466061404440552
0.08576560038607567
0.08627957911230624
0.08682307795621455
0.08702544047031552
0.08722863634582609
0.08747639979235827
0.08706873036455363
0.0862939235381782
