0.009977318940218537
0.009945777899120004
0.009950148437637836
0.010016610231250524
0.010021545055788011
0.009925133786164225
0.009861939332913607
0.009882643867749721
0.009900957455392927
0.009877675571478903
0.00981386832660064
0.009726230422966182
0.00968022588873282
0.009703005901537836
0.009761325300205499
0.009814372088294476
0.00988025803817436
0.009823917646426707
0.009693485267926008
0.009586288316641003
0.009577843465376646
0.009656724024098366
0.009734164362307639
0.009759846793022007
0.009744323217310011
0.009700065462384373
0.009658126544672995
0.00968042035587132
0.009755810936912895
0.009777990032453089
0.009703213965985924
0.009612125635612756
0.009579086601734161
0.0095781908207573
0.009551398707553744
0.00950060335220769
0.009464800071436913
0.009447753827553243
0.00942139889113605
0.009395500244572759
0.009410053903702647
0.009445364866405726
0.009440870163962245
0.009408489121124148
0.009376151887699961
0.009383062759879976
0.009437842159532011
0.009504475148860365
0.009518922807183116
0.009478230951353908
0.009433299880474805
0.009419403010979295
0.009445127048529685
0.009490480066742748
0.009511742496397347
0.009493179703131318
0.009459030602592976
0.009436200957279652
0.009430726477876305
0.009422936821356415
0.00940370560856536
0.009402936261612921
0.009440654395148159
0.009474057252518833
0.00944064231356606
0.009347823050338775
0.009268420003354549
0.009235802178736777
0.009228418907150626
0.009249190944246947
0.009296497192699461
0.009343284119386225
0.009407941366080195
0.009489589866716415
0.009513145678211004
0.009464386941399425
0.009459527763538063
0.009576427470892667
0.009710685070604085
0.009720841452945024
0.0096502843266353
0.00962921639205888
0.009678058866411448
0.009728443478234112
0.009718272706959397
0.009664849017281086
0.009640260669402777
0.00965978478314355
0.00969272117363289
0.009729098409879953
0.009765502256341279
0.009784158926922828
0.00976954318350181
0.009744131863117218
0.009752385527826845
0.009786028449889272
0.00979714424815029
0.009778773714788257
0.009750786379445344
0.0097157346107997
0.009694111477583646
0.009720822649542242
0.0097732087620534
0.009815318540204317
0.00987428024644032
0.009951135765295476
0.009986747719813139
0.009985560202039778
0.010004925620742143
0.010061249677091837
0.01016665924107656
0.010310911722481251
0.01040292004821822
0.010406776308082044
0.010410127718932927
0.010451082182116806
0.010457076882012188
0.010385541399009525
0.010366853140294553
0.010371545518282801
0.010464068872388453
0.010493300694506616
0.010359259124379605
0.010269421539269387
0.010203688766341656
0.010210892143659294
0.010221277775708587
0.010235104078892618
0.01024441707180813
0.010222368820104749
0.010200650526676326
0.010258876418229193
0.010391774766612799
0.010485786350909621
0.010484256483614444
0.010442771983798593
0.010423210705630482
0.010438084749039263
0.01047271592542529
0.010516841118223964
0.010557479523122311
0.010582513939589262
0.01060252371011302
0.010603723677340894
0.010585627525579185
0.010546612474136054
0.01050249726511538
0.01046039687236771
0.010452041595708578
0.01050930097931996
0.010594951771199703
0.01064167386619374
0.010652412499766797
0.01064686200581491
0.010597310713492333
0.010520106593612582
0.010479826049413532
0.010470080017112195
0.010438869821373374
0.010409026450943201
0.010436726075131447
0.010495512397028506
0.01052567441482097
0.010538299588952214
0.010582323370035738
0.010673310852143913
0.01077920624986291
0.010831444582436234
0.010786704830825328
0.010681056254543363
0.010588147896341979
0.010566548714414238
0.010631907188799233
0.010743279438465834
0.010842098363209516
0.010880860530305654
0.01082223315956071
0.01068996618501842
0.01060292829060927
0.0106432974524796
0.010722966727335005
0.0107081220112741
0.010587097485549748
0.010440190972294658
0.010356366911437362
0.010348815342877061
0.010334692639298737
0.010277778459712863
0.010224771213252097
0.010198153597302735
0.010208838896360248
0.010260908717755228
0.01029231792781502
0.01025309694232419
0.010186180747114122
0.010157670795451849
0.010185676063410937
0.010240550548769534
0.01028523588553071
0.0103172523714602
0.010340581031050533
0.0103256820095703
0.010238266051746905
0.01015668299747631
0.01009745457675308
0.010041261534206569
0.010133792937267572
0.010209296538960189
0.010155009666923433
0.01004167336737737
0.009935321684461087
0.009816477401182055
0.00971214027144015
0.009695764067582786
0.00973752629943192
0.009735858547501267
0.009711809291038662
0.009779618126340211
0.00985068156849593
0.009892365587875247
0.009786800062283874
0.00969096416607499
0.009743382213637233
0.009788812710903585
0.009853771661873907
0.009838373847305775
0.009814972402527928
0.009832354940008371
0.009857806102372706
0.009855550790671259
0.009863632784690707
0.009877567298244684
0.009822125849314033
0.009729375448077917
0.009700190632138402
0.009715452136006206
0.009690646270755679
0.009632922825403512
0.009603187991306186
0.009586560253519566
0.009546430869959295
0.009519148231483997
0.009539161920547485
0.009587845802307128
0.009642324587330222
0.009704017015174031
0.009795563642401249
0.009925090970937163
0.010015338738448919
0.009967333683744074
0.009856196912005543
0.009823083023075014
0.00981628120644018
0.00975821738364175
0.009738371642306447
0.009812639115843923
0.009886284724343568
0.009891172803472728
0.00988571282941848
0.009915501144714654
0.009933085816446691
0.00991508660139516
0.009908652720041574
0.009947934921365231
0.010005207494832575
0.010014034376945346
0.009954854035750032
0.009902034695260227
0.009911584327928722
0.009939116104505956
0.009944713856093586
0.009948742145206779
0.009962448386941105
0.009974059683736413
0.009975433661602438
0.009963677597697824
0.009939618569333106
0.009892100882716477
0.00986198580591008
0.00978618546621874
0.009793413248844444
0.0098558153770864
0.009884018909651786
0.009869781681336462
0.009841921015176922
0.009808990785386414
0.009811032416764646
0.009873212140519172
0.009956620594020932
0.009989827692043035
0.009901823285035789
0.009753223520237952
0.009722476620227098
0.009828823432326318
0.00993329135933891
0.009988236846402288
0.010028686467558145
0.010049701773095877
0.01003079030662775
0.009987586901988834
0.009959270164836198
0.009961613551713527
0.009989983751438558
0.009988254997879267
0.010003072991967201
0.010072317046578974
0.009995240680873395
0.009880672108847648
0.009868305679410695
0.009947151886299252
0.010032533153425902
0.010094570165965705
0.010156358403619378
0.010227744523435832
0.010288860511500388
0.010324042600113898
0.010318612810224295
0.010271355274599046
0.010231025738175959
0.010225048214197159
0.010205853600054979
0.010159546963404865
0.010135840447619558
0.010117877167649567
0.010052287923172117
0.009995796247385441
0.010023579325061292
0.010089337918907404
0.010133811228442938
0.010152267599478364
0.010110218015033751
0.010008684429340064
0.009951739995740354
0.009992929350119084
0.010075441468507052
0.010149328412953764
0.01019347161753103
0.010190393791999668
0.010152384594548494
0.010097569101490081
0.010034387069754302
0.010003673553001136
0.010036906965542585
0.010089275096543133
0.010100335578899831
0.010061060672160237
0.009970954007003456
0.009850367910694331
0.009823380357120185
0.009960964813362807
0.010093983761034906
0.010081562288105488
0.010042140998411924
0.010079121626913547
0.010113487089984118
0.010083878808654845
0.010037472159601747
0.0100283523183316
0.010058490503579378
0.010097617879509926
0.010123544048983604
0.01011926501058042
0.010062341978773474
0.00996950313448906
0.009893767209723592
0.009868624315131455
0.00986764574656263
0.009828391852788627
0.009784114584326743
0.009828439904376865
0.009900129784364253
0.009853480495512485
0.009699890550691634
0.009570124777965247
0.009512650223914534
0.00948626513592899
0.009509812877513468
0.009630842201877385
0.009717174766119569
0.009754192910622805
0.009698666238691658
0.009646314450073988
0.009631748739629985
0.009648570190183819
0.00971025604987517
0.009795065310318023
0.009841473980341107
0.00984253968577832
0.009837614030111581
0.009866235100198538
0.009967317136470229
0.010089137309696525
0.010119221145287157
0.010078333776909858
0.010048875992652029
0.009996682566124945
0.009885145514272154
0.009794126481283456
0.00979147476144135
0.009842086860444396
0.009894977782387286
0.009930594549514353
0.009923154669813812
0.009886170909740031
0.009884032730478793
0.009961030702106655
0.010040705297142268
0.01004329842980951
0.0099873318313621
0.009933249820023774
0.009908913352992385
0.009920463918242604
0.009925117131788284
0.009844800336286425
0.009723605848848819
0.00970311085227877
0.009776516302954405
0.009785181954503059
0.009747974190395326
0.009724577353335918
0.009864478125236928
0.01001794650685042
0.009984377096407116
0.010020840687211603
0.010016877783928067
0.01005955443251878
0.01007196955382824
0.009959541601128876
0.00981134109199047
0.009731670240871609
0.009738109225872904
0.00978889107471332
0.009817840014584363
0.009808008999098092
0.009810533723793924
0.00985305680660531
0.009911174133885653
0.009950119925197214
0.00994804033311084
0.009922365115489811
0.00991351367207244
0.009918705595191568
0.00990539690013975
0.009900606616865844
0.009961819141171873
0.010063149009365589
0.010143811106681824
0.010186195429414511
0.010163531051948666
0.010080405110493303
0.010011354095768183
0.009980844566598535
0.00996794735081494
0.009993515131063758
0.010055071990936994
0.010084623298607766
0.010040661222301423
0.009958687315229326
0.009892104633618146
0.009856590090785176
0.009830729675013573
0.009807403706945479
0.009825929829385132
0.009901440283283592
0.00998179027112201
0.010014859035145492
0.010019417810253799
0.010055253740865737
0.010095194324385375
0.010058589074760675
0.010003239805810154
0.010051746375393123
0.010168722346425057
0.010219122506678105
0.010177770359441639
0.01013740714173764
0.010128949834033847
0.010095890201628209
0.010058944697957485
0.010109419100917876
0.010233371742069721
0.010320795318111777
0.010342363589443267
0.010360668709035964
0.010393664629664272
0.010409092491026967
0.010405700244009495
0.010383686025161296
0.010320715638808906
0.01024493514560163
0.010206031070556492
0.010183430132456124
0.010131427398882807
0.010061811786144972
0.010034687684383243
0.010093769121449441
0.010207348254043609
0.010294476349372417
0.010327572755049913
0.010332723995670676
0.010307365970220417
0.010276558718178421
0.010322102538775652
0.010399935985915362
0.010368134507443756
0.010215941702481359
0.010110705906990916
0.010132488645613193
0.010199846008326859
0.010225448606070131
0.010209169059526174
0.010180367468856276
0.01016697775106877
0.01019903166219592
0.010236571147106587
0.01021514573134482
0.010190644131507725
0.010251553617417813
0.010278009597677738
0.010233627033885568
0.010077171372249722
0.009995507635176181
0.010130195086821914
0.010153336781077087
0.010146227250806987
0.010040699294768274
0.009969080144073814
0.010073967722710221
0.010243863412179054
0.010308749775867909
0.010269909221678973
0.010252885599620641
0.010299314295407385
0.01031506858067587
0.010225527859292925
0.01008756534429267
0.010011642950121313
0.010032008748967201
0.01010321662062779
0.010194101966917515
0.010288709697779268
0.010335428912658245
0.0103164116689004
0.010270344570744782
0.010215221915859728
0.010163990978617221
0.010133921587839722
0.01010464970720932
0.010066329161636531
0.010048646326176823
0.010059981285594403
0.010067773724440485
0.01004205236211419
0.009995279891882092
0.009972448730841278
0.010008509892504663
0.010109253930859268
0.010244371304288506
0.01032811191631481
0.010276408728677779
0.010144248090218752
0.01007841553306207
0.010085094592068345
0.010044694792013616
0.009954983096104115
0.009923593436833472
0.00997043318580836
0.010030452450737358
0.010069374514278024
0.010090971009340137
0.010105331542436034
0.010119345604907721
0.010139105804264546
0.010181810373906046
0.010237353842239828
0.010265298169106245
0.01028573425952345
0.010337588957045228
0.010357217760756612
0.0102661919943057
0.01012737792916596
0.010065469495020806
0.010069474088959396
0.010033439677208662
0.009947679294273258
0.00988379237242043
0.009862907056231052
0.009850169115234167
0.009838334931991995
0.009855064931325614
0.009868453457020223
0.009829590569715947
0.009797576179262251
0.009825643957592547
0.009850282189436257
0.009827544493600727
0.009793338039889932
0.009768071479629725
0.009742030573543161
0.00973200095584616
0.009761655400507153
0.009782625804655254
0.009731233930215239
0.00966772782849148
0.009688014739658683
0.009755976228043438
0.009792285691946744
0.009785231181886046
0.009726546646561474
0.009635630436241627
0.009590452453121543
0.009649556411895901
0.009740812540985643
0.00978534507798031
0.009786166578996926
0.009762870392296463
0.009709059703163802
0.009650800556410105
0.009642995984759182
0.009676629297900944
0.009691066211089491
0.009658133257180452
0.009599111201241612
0.009577369680628181
0.009641206553205849
0.009726826897822321
0.009715488434303553
0.00960333377122879
0.009510970595292746
0.009530922251287847
0.009599686283618212
0.009583772926125675
0.009508869771379977
0.009519722573459148
0.00963437755824998
0.00972963566193357
0.009722853028215468
0.009659260185435415
0.009625563393346965
0.009631151186767965
0.009634256733115763
0.009635261015500874
0.00964501203969121
0.009621640120167285
0.009539095698855818
0.009472206700593233
0.00951970913214609
0.009653553625103086
0.009740997396875173
0.009733853756915777
0.009701793261338026
0.00964978767093271
0.00966315655503422
0.009649437277112156
0.009631321674678475
0.00966388019034639
0.009624193948693573
0.009547040762845427
0.009564389470033347
0.009701411246787757
0.009833148149773478
0.00985928513109684
0.009849797971546649
0.009905864126048982
0.009970760699361562
0.009973150081932544
0.009981994160916656
0.010039418244268745
0.010088640726171433
0.010109382313676179
0.010101289951708168
0.010041843659710139
0.009956306335516274
0.009888927063439041
0.009858404940459878
0.00987044210312888
0.009882378682959825
0.009851406095549464
0.009810530252289028
0.009800694794394075
0.009816944955382496
0.009845555040519684
0.009877915582619608
0.00988886462757364
0.009880440710112452
0.009858745189849288
0.009894199660047889
0.009953086299356073
0.009983129210304469
0.009988957012537866
0.010002568829804659
0.010026161959394812
0.01002684492385015
0.010034482127521187
0.010109804973471909
0.010179555844515562
0.010142456649336964
0.010060960203409195
0.0100234542414546
0.009982940102927386
0.009898407126311213
0.009851918967906386
0.00990565704414621
0.009990406406577676
0.01002349138725549
0.010024641021154822
0.010044496753253043
0.01010097229387611
0.010206191993784159
0.010315093221142888
0.010341953705064952
0.010248466876801103
0.010112080867402255
0.01002079395344481
0.010016258996911347
0.010099882120266556
0.010225954165216536
0.010294894000981002
0.01025064694462344
0.010186047970782965
0.010212097817566245
0.010284764994867145
0.010305184265598654
0.010275179117452354
0.010249242573045193
0.010266948104836048
0.010332907810807227
0.010370278425980359
0.010314987022429705
0.010231196596287191
0.010200784394983202
0.010209157431963831
0.010221798673737794
0.010231975531205535
0.010212109161075204
0.010193156260065735
0.01027769516222179
0.010430558291263879
0.010490742274560034
0.010423337540123612
0.010328768156468868
0.010251626670360565
0.010159985069185496
0.010174808169249445
0.01016483761370182
0.010155080629047006
0.010024662022478878
0.009849452700000256
0.009813320050016046
0.009922415912151338
0.010030107463244349
0.010084198112599552
0.010017296557780355
0.010011473859194667
0.010074472178239376
0.010062684081494808
0.010056403281632811
0.010081439376808703
0.010045528272166848
0.009911008581984787
0.009786586398258806
0.009776433871593326
0.009837658612523227
0.009862951636314392
0.009845772837288679
0.009845167121384293
0.009852076978422702
0.009836187497712671
0.009829104410018772
0.009849537953268737
0.009842379754409193
0.009750009765848517
0.009688828941434621
0.009615334086120128
0.009578237344976514
0.009586141374893487
0.009563478750642389
0.009526259740814566
0.009528283139225095
0.009562288050074131
0.009566499397624283
0.009501630126032978
0.009422364635393024
0.009433491786476225
0.009545157672837376
0.00968386090360582
0.009688999368809164
0.009625266457442194
0.009670687068719416
0.009789277457166463
0.009825828182511032
0.009811730056535453
0.009860559324733913
0.009907444019336253
0.00982635559514165
0.009680024781264365
0.009603859460912644
0.009587253069039434
0.009569494142197073
0.009563525638077408
0.009610571176744997
0.009666986726224423
0.009696788319852203
0.009689875293988735
0.00965738425264135
0.009626966472715139
0.00960722591727972
0.009589443830773235
0.009567626677453518
0.009536112970672549
0.009518752109725028
0.009561879674438388
0.009639257336966694
0.009657093966379761
0.009577863714657724
0.009446230947505683
0.009321504209656268
0.009263767024967819
0.009317398660350591
0.009430627725087105
0.009493133979849517
0.009492123406380415
0.00948908858001232
0.009484330513514579
0.009445499849971385
0.009372603236697615
0.009297402654774488
0.009290109374560415
0.009367561917752027
0.009428215299267321
0.00942923485301435
0.009447738658636809
0.009480782903265208
0.009471392133273185
0.00946494483621791
0.009472531557548791
0.009404282600153238
0.009282524471636862
0.009235902663785964
0.009264809787273407
0.009278095576446503
0.00930211998289451
0.00941059269476682
0.009446634207852184
0.009499335491564126
0.009494610279798508
0.009499575323425234
0.009490054377820342
0.00941051565343514
0.009297471640165896
0.009263248299248517
0.009362608885858208
0.009517045493703335
0.009598493166267872
0.009559150037821382
0.009460674021393061
0.00937627989333123
0.009322812976315618
0.009332424320746213
0.009460860462859273
0.009656568062491716
0.009750420874916017
0.009665398441720754
0.009540199493058026
0.009513320731930435
0.009510355207603426
0.009424775862134993
0.009322562150191515
0.009297261573374271
0.009334602162707597
0.009427000435534865
0.009624246458988637
0.009804559119511396
0.009949876270256936
0.009957183683291078
0.00985246972879395
0.009798996152821928
0.009823861450422555
0.009874339052475988
0.009924455170985311
0.009939548345282673
0.009916914403438568
0.009909103980753571
0.009915621629916131
0.009872699826955796
0.009785011727362871
0.009745772739406675
0.009767204152885824
0.009742516977712511
0.009660547932144254
0.009642055325675756
0.009703125627711416
0.009721438807900995
0.009654511814005673
0.009603996761143208
0.009652643676381557
0.009760111053474248
0.009849209778476507
0.009901846242137254
0.009951074961572886
0.009981779821682722
0.009964086215477437
0.00988857727497816
0.009828215171582997
0.009838629043661057
0.009862476368434727
0.009830805633682757
0.009771539191715419
0.009752656000200659
0.009771285315509885
0.009744841970968992
0.009646969493478536
0.009575079798232765
0.0095949592650868
0.009662287414539606
0.00973021326586604
0.009789914940483868
0.009825515600387007
0.00980433010496199
0.009730185007210821
0.009673493686132134
0.00967304059304297
0.009666223851963878
0.009614194314926862
0.009592153083067387
0.009660729302559047
0.009756380955222995
0.00976383668370545
0.009674869519658387
0.009634358666371554
0.009726674593985081
0.009845691139344127
0.009885841140057892
0.00986247330904007
0.009821442305110395
0.00978600803995505
0.009774326074402779
0.009784424682147802
0.009788204336073249
0.009783567334525288
0.00980069728102535
0.009836079296655953
0.009855945333838463
0.009851297999266534
0.009818741935305297
0.009764353004284203
0.00974215405760333
0.00977887335466221
0.00983981482218951
0.009910173946991563
0.00996976150199771
0.009970497379545123
0.00991574977291748
0.009838866172358393
0.009775341530330479
0.009787756651639938
0.00988400336354971
0.009976349247153848
0.009994602866936476
0.009961992739699782
0.009928095189388841
0.009905718979425729
0.009908218323253094
0.009942170993890614
0.009986645590979606
0.010053833373822272
0.010146333242300899
0.010183348264545202
0.01010268195066601
0.009985424152109772
0.009826743500307203
0.009658315959386527
0.009532695089001208
0.009509650464169682
0.009620352545753122
0.009789762035943568
0.009885435823816806
0.009861364553216845
0.009795904133934528
0.009779237618204206
0.009820208274759353
0.009879526500590145
0.009923546416684985
0.00993112607160583
0.009901066299062223
0.00985446290113032
0.009812069577164947
0.00976045825984329
0.009686299294698983
0.009633605044800788
0.00963946089381352
0.00966393606737256
0.009663219009526073
0.009660891785752029
0.009671193449757993
0.009673723492305726
0.009692419432103633
0.00973652553744614
0.009761383850127458
0.009763024479616434
0.009765830873511731
0.009778337061870843
0.009805669756606222
0.009818716030567885
0.009784185071475804
0.009760017674416303
0.009829996335320175
0.009952873445581645
0.01002068689558655
0.010022130357101559
0.010025008914526552
0.010034061179030686
0.010000617916230112
0.009951280420646072
0.0099392146198079
0.009952038095798343
0.00997438776306808
0.010013969829306007
0.010077667490113526
0.010164802065119147
0.010228770459070802
0.01022839865880087
0.01021757033886388
0.010243475667666644
0.01024777851300314
0.010192002195399254
0.010137611820828169
0.010144424573518336
0.010178677726071329
0.01014315304113552
0.010016393908299505
0.009940555614884944
0.010013741615694016
0.010124155592639
0.010114173681940883
0.010026035383343696
0.010006837444379926
0.010070425113663078
0.010124279791489244
0.010126110974233597
0.010098684227559716
0.010061503062024713
0.010030252214055508
0.010039407706353814
0.010104122108314186
0.0101872050575912
0.010236680507659912
0.010240074628964067
0.010200027155224233
0.010107049813959747
0.010011073045898228
0.01000218735774979
0.010068698176182807
0.010131639372557401
0.010180006416048855
0.010216052727773785
0.010198690944816917
0.010144452035892754
0.010112479515373706
0.010092155109159649
0.010074068468529731
0.010113033042289317
0.010183387193828821
0.010189938205294312
0.010160218295641243
0.010175000024028123
0.010207468539010733
0.010207296120934189
0.010209326401818543
0.010236905529163778
0.01035363091621548
0.010465370428282767
0.010475641824305057
0.010412857818882912
0.010343579344917088
0.010293737591709942
0.010281403444241732
0.01032933556707576
0.010390983934048564
0.010382545220199973
0.010324197437148542
0.01029959496576339
0.010315713495947421
0.010331744602881372
0.010331848906353115
0.010322957292664796
0.010320038837380707
0.01034392492612824
0.010403759679757058
0.01045048926724121
0.01041619580006227
0.010332324868068099
0.010297777750529348
0.010327143052127213
0.010356275620870293
0.010360976576339453
0.010364136570133268
0.010383620157372207
0.010421245484612882
0.010462137861177325
0.010502352120820433
0.010557078698184341
0.010601571735460311
0.010599326249212027
0.010586551160085946
0.010593800409696996
0.010561820252332836
0.010459517040289938
0.01035926710581407
0.01034344740677625
0.01043036529328674
0.010572593626566231
0.01068341471021995
0.010697637745179235
0.010649571120738983
0.010623130600433796
0.010622373912483454
0.010611993826460093
0.010596887497231365
0.010591796264052392
0.010616470966488123
0.010653818417340517
0.0106140718748793
0.010647246970329434
0.010686455154791474
0.010715577537193894
0.010744799391832203
0.010713970283977687
0.010712998392991722
0.010814059944823384
0.010935778222046793
0.010929808961227536
0.010789545304141938
0.010653210838790983
0.010640031616203487
0.010717049723025411
0.010758732364047318
0.010722814395558089
0.010678969423752278
0.010676291333511471
0.010682014958001673
0.010672382595948875
0.010682211625389754
0.010708989857230336
0.010691946418955923
0.010628648395650088
0.010588714492041618
0.010607525813393295
0.010655814101919531
0.010690408840309829
0.010689512172248214
0.010660521399695427
0.010619442767929286
0.010579821676947177
0.01056385600240901
0.010574645232409238
0.010581344594247638
0.010570755819790065
0.01055258397711441
0.010511633537244052
0.010448924556840211
0.0104248558729887
0.010469070030376315
0.010513144978322089
0.010481539776083081
0.010403929341118784
0.010361332395114005
0.010367671991698444
0.010395127064548433
0.010428779735229909
0.010445050951093436
0.010432566318195313
0.010407139018643647
0.010383211632724852
0.01037270370637998
0.0103626369824633
0.01032377895200625
0.010261344206519425
0.01020112814148888
0.010163969991263002
0.010170976254157723
0.010226845846045763
0.010282716930378228
0.010278563322499394
0.010249148099683225
0.01028980843257159
0.010400152613874525
0.01046468214597553
0.010421212951187045
0.010353205807041377
0.010349353679921479
0.010376007969025523
0.010368420893792063
0.010360688348300754
0.010430716166738421
0.010543631864711642
0.010580723823513835
0.010515711586922407
0.010406941946130246
0.010282530423719436
0.010150141019839793
0.010032173949293793
0.009964486174285412
0.00996332498267293
0.009977844648528845
0.0099695337517187
0.009971865091938526
0.009973436051514
0.009931297523435205
0.009902974509168416
0.00995898287044838
0.010034461079631001
0.010030136965215207
0.010008380913641304
0.010014662488829344
0.010017936727963387
0.00995892480481416
0.009897806437220425
0.009881708214525133
0.00986683728173375
0.009815883699338883
0.009772472812328488
0.009827764329966158
0.00983918346464634
0.009891099461819977
0.009951646833214908
0.00993824019562453
0.009918228762689978
0.009890080823097377
0.00985480586765334
0.009847542545758188
0.00987184057245031
0.009890250945463776
0.009862906883936375
0.009831140292808413
0.009765158179216088
0.009680336334276944
0.009576266852673144
0.00951408444205299
0.00950485806679353
0.009595376770012081
0.009675629518460483
0.009671171812806278
0.009633649694733322
0.009648578248452395
0.009724079293664544
0.00980082365917042
0.009837931462097913
0.009842968680895865
0.009813647386617958
0.009760856351349503
0.009755226911511271
0.009804321934934706
0.009789168557617814
0.009760054536163807
0.009661792051047087
0.00969116656575352
0.009765815949067473
0.009800170592498034
0.009835930415429175
0.009865064211189746
0.009792154154274613
0.009665936399251222
0.009644636241719127
0.009730554725974798
0.009787379957269877
0.009790574312210082
0.009846870652399958
0.009954523844644427
0.009997599625494331
0.009974368151742964
0.009966360991820694
0.009966650144197047
0.009934605043381452
0.009902340497355909
0.009912582312244922
0.009940386530943215
0.009949533538892864
0.00996322901919484
0.010013491532299667
0.010041014882735908
0.009967072948347777
0.009869267710018902
0.009873177127446979
0.00993750746594742
0.009946957142092287
0.009891742113977671
0.00985723911318928
0.009883557283319532
0.00990433918312192
0.009887376285623759
0.00989860836416483
0.009952039145864545
0.009952744776383042
0.009836854001041501
0.009686062366236002
0.009635421903803945
0.009702557604759932
0.009801700324751438
0.009866856310982258
0.009871986608486623
0.009840171101968736
0.009868923050817102
0.00999377251137048
0.010093779570888728
0.0100628223689273
0.009971492246259005
0.0099748858762905
0.010083306701853872
0.010130681665614247
0.010014606048353017
0.00984872053610161
0.009812962256837636
0.00990283313440159
0.010034914400894195
0.010125224641524256
0.010171627975068986
0.010153078380972147
0.010092761663254351
0.01004591929493472
0.01005995508050546
0.010079714066814632
0.010050373289268465
0.009989554081112146
0.009922650915104896
0.009834607841912656
0.009753645868040622
0.009760205787606537
0.00983626299770549
0.009878100492060185
0.009875374019611628
0.009884647326543927
0.00991425955435261
0.009972110358066857
0.010051770485006273
0.010198654618579894
0.010310818790458143
0.010305403925012797
0.010350566341076046
0.01031814567744732
0.010325438869185745
0.010314854204189032
0.010246279905550182
0.010177807766012847
0.010124747955705971
0.010103627603966743
0.01010052783647552
0.010113113701809198
0.010139766049105674
0.010205091605894268
0.010309916995465756
0.010368421126622706
0.010339466612786055
0.010319491440895945
0.010290849898010492
0.010289102527312934
0.010259526879526675
0.010249408113304525
0.010219533939380198
0.010172558261547237
0.010193881455343216
0.010277434869203716
0.010318300432991236
0.01028366572689265
0.01023349791765213
0.01020266119390726
0.010161389305721968
0.010062093075830489
0.009914131588302552
0.009806233041454107
0.009805483182426543
0.009884949284605682
0.009982492963317782
0.010046849832870066
0.01004688072251156
0.010016101151704789
0.010027259660419077
0.01008519773837179
0.010119167712982744
0.010087945458944887
0.010041824455838651
0.010051610681694
0.010092276011127978
0.01007878664182499
0.010003656493499874
0.009947094072122126
0.009969015442766248
0.010020201434381306
0.00999954970786348
0.00992895219475031
0.00989931660471484
0.009959793060552329
0.010043439145665616
0.01010262732161209
0.0101659030537121
0.010226957891136408
0.010224001463502646
0.010180989766959102
0.010168355864007026
0.010175965796224772
0.010192377157509327
0.01024139325832948
0.010273176974151284
0.010227320240810514
0.010164492963813245
0.010165467450860888
0.010202946905046702
0.010210906914435327
0.01018486577551812
0.01016823280369863
0.010187369969207794
0.010227749319747091
0.01025421654805541
0.010226161170285195
0.010120498877950013
0.009982958843465894
0.009919705358333886
0.009983554126229137
0.01009795067133382
0.010182669986970722
0.010198221032042057
0.010196776739321648
0.010221022488549352
0.010233641907107086
0.01019414397655055
0.01013986985431984
0.010081216199323536
0.010018592539709062
0.009927907085511833
0.009827362536452711
0.009726881091482937
0.00963434922741726
0.00959307510405779
0.009620520372409373
0.009653240772895515
0.009635377821978182
0.00962511396734044
0.009715267193969339
0.00972164582228288
0.009787874154280871
0.009726678000297397
0.009677295077126473
0.009756802993360908
0.009878103674855082
0.009965857544448226
0.00999395685037598
0.009979460737667978
0.009924091971479356
0.009870219714939595
0.00983801907626912
0.00977652942063287
0.00968010550364852
0.009631717323791235
0.009690150152891874
0.009783759352285416
0.009879034133628012
0.009861242838669569
0.009817331812810153
0.009858899475075305
0.009910272140987218
0.009879288980737328
0.009843649209942669
0.009854139315430076
0.00983544645132497
0.009782829221803695
0.009792845624033361
0.009863463630899787
0.00988495966186747
0.009911488266661763
0.009900425837840884
0.00990893289912492
0.009909928306005894
0.00987697022035718
0.009817442800849676
0.00976777020841837
0.009751542611047626
0.009741507989820092
0.009712949930690228
0.00969390342477709
0.00970670094480738
0.0097276057372801
0.0097404650808312
0.009773964253254235
0.009860421682242304
0.009969744808040559
0.010029779998585581
0.010018358277156948
0.009985591198783368
0.009993631488177925
0.010040349646005779
0.01006978812860325
0.009999351771548391
0.009903481581714004
0.00990899432450533
0.009975813867058606
0.009979433773551136
0.009923586875665934
0.009880524093750865
0.009856632938608527
0.009828514021355659
0.009806412525940687
0.00980997973587364
0.00980758910998702
0.009770431264769286
0.00976365984417498
0.009835775773972273
0.00990108637837693
0.009878692231141031
0.00984195009805262
0.00988422078313306
0.009944795474875718
0.009915918170008808
0.009818940865807235
0.009772319805342704
0.009848119437228887
0.009992693883832544
0.010072580496780574
0.01002404126804322
0.009917683021631091
0.009829674391075969
0.009765283719170839
0.009732083457056433
0.009751280415803193
0.009803627145010978
0.009868321192916482
0.009963033427484334
0.010087439389899373
0.010149836593773215
0.01017971379449591
0.010251904281321913
0.010369456026237458
0.010476600208785386
0.010521699390374124
0.010511726355180145
0.0104722297959961
0.010387340213637799
0.01028382098302245
0.01024397022323683
0.010251973138656468
0.010243352181278169
0.010267490872647613
0.010367350243031979
0.010446107618045063
0.01041335215093568
0.010315542430616916
0.01025836574845016
0.010279382003936917
0.010321692961733788
0.010334921181201934
0.010351958288811147
0.010400803163647651
0.010426525915972889
0.01037956258514896
0.010283392663113773
0.010175985670648514
0.010072263400070369
0.009991714926436544
0.009961196368094534
0.009968880782835185
0.009971296144649387
0.009954848485067487
0.009933702826965601
0.009922974698711187
0.009943504978436976
0.009990288980770857
0.009981381569523363
0.009863131460733712
0.009792511796113103
0.009813188305124641
0.010021653193980455
0.010166993683669715
0.010136740091256797
0.01006310410099104
0.010099836895242333
0.010188170475885272
0.01019759544869885
0.010148956044577061
0.010118694715201855
0.010092942053452134
0.01005059458548203
0.01006605203030631
0.01016761978622526
0.010224678923841567
0.010163731565698981
0.010092015743721277
0.010088032479397952
0.010097142483573407
0.010080820738803595
0.010086227864958346
0.010139363773632795
0.010209821667522191
0.010258806000929327
0.010228992835618556
0.010106815111357718
0.01000489269150421
0.0100277032260783
0.010124572422355413
0.010191620506811888
0.010217899871058762
0.01026484341127798
0.010356138271745294
0.010413103080354631
0.010355280258227139
0.010293656720314175
0.010236168501432986
0.01021715283859521
0.010185846048407256
0.010170320745091886
0.010162326598074287
0.010096328153740614
0.010004612193442881
0.009988325480371714
0.010035501457750798
0.010037708652671427
0.00994700838578865
0.009792839777655899
0.009663760687690228
0.009660490748938173
0.009746758525725454
0.00981295517180115
0.009857033859007061
0.009914100796449929
0.009945899615995586
0.00991999748395756
0.009877892867662013
0.009879943078849464
0.009947636742144822
0.010049729321617634
0.010135415862314402
0.010169768244959415
0.010133949476294219
0.010065005887299775
0.010039976213593036
0.010048784115351737
0.01001929237972945
0.009978449360933155
0.009988559449557215
0.010010055338498206
0.010017416831105947
0.010047841696068644
0.010070311988238245
0.010039017016533763
0.010000952095724642
0.010002503995783627
0.010007268756162375
0.009967223966959864
0.009898247313685715
0.009851069885771722
0.009830648323986679
0.009804143649525941
0.009780308487825096
0.009802959936205297
0.009884908746462315
0.00999203417217359
0.010086122525390238
0.010171299192588776
0.010249274047091604
0.01026356368791312
0.010207357432227582
0.010179996835067867
0.010219565788283945
0.010265640043653547
0.010304424711503089
0.010348000952508301
0.010367088278289884
0.01038385765394196
0.010461906888522207
0.010519183268770575
0.010476017750333995
0.010306405280716717
0.01016008083242923
0.010129236218053847
0.010146320145577193
0.010141151614952833
0.01017427910817787
0.010277188355103136
0.010346489218063653
0.010345021232496946
0.01038399855606258
0.010482494276948274
0.010476188990287483
0.010321800713427365
0.010209951302967965
0.010228544706478715
0.010247662658803164
0.010188058216590435
0.010118709055241197
0.01010606339899823
0.010130118306260556
0.010133118403609842
0.010096529566217214
0.010070805146824569
0.010113622003700584
0.010196334808133542
0.010242189455311745
0.010245895651169122
0.01023780797375366
0.010199298998340964
0.010139280082657933
0.010112413715105503
0.010105128423310817
0.010093186961021273
0.010149269136600197
0.010244533978402614
0.010352090024389327
0.010350482345093042
0.010319694716017694
0.010343123835045844
0.010407501512672753
0.010432279270607978
0.010396981693338603
0.010391439427621663
0.010489583578892053
0.010652542705647647
0.010777050068136305
0.010842076006811112
0.010902056575287134
0.010934683566447348
0.010913982989732176
0.010897285812534392
0.01087522137677297
0.010760859393049032
0.010598966458346695
0.010541658066213131
0.010608959314413368
0.0106076609226875
0.01044581009540707
0.01026269315974787
0.010182580822147428
0.01019178468734026
0.010238656483124942
0.010241763207595796
0.010127514749765396
0.010039323484525084
0.010020385242532938
0.010160348720382899
0.010334365188609808
0.010438349088653922
0.010456886650063097
0.01041861483361572
0.010361787190195173
0.010286404276266694
0.010160283881705255
0.010075886130798607
0.010095367731992155
0.010216929279267787
0.01030831316486001
0.010353346907068043
0.010406233398243784
0.010458597943652422
0.010487635768949986
0.010514774501789361
0.010544130124617367
0.010532549445051699
0.010476707769557834
0.010439609079621732
0.010458761181216686
0.010533234633039684
0.010653546673711389
0.010752089677844197
0.010735816527158023
0.01062172592850402
0.010534028417896479
0.01053017889847979
0.010534161548130215
0.01050212666625157
0.010506143199745566
0.010581824050750583
0.010651797747705131
0.010644761233124881
0.010587043014820665
0.010549968637060375
0.010555046340450645
0.010573746697045862
0.010574133729096501
0.010531924844253809
0.01046939147170633
0.010445326417684555
0.010454452084377407
0.01045106940669939
0.010442944434471428
0.010444176343735307
0.010420376393012703
0.01036528934026137
0.010343503332696855
0.010383939414750784
0.010425185759086162
0.010422454797662795
0.010392988433595747
0.01035028004553169
0.010305218792054802
0.010283962185494601
0.010290797830093653
0.010313427790533751
0.010329021159559488
0.010293683435302228
0.010211540586315095
0.010159921690355986
0.010176833998411895
0.010215742397122085
0.010235218461602927
0.01022836154093966
0.010185224418528378
0.010124015337787569
0.010092217708006501
0.010083307945169508
0.010059795193374157
0.010015962417237461
0.0099675921513699
0.009963522215839475
0.010004406545776874
0.009981330188456922
0.009843152086250483
0.009678408319596201
0.009598187087103725
0.009638882225845009
0.009735806074459105
0.009794577846769244
0.009795466125942766
0.00978545772144571
0.009807060020975769
0.009886332207825034
0.010012720243539662
0.010119134013075381
0.010149641602765769
0.01018423181725666
0.010292846846859903
0.010428157199639828
0.010517251216806472
0.010491730629000813
0.01033143654698506
0.010220496349502355
0.010264908752869815
0.010337591448333114
0.010378246114123612
0.010301350376103073
0.010197614228818565
0.010136748934164642
0.010122299953363835
0.010107521088793875
0.010056473708245903
0.010012130565010012
0.010067012626677752
0.010187455757986755
0.010301086134277285
0.010293549662455916
0.010211887413170188
0.010120393333490938
0.010043503295164555
0.009997084992937744
0.00997693589888513
0.009952036296017468
0.009907625664491207
0.009869107413105666
0.00985195762477815
0.009847141881473363
0.009857018433976919
0.009844902760814876
0.009750847101677208
0.009633917743340135
0.009634145053569227
0.009736094493418931
0.00976465705782175
0.009691012431867421
0.009666042632889003
0.009733285014517605
0.009770655708853155
0.009741650840733201
0.009734064070507885
0.009797092457301915
0.009904554628301412
0.009994717265944928
0.009986224751919508
0.009942008745856584
0.009831389479804784
0.009786404753103852
0.009819273189641535
0.009814977026544512
0.009752660028170794
0.009723452997859568
0.009756417477037758
0.009773074311669915
0.009756211338099093
0.009768618186935783
0.009794497492257505
0.00977088995743543
0.009716091509908438
0.00968474555760622
0.009694549674168228
0.0097465778933838
0.0098108957731165
0.009818420931696891
0.009756890393327921
0.009701738758012652
0.009709420355502516
0.009759888788685202
0.009806122577283532
0.009832528992556036
0.00986462077824399
0.009893995206803084
0.009847544846124948
0.009739297304768114
0.009712683528196066
0.00981777476845309
0.009938550058286637
0.009997858775313943
0.010032608460169285
0.010071051567792892
0.010103886818978936
0.01012638047337532
0.010144671441521496
0.010185769225936383
0.010268017612397672
0.010344708643388004
0.010330408015288412
0.010217727930285036
0.010108501308131963
0.010077426375355572
0.010091232233680785
0.010088696940802038
0.010059997306670993
0.010022624807897956
0.009973068651743234
0.00989456392126158
0.009774188827723265
0.009635399694088847
0.009539630431681871
0.009519938938319683
0.009551934609189629
0.00964667089516297
0.009837972428649665
0.010032997920643539
0.010164140220731498
0.010176994688808918
0.010150458910502494
0.010147107688244433
0.010166158145293593
0.010196409889031201
0.010244010316673666
0.010302682279143483
0.010342433140613139
0.010346067682839931
0.01031647585099563
0.010239074665587395
0.010127585714217275
0.010057685025967657
0.010050896152388305
0.01004859721288085
0.010033797197975218
0.01002491602441296
0.009984220357146113
0.009883377996739
0.00979929940076545
0.009820419957395642
0.00991049332311377
0.00993230229942128
0.009842232570517808
0.009787669777870179
0.00986914976965636
0.009966889598872512
0.009940704524051398
0.00984305958263576
0.009830579864792527
0.009922221228480339
0.01000468445243314
0.010015352463815361
0.009989740559831262
0.009965512214694171
0.009960451046936214
0.009959069886244834
0.009910289556719363
0.009833163148723543
0.009835926187224685
0.009845108373556287
0.009865124917123467
0.009840341198723764
0.00984808715293184
0.009935845423024147
0.009994908759836107
0.009953256386797876
0.009904496872331947
0.009950505262240767
0.010043516275472938
0.010091331889852881
0.010102321966551244
0.010134910591877997
0.010180910527706146
0.010176762461196632
0.01011991715291515
0.01008123479085043
0.01006871390156448
0.010025897610466928
0.009981463521253318
0.01000971467467025
0.010072134397923947
0.010066340621560812
0.009994232587050646
0.009938285236712545
0.009901041781995445
0.009847520950715989
0.009832117301411926
0.009889897529501469
0.009926673646550626
0.009855750792194157
0.009742766548879445
0.009715751281473785
0.009785627000965177
0.009840814641211181
0.009788032593205572
0.009694621057715267
0.009646099454257637
0.009721861858852208
0.00980732686817646
0.009807210483122617
0.009802048483397812
0.009888107008300721
0.00999528183368966
0.010020678096916527
0.009984222040511668
0.009956778595224022
0.009970700594130903
0.010006741366814821
0.01002277723280713
0.01003201607381925
0.010108854975551368
0.010251704892143608
0.010346061473246664
0.010317027785349637
0.010223875709343702
0.01015662869438529
0.010147901396267115
0.010160074413288384
0.010150572382844985
0.010150746400468052
0.010199991096742451
0.01023929791059345
0.010195132668595761
0.01009704841999337
0.010000857533887028
0.009928223076276482
0.009909882666543126
0.00993524639401585
0.00994391657412052
0.009939225728157908
0.00996307952562347
0.010008410613518209
0.010070558087900281
0.010163054389413445
0.010244143290910869
0.01026038512121886
0.010262244543991984
0.010332827128004284
0.010430140008684247
0.010452801908832044
0.010409230533987283
0.010406975068617612
0.010477366438135505
0.01050747740548104
0.010444216930773109
0.010412180756684392
0.010500651160255075
0.01063785478239879
0.010728101164568215
0.010728972542565315
0.010633445302955806
0.01050934161990881
0.010467494348995387
0.010496416916139424
0.010469672919716686
0.010381078866776078
0.010351277217268943
0.01038738407427445
0.01041444490198046
0.010468382590916007
0.0105882375407964
0.010659975907765329
0.010573745341971516
0.01045421977294609
0.010423595428001135
0.010482184984721244
0.010483744957018643
0.010423456197604536
0.01037927539087832
0.010370529817882924
0.010385994147509337
0.01040574729675427
0.010401242980733513
0.010366439518984407
0.010375673067755997
0.010326474218163639
0.010299164357129485
0.010308946310542523
0.01032003394793719
0.010288868739735335
0.010235000890679658
0.010221942614298313
0.010283578648231923
0.01037430312950164
0.010420766775496304
0.010398597391322255
0.01033646307187155
0.01029035468120128
0.010293029062449933
0.01031509644119069
0.01030477452557534
0.010256221208255738
0.0102109167072922
0.01021509986370802
0.010303131355904042
0.010434896924998611
0.010573158881161362
0.010605037158820779
0.010553351619746536
0.010495579030830413
0.010438413764350117
0.010360420760698617
0.010317358830943703
0.010340570940170437
0.010347786210477352
0.010282686110585929
0.010188593331258744
0.010130461314693093
0.010146079359110445
0.010209601994138211
0.010245602671056986
0.010231542529072612
0.010216842158697545
0.010228467942215502
0.010240316954441369
0.010223313926253468
0.010177871237974614
0.010125851891934871
0.010077183344401419
0.010025612933095545
0.009979377698618919
0.00997023748466745
0.01000104435486719
0.010022770517971367
0.01003032695967704
0.010066982896532864
0.010116670173592865
0.010144751514308154
0.010164869781583548
0.010181090324185788
0.010179282864555717
0.010167794949375093
0.01014906171709299
0.010098610073328018
0.010029599741101266
0.010024381240364165
0.010109965063165874
0.010188761274330318
0.010186942948494107
0.010133081045933068
0.010071823301259428
0.010029806164093316
0.010019983453676105
0.010032763255294412
0.010049996541347354
0.010035875076428056
0.009952651234343649
0.0098385882913135
0.009792204541154205
0.009850586371030659
0.009953112055081875
0.01000758884474635
0.009966071946546435
0.00990527166519314
0.009967846642248333
0.010125105758197606
0.010196385155431927
0.0101578925922513
0.010122482418082654
0.010070433595683426
0.009938771480228752
0.009835452691186219
0.009881194906774908
0.009967246600426733
0.010013569209259004
0.010017259751912207
0.010046436986885964
0.010080866846255958
0.01009878900134936
0.010114328186027706
0.010109701538458466
0.01004408256150782
0.0099557178420946
0.009962844087276608
0.010019943793304264
0.010113336173817515
0.010138848382048309
0.01019642550032586
0.010308743917848915
0.010366240420844407
0.010329410340636969
0.010273757777176797
0.01024560515070334
0.010225519703235477
0.010211105642374605
0.010261245188303292
0.010401820323895663
0.010522325879428536
0.010509556846227498
0.010429506762884557
0.010418266938067973
0.010464769625104963
0.01045880679273978
0.01039658224908635
0.010350505830720067
0.010293782686349005
0.010161068784072995
0.010003811328206212
0.00992833977798
0.00995992137119174
0.010030950866639615
0.01004869122756645
0.00998561983462423
0.009916965507436544
0.00991043611895293
0.009935224510263652
0.009962329710833728
0.009996322754304857
0.009996159914880991
0.009954875900875777
0.009916737214662135
0.00986038831062615
0.009774502136278897
0.00972666994202882
0.009739157098811119
0.009759782527107746
0.009746211753226817
0.009699018152896316
0.00966327708447352
0.00967793099116534
0.009698156975209713
0.009657980322372169
0.009607431290205568
0.009645118857733906
0.009730018901173025
0.009737977129407226
0.009680866496637464
0.009670074973255395
0.009697297422681004
0.009666830003261566
0.009595901854336262
0.009582474345806986
0.009629349187016488
0.009659753914456814
0.00965726351365447
0.009666543179191649
0.009700020824093372
0.00972468858351931
0.0097223439370282
0.009727419626433403
0.009773374861106276
0.009817388439550996
0.00979428187943995
0.009728026711381971
0.009687428418546916
0.009678739791270345
0.009688315954990685
0.009720186167396606
0.00973372621461749
0.00968538214918226
0.009605669167358428
0.009556702410336584
0.009582451966125519
0.009677153662778437
0.009769635086413472
0.009805166302248836
0.00979326167376712
0.009740504031069576
0.0096543128346093
0.009612140692770482
0.009589386160951108
0.009547658918891103
0.009489391252864153
0.009501997956540435
0.009537914381362499
0.009513673621695489
0.009472640338353813
0.009495288007892668
0.009583875962998718
0.009672983007039875
0.009690555857960135
0.009652650060597807
0.009637235649861395
0.009661483897361904
0.009698493897449225
0.009733884695451707
0.009732412591110915
0.009654351936187595
0.009537770228926093
0.009479079868178815
0.00953257521847263
0.009662078411784023
0.009764886961784213
0.00977675246540457
0.009725925200618803
0.009648123623337597
0.009559651671443134
0.009503139134030789
0.009510097468737513
0.009548794175498188
0.009573706688825042
0.009589498741552233
0.009603114265482873
0.009577727750875056
0.009519584425725043
0.009514863905496895
0.009597076433710754
0.00969068009639159
0.009730434995144605
0.00973661646945402
0.009763658836018294
0.009808094436302782
0.009805335784330965
0.009754902138374745
0.009743490144610406
0.009794188430532813
0.009825625149533153
0.009806061831768602
0.009810380144044758
0.009871054766699671
0.00993460136000067
0.00997570882551372
0.0099954719748348
0.009962464075069875
0.00986567220883444
0.009772951351478695
0.009777090803254396
0.009895288397092371
0.010024092204403132
0.010043544329237193
0.010008953590877355
0.010065763159655034
0.010155888677109032
0.01010355015983805
0.009968799795024097
0.009910510375630111
0.009943988716695457
0.009928737075533718
0.009863610125612467
0.009859997150488197
0.00990141388727352
0.009865591416601092
0.009777253214269876
0.009789179186336696
0.009889072524383664
0.009891026022378355
0.009759198236279189
0.009675182451028377
0.009729488680604845
0.009798636722844095
0.00979586414527148
0.009826506408862769
0.009985166331753136
0.010165308818686753
0.010220044648740441
0.010180035068187862
0.010160532728768885
0.010176024914253503
0.01019264650065452
0.010230187722481788
0.01028138060355559
0.010286349765956403
0.010260902126319707
0.01026877097086981
0.010262630579527468
0.010158090081531554
0.010032426444813608
0.010028497129678727
0.010115240598097444
0.01014358815504238
0.010172403526958078
0.010281176520511508
0.01041613360401243
0.01039531183661893
0.010260533422697336
0.010175002457108348
0.010216693487018346
0.010232959110289812
0.010131073750089854
0.01003290904685855
0.010063775193411856
0.010186594040133059
0.010311155142262577
0.010380595952738077
0.010364949158392846
0.010302708640228957
0.010287581612356007
0.010362525382079183
0.010472835297696293
0.010529570360668004
0.01050074298400432
0.010424283598549664
0.010352825338486582
0.01033259926829487
0.010398734384216369
0.010527697380166502
0.010637417337857186
0.010670707726385445
0.010631823963485658
0.01055916806915775
0.010493391256313772
0.010470349052920937
0.010498482985422015
0.010566386170685291
0.010619021304883063
0.010577444056980311
0.010470711078960448
0.010434831054881214
0.010491292187944055
0.01052278587827459
0.010491041254717857
0.010464162095449864
0.010479553667828441
0.010516160251572728
0.010555855210404842
0.010606854460202158
0.010664740125648678
0.010699657844379545
0.010676336721517146
0.010584020803216845
0.010490873060189188
0.010492071451153606
0.010573718731757253
0.01063926238566637
0.010664360120426864
0.01069706610403955
0.010700081523973495
0.010566816900391131
0.010348619718570262
0.010250651084352285
0.010304185438435524
0.010338365593925118
0.010292556586209685
0.010287794102914631
0.010341797696892172
0.010383910769596695
0.010363657427951693
0.0103549461835064
0.01041767445858568
0.010508807853329926
0.010564318266697228
0.010625983772333711
0.010723958949092775
0.010755119193345309
0.010671142179053277
0.010588604118674993
0.010591610588598997
0.010611700476147234
0.010560501019936054
0.010476061897352338
0.010465281649958342
0.010511102972086519
0.010473808005917818
0.010334246263373642
0.010252738466951995
0.0103183085587807
0.01042000955203548
0.010424126118887217
0.010318021804559976
0.010180480645503849
0.010091568396892398
0.010088846827857196
0.01006998046534136
0.00994622214930132
0.009808801629114896
0.0098056595842354
0.00990216644713655
0.009947349892463535
0.009946046348195523
0.010006687995046377
0.010081018400378526
0.010063638475257904
0.010026319643948227
0.01009310238296166
0.010210412801243365
0.010292814280837774
0.010308323097415268
0.010312742260284722
0.010282121046911926
0.01018449476454407
0.01009068507933989
0.010070321585517376
0.01006607956951484
0.010016483238432556
0.009948443956673145
0.009913694942370058
0.009901433440390975
0.009859822515863925
0.009789429737720639
0.00973948993952945
0.009730295569170266
0.009747710791416467
0.0097687916085124
0.009752670307643712
0.00968286994844675
0.00961618180386722
0.00960260198218748
0.009630258879624307
0.009691263712011278
0.009775553145445884
0.009821031810715794
0.009772982546128333
0.00969674311345443
0.009680690900422633
0.009711468038149177
0.009739739829674363
0.00975354167399928
0.00974928482202813
0.009735803380608558
0.009725501821376383
0.009691435205750167
0.009633521928917617
0.0096040192944929
0.009594071460887789
0.009550821562297642
0.00949759978801012
0.009495904864743353
0.00953444207785651
0.009561607020441443
0.009575463950168341
0.009587758553680032
0.009587423091288657
0.009604900067206473
0.009683372562285512
0.009781097532249988
0.009836987424641848
0.009875909043475985
0.009937119698151945
0.0099868713459
0.010010722496081143
0.009924058539327233
0.009820955763570964
0.009833159863483161
0.009917396490927786
0.009938398397061975
0.009884778247214853
0.009861601521261037
0.009907981855794787
0.009953085277229547
0.009957362036220729
0.009949664734303951
0.00990439189132303
0.00978664844762534
0.009692940753884613
0.009741061613895
0.00989309455966577
0.010013696851674468
0.01003751643234864
0.010019700857810676
0.010025443038903176
0.010031276820227504
0.010008101055864244
0.010001296973787249
0.010029638514388352
0.01003672536695376
0.010000986238010228
0.009956738399341702
0.009914560201577842
0.009896391320507974
0.009912175051867962
0.00992267981171608
0.009970352887175977
0.010082381954416632
0.010223329039290548
0.01030459992820397
0.010298429536633194
0.010286444069352
0.010346705799456686
0.010412322755437345
0.010395160086918622
0.010369777576997877
0.010407791053876281
0.010418475833721458
0.010339751641731709
0.010260311174206435
0.010235200212337077
0.010177095087710768
0.01005539126927033
0.010010255724191666
0.010117077466566116
0.010259149461053312
0.010289311460219323
0.010220924885943531
0.010189938161056488
0.010278009427711367
0.010407019562553615
0.010481511612888426
0.01052126219496131
0.010574713491369039
0.01062071427470073
0.01057725507300347
0.010423839027062058
0.01029088238021359
0.010284083450678737
0.01030592198483646
0.010215872297994793
0.010059686074964703
0.009982485147193075
0.010002167895436287
0.010022957145702093
0.010006594145670534
0.010007695807144047
0.01005822527455166
0.010105250664055347
0.010111761048901826
0.01012031063437462
0.010150084453634918
0.010168359011877327
0.010163426008075476
0.010127713752444834
0.010110847351606935
0.010115566398017108
0.010185831405688078
0.010234077940694988
0.010224793322850019
0.010208009050693363
0.010204217548016458
0.01019010622287169
0.0101696433336474
0.010171181685291231
0.010199004199821502
0.010206907906103879
0.01014460667502135
0.010055663778912276
0.010028429795056581
0.010032052563037724
0.009975459785200655
0.009902609142009168
0.009924545551184565
0.009981559393927454
0.010071681714616715
0.010150312515906989
0.010172948923427612
0.010136817307211459
0.010117298054974527
0.010169269256293774
0.010214824767317623
0.010164504006970674
0.01005360352108255
0.009962004742119461
0.009929617962334304
0.009976010343525559
0.010083049486856907
0.010187371307983995
0.010236961471382528
0.010211382552515715
0.010116119452286512
0.010006025058683008
0.009959911049809306
0.009999329184647649
0.010054450118914246
0.010029445607215167
0.009942067353986204
0.009915421037003398
0.009963557631708682
0.009968052920885383
0.00991028438322246
0.009904745125677437
0.009970282779540866
0.010027804800774903
0.010075385104864837
0.010076701245270669
0.010035121596883982
0.009947047468740493
0.009847689718008042
0.00980024652555585
0.009811629760079085
0.009829872327391059
0.009843551223166287
0.009863646714948118
0.009859724813140928
0.009829937401227652
0.009809354995377361
0.00978939666878432
0.009748786229174584
0.009719886078964918
0.009774472038261593
0.009920145089272409
0.010015809091273696
0.009926399756222963
0.009744336931034922
0.009673097142949701
0.009733021324500442
0.009766296888701618
0.009681736163329333
0.00953281410271302
0.009416356103029102
0.009385791493114084
0.009392841067165137
0.009356631175614893
0.009329423313029111
0.00942139202496037
0.009584830589592457
0.009685742331203073
0.009713999056257307
0.00974655692698434
0.00979780099587515
0.009825584255158901
0.009815972577780486
0.009797906395979225
0.009818360467907041
0.009895643526688218
0.009965149129275232
0.009964920761995018
0.009932638986501843
0.00991914598736912
0.009921137518249452
0.009905376709066332
0.00986361907562241
0.009874769174493848
0.009951542865019291
0.010052594817243516
0.010048388508148492
0.010020929123274982
0.010071460243780165
0.010139211029745639
0.010126528034452348
0.010068879115860909
0.010042452507186682
0.010050806130748243
0.010082379090599716
0.0101477079722099
0.01020801794482395
0.01020139639498666
0.010153771112672984
0.010128374407067896
0.010140756771434098
0.010178235601633787
0.010193984855432063
0.010151215204969049
0.01010318640852347
0.010094343663658946
0.010091454919893295
0.010104514823760838
0.010164642564486712
0.010220699228812009
0.010246215658262371
0.010284926071763038
0.010331174952443688
0.010340988840907813
0.01029524950310588
0.010198883155826479
0.010113690993748606
0.010099558893125504
0.010107917806599288
0.01008588779484853
0.010081036693882196
0.010128118905704468
0.010177648470271378
0.010176786775700749
0.010153080907184631
0.010179262415040285
0.010244473689235747
0.010274853052105754
0.010255442403722554
0.010212436707224697
0.010167618449777364
0.01013450138270855
0.010106838357169181
0.010092813947703689
0.010100809691939503
0.01006261013681069
0.009933256506919862
0.009864865290001034
0.00989270151592791
0.01000465259887278
0.010054803411476314
0.010028417445719242
0.01001590425381437
0.01004600128857419
0.0100563693838194
0.010012539548333733
0.009980476831551642
0.01001941061578691
0.01007378454785794
0.010065853379201144
0.00999643538147211
0.009917595614679158
0.009904802110977471
0.010005761107895523
0.010150424288585782
0.010219243187457323
0.010213494007475675
0.010218396696727724
0.010262653743848205
0.010327112441882492
0.01037448063492775
0.010369409620761872
0.010345391291193664
0.010361153248231858
0.01041276422329247
0.010446629021316767
0.010401924061588942
0.010268903023097664
0.010250881314277649
0.01022410909179598
0.010214676642790436
0.010208671789150685
0.010170145533047617
0.010130295543931425
0.010128039810806512
0.010133190189953893
0.010102429892867804
0.010065758642740548
0.010079464949667454
0.010151508599519729
0.010233567091636359
0.01027554322965443
0.010274550109170378
0.010232372055761517
0.010141938431188465
0.01007327170111239
0.010143033084459603
0.010326568111777306
0.010445927430409938
0.010422080224379897
0.010356442402116955
0.010326151095796376
0.010312016569077969
0.010289864938240498
0.010224616411142052
0.01007982703158632
0.009931939758826048
0.009904676594305783
0.009966797064989805
0.00997714969329536
0.009872073733713477
0.009745579645968973
0.009724730460438877
0.009858114700764418
0.009993616291321814
0.010000824476592243
0.009953646312933415
0.009981289757415652
0.010055925138294697
0.010087426085956395
0.010064970378298312
0.010005507431924344
0.009927126853726804
0.009878660121466964
0.009900132368784398
0.009952480436768383
0.009923175359144807
0.009794327635318041
0.009713410520926119
0.009794061724096536
0.009950591614469886
0.010025750410277397
0.009988261039834469
0.009924561723601073
0.009883955654222518
0.009824892242904752
0.00973424913128838
0.009678021550644188
0.009697045211214571
0.009749017544090749
0.009785034600645304
0.009820038403850049
0.00986316598020494
0.009862571801058949
0.009802174631040543
0.009764163957443088
0.009817245858721435
0.009868322215043008
0.009907617901917546
0.009880929763894528
0.009845238719135523
0.009821086672600359
0.00980883602751419
0.009816410266794265
0.009857669554185123
0.009927847888320684
0.009987300923094154
0.010031058930326252
0.010106492093764246
0.010223977726418525
0.010335374278947712
0.010403690135572106
0.010445581127423793
0.01046569920843467
0.010406896148342639
0.010268201327417046
0.010164061705581843
0.010162950814701617
0.010203002039343118
0.010220668213441968
0.01022937431000173
0.01025651091709733
0.010308757862076164
0.010380911687389017
0.010435079436283558
0.010439307205379009
0.010445413524284958
0.010523261160124094
0.010520919845439493
0.010574694967363029
0.010624569330830128
0.0106253690761514
0.010605006809346378
0.010586367882788182
0.010553990039043129
0.010493818330578506
0.01044588026124984
0.010442519348580391
0.01042561504524201
0.010345937730744482
0.010258121497463435
0.010211882635485382
0.01019270900869742
0.010193374641239643
0.01022169693838805
0.010241594216786325
0.010185211130883545
0.010063613136298954
0.00998780898284167
0.010011053648777307
0.010059313031379134
0.010079118646681309
0.010108300463762133
0.010172195336781441
0.010273183151148259
0.01042873105034232
0.01056627930374816
0.010556203890591859
0.010439185481518507
0.010400714776478708
0.010515507748350502
0.010635903228539974
0.010624744200613349
0.010506636695936322
0.010442771113011985
0.010467547823209316
0.010466371057555079
0.010371282286942006
0.01026372160995379
0.010230917492881417
0.010243614299688487
0.010269313652534038
0.010346823721192777
0.010482169995084405
0.010608510568272323
0.01067694891942665
0.01070834810147062
0.010712838722392917
0.010663197562098502
0.010558814869727939
0.010459196958690882
0.010435269200243055
0.01049405917758122
0.010583721944130957
0.010647967206314207
0.010658677420578896
0.01062656561145559
0.010573427209164947
0.010531567155849188
0.010564056111034005
0.010678125605918467
0.010794302148278803
0.010864523195195944
0.010871404407080263
0.010864674726035447
0.010859749543014914
0.010874664729926735
0.010943308877758682
0.010950390561483801
0.010907648436259479
0.010889117694459856
0.010887907489668579
0.01085645991144702
0.01081884565530345
0.010819693475496025
0.010824975175783038
0.010784478841815144
0.01072323286673054
0.010670559152495117
0.010576712565962225
0.010423930881079286
0.010282589846756309
0.010170716911088675
0.01007080816430971
0.010052483861800283
0.010167210719082505
0.010324756444897503
0.010407497093547135
0.010410693702287971
0.010396941867657005
0.010389095172286034
0.010363709668163211
0.010307337923441082
0.010238548559136688
0.010178589024581014
0.010121244008187204
0.01006733428221196
0.01006157198222354
0.010106325773522258
0.010110333643388003
0.010025228920858354
0.00992237296886742
0.009870337983593346
0.009844699113164096
0.00981098083080724
0.009825867479667067
0.009938092883676291
0.010049987055826931
0.01005423957016319
0.009996570192743092
0.009989643681328743
0.010077950565610082
0.010189130681101232
0.010236147686373442
0.010245143149513752
0.010267809208016843
0.0102630391321145
0.010192753120791168
0.010106128987390548
0.010047057254705578
0.01000961497426033
0.009997594365850092
0.010006820238195359
0.010001379158347845
0.009948348519392311
0.00983601864427328
0.009745572353713214
0.00982452348805964
0.010038089498411864
0.010137396035715937
0.010022701360285283
0.009905653258319944
0.009948052775580436
0.010001649658661335
0.009893154732417316
0.009756812807172537
0.009718012921512127
0.00980152128264308
0.00983683912549168
0.009770016190595926
0.009726797956973314
0.009782465130556375
0.009834912579972297
0.009786719642579555
0.00970392786897719
0.009694449577946216
0.009741300160530954
0.0097644623555243
0.009754128800705076
0.009739824282005429
0.009708797922357917
0.009644024546723813
0.009581658814568073
0.009551896799821406
0.009530397604685277
0.009517767280340195
0.009567062372807413
0.009677769816480577
0.009769234515260905
0.009768627679441123
0.00966470703948289
0.009511310972739011
0.009399919928982854
0.009415924488566816
0.00950335665140301
0.00961390593321994
0.009696908567566425
0.009657138793263584
0.009582073022611439
0.009519740927498788
0.009481976297684014
0.009467585170641541
0.009427718378137797
0.009334612449165433
0.00925252202898264
0.009251240375451743
0.009312406722456217
0.009370104651898145
0.009398750131949782
0.009420745950192213
0.00946632529143244
0.009564660720061511
0.009709889718797058
0.009816395633388311
0.009815742538776248
0.009760033928323537
0.009722381683532148
0.009715064889751374
0.009726552770007401
0.009719879317563027
0.00967453271150589
0.009628309756517411
0.009589464112650603
0.009528362902346998
0.009478715946897864
0.009503023531287909
0.009562286317814141
0.009558914394583553
0.009519932856783271
0.009582677553407849
0.009790911229792983
0.01001954752486199
0.010130558768287301
0.010145198844838887
0.010144092994742095
0.010088749979622662
0.009933904714416712
0.009784859190694987
0.009780553088057786
0.009906644569709896
0.010000853962264956
0.00994590321322903
0.00983343952568248
0.00981529028620571
0.00985093272291124
0.009811984742991626
0.009742422555573284
0.009758536978624761
0.009814896362368018
0.009823190937750042
0.00984645887510851
0.009950492712669075
0.010029471542220563
0.009969869267661125
0.009874567517545074
0.009896652537863702
0.010054348118137569
0.010133509121369571
0.010012153387069702
0.00990435209358111
0.010036425795406104
0.010228345869109035
0.010198107229080051
0.010131110157817601
0.010123177852947265
0.010217821651604026
0.010301158574875444
0.010257962106261403
0.010173224569298327
0.010154589891899378
0.010186574021354318
0.01018764304695651
0.010165127632208169
0.010160554617177695
0.010129632863681763
0.010061705675907433
0.010066270392853767
0.010178219492081553
0.010277181090787053
0.010300036703702062
0.01031996535602957
0.01036298952298239
0.010344980463851244
0.01026823309250176
0.01021627148380503
0.010241626147180796
0.010231311263050885
0.010127169364131987
0.009993803859688342
0.009926307264249772
0.009990779829677195
0.010136199712287635
0.010220449166372419
0.010201053882483394
0.010156761838588864
0.01012260865420103
0.010084462617523968
0.010083985792007297
0.010148793107364327
0.010195475264918059
0.010133429723791778
0.010030251757707448
0.010043948413804174
0.010177703760564327
0.01027801878284663
0.010267231222242117
0.010203322609886527
0.010138806155882776
0.010089256991632283
0.010111667204182596
0.010214288379065692
0.010268154884688557
0.01020925684599206
0.010158049322199077
0.010177199968602509
0.010171412343624979
0.010122718715574592
0.010101945742499084
0.010087918711360545
0.010069608502089978
0.010117002178449184
0.010212541376240551
0.010278791706077754
0.01032408764353022
0.010366527754813433
0.010358228837139905
0.010293210085947066
0.010243174189236015
0.010232792175374926
0.010180169206578285
0.010009121603798122
0.009805061083752661
0.009743873064871877
0.009840176990255713
0.00995913910213858
0.01003778230631724
0.010108987549319864
0.010174028864130378
0.010166275766678154
0.01005843946011737
0.009926576861180364
0.009859651287551969
0.009874433013610542
0.009921664118301123
0.009957076299469918
0.00999335414962843
0.010040149718988686
0.010062475602608175
0.010068286857567728
0.010122979290317745
0.010197474649176001
0.01017311908537522
0.010077335922978818
0.010069739879108966
0.010141516313888132
0.010164363712538033
0.01006148791173473
0.00993224818026647
0.009875563699752092
0.009873551148921252
0.009851008134428412
0.009802916212938726
0.009806885835714638
0.009824788079131395
0.00998271255986765
0.01011054338188842
0.010137466378509999
0.010107142876368016
0.010126626477576792
0.010190757582895458
0.010225516925565899
0.010241674571298064
0.010279534948058427
0.010305327519308776
0.01027845969190821
0.010206029762048274
0.010092739006504417
0.00995952557073906
0.009876271432731301
0.009886131016537547
0.009951872820965945
0.010015358028467744
0.010060421824455261
0.010065188277512788
0.010046582540962846
0.01002451834268868
0.010071682503912598
0.010193553413264453
0.010314532008487731
0.01036022200481966
0.010313095999881625
0.01020614045439288
0.01011909351684153
0.010128323228564114
0.010213583773002029
0.010299404284451157
0.010352598156314343
0.010374257613439113
0.010379528950434178
0.010410687976982445
0.010496899532154203
0.010585657213814556
0.010589399700984358
0.010512019898742437
0.010447623785585164
0.010460687559098006
0.010529667173977941
0.010604517341125757
0.010665497025474906
0.010688154636882245
0.010649985410273075
0.010609264832455665
0.01060767273651436
0.010581551382783801
0.010543115136679262
0.010587719364557414
0.010651975721120834
0.010602878956124186
0.010480630300007761
0.010405366700142622
0.010349287483841181
0.01032850710209459
0.010363421868532896
0.010438654029276222
0.010498506193980574
0.010505742563400417
0.010492909445893019
0.010509637827053666
0.010545373444911093
0.01059019502485171
0.010685494164936244
0.010807716445997357
0.010840328666381538
0.010767469264101237
0.010729612978175283
0.010797524661757051
0.010854587533976882
0.010809872010722756
0.010765056065283716
0.010824216061737389
0.010931385478470475
0.010996962229255587
0.010999180392827839
0.010962001499719917
0.01092900798888877
0.010916993066202849
0.01089728056685999
0.010858308523893356
0.010824252495076507
0.0107902298332192
0.01073536159005016
0.010690380656160414
0.010706308267544954
0.010776594884227962
0.010822016601450742
0.010767665279563516
0.01064824749948457
0.010594265665858985
0.010669581894762813
0.010761046290863305
0.01073618499096483
0.010664144896436483
0.010688804893288762
0.010737863176036627
0.010623605246655643
0.010415971926413477
0.010376638378947972
0.010517748494166881
0.010600721896626055
0.010535627161152661
0.010454918660689145
0.010435744768474252
0.010423063195776194
0.010422821342945098
0.010504464604891836
0.01063104033935815
0.010714568588882685
0.010761744671035557
0.010803548023104667
0.010799568793736398
0.010738539376761764
0.010693667128216476
0.010710225750226527
0.010770887620747089
0.010844806651584804
0.01090337981004268
0.010935281559359283
0.010948910475708545
0.010956621165387332
0.010948934198822827
0.010935991590376943
0.010990907342638821
0.011083171041682362
0.011034062965773046
0.0109095229068771
0.010763563907239586
0.010745818088762462
0.010696882242336869
0.010607608649879694
0.010551455600652843
0.010585138211026787
0.010584718463942409
0.010499466627370566
0.010479643926955759
0.010396731032524259
0.01034901395207271
0.010326157533563673
0.010298794601112604
0.010241953248623759
0.010202753804624081
0.010244203479960561
0.010312933174427599
0.010335018406622112
0.010367981672752649
0.010455819063354284
0.010504173615481704
0.010471423198468983
0.010461782235652209
0.010538761471398175
0.010621318777557462
0.010665735467337073
0.01064440147485584
0.01059359963517636
0.010522364038042725
0.01044558480847627
0.010416888769250364
0.010452482150867581
0.01050384706351906
0.010519008089322596
0.010479530980810524
0.010410187249071896
0.01037784897023812
0.010431422833353281
0.010514969318173827
0.010503902493510395
0.010380964204668998
0.010279737922828644
0.01028981746174395
0.010340549731627107
0.01033465052722022
0.010289028901606798
0.01026632777415216
0.010256150921341032
0.01024065304780379
0.010271859862841666
0.010354792468715459
0.010396932256408037
0.010359784725587816
0.010314607515465469
0.0103140804101713
0.010332654984667898
0.010358865254092962
0.010400032934267073
0.010390228603500872
0.010279066548682748
0.010231485841795802
0.010253632152453064
0.010360466234851628
0.010417761381249875
0.0103767138463445
0.01030277113430202
0.010283971920143813
0.010328397322446108
0.010411669297609479
0.010536791332997382
0.010626014831941574
0.010559011390432716
0.010403504217974842
0.010350557523779572
0.010405645810533316
0.010405607016291469
0.010325865563936531
0.010298947631381452
0.010344962032977491
0.010344381644390523
0.010268253881949931
0.010222025425173342
0.010265717303846032
0.010357359345071017
0.010431052059866488
0.01042507050326094
0.010346446009352804
0.010294683529064059
0.010309426554013044
0.010322417316492647
0.010282077938318252
0.01020436009624973
0.010132972989231348
0.010103584427852183
0.010130453337915242
0.010164864209946245
0.010117267325986177
0.010021357198711485
0.010031642669346183
0.010080612844321877
0.010152685907669365
0.010116552049294115
0.010128776591736824
0.010211000062990933
0.010306944584008305
0.010338858813047408
0.010387420842889697
0.01050078688422218
0.010537595036439598
0.010596940990071744
0.010575514666270465
0.01053012685617432
0.010515155715402215
0.010531866126693785
0.01050648526987061
0.010384640456177294
0.010252446685917675
0.010211679248604923
0.010207430839072914
0.01015669439919293
0.010087253588717432
0.010015401758719235
0.009933283044956625
0.009936537472531199
0.010078202246222644
0.010208108429796994
0.010192623306065797
0.010123444849159568
0.010137578938156366
0.010202013954985887
0.010221030081156641
0.010186948145274074
0.010138926801737398
0.01009918937459588
0.01007295299321413
0.01006068540038541
0.010046107871457934
0.010001036322209984
0.009943380416370929
0.009943589854519813
0.01000942044891417
0.010049732024781407
0.010048659255262464
0.010091689105611295
0.010162919743452221
0.01018001621356234
0.010172885318752378
0.010206486745737493
0.010242960583418607
0.010204767605755479
0.010109268832020462
0.010054417680948972
0.01006733023095876
0.010052149731200189
0.009974859047215432
0.009822998603340238
0.00973624960752204
0.009731575357727706
0.009778128834441305
0.009868929227814079
0.009934009972494096
0.010037919913884252
0.010064957630820572
0.010044705658219754
0.010079641011543572
0.010180162184406072
0.010220320727676153
0.010145146569702774
0.010015476827975362
0.009883383356500417
0.009805394657887519
0.009815809044521302
0.00983617892023176
0.00980333489133045
0.009812711195554585
0.009933988002594561
0.010051542285364121
0.010056636340450495
0.009996363262180239
0.009963065690826625
0.009974860695656389
0.009980850766878576
0.009939007959328592
0.009868653509765863
0.009833623638842255
0.009867021469399334
0.009916510689072311
0.009919907269068062
0.009883161124307663
0.00982639154419303
0.009759062982629985
0.009703992269933223
0.009667756836861371
0.009645579739008099
0.00965002577053383
0.009699755779001862
0.009797791403252631
0.009907790692523122
0.009973033173009753
0.009968240135349334
0.009924938997719436
0.00989534774562344
0.009878088820260018
0.009845124622806907
0.009822704594116658
0.009852597711142153
0.009899876492563636
0.00988147332565859
0.009811813074629755
0.009801047563087195
0.009872132369782776
0.009944873773492872
0.009973493844736368
0.009977733676787465
0.010009311116300523
0.010100290810223669
0.010191408742684871
0.010190196800976992
0.010113431776408105
0.010058424463495612
0.010078768925741315
0.010177046235185117
0.010297835664823651
0.010312188288662583
0.010179570440668613
0.010051687189843506
0.010047777674626559
0.010081473060417921
0.010062458612956106
0.010052875189576298
0.010089191992301494
0.010096386659424752
0.010060170118231326
0.010058029969222844
0.01009689710335806
0.010095573470462114
0.01004024472553283
0.010011787419207394
0.010039558729622512
0.010059348857030272
0.010051592967938632
0.01007451516808942
0.010095433229580522
0.010039721976500004
0.010010894609149546
0.01011942924465984
0.010258269351907075
0.010301630657631905
0.010272096435073763
0.010239923121407628
0.010230171906296165
0.010209644038695842
0.010165648434776813
0.010176996886730193
0.010322315625380725
0.010564225330017506
0.010652432544156909
0.010572136400733144
0.010475665971171111
0.010448489270638675
0.01045576335862279
0.010438669347204268
0.010368413224350661
0.010253068148158491
0.010129208974540234
0.010051299172919243
0.010049950969405473
0.010077286122832447
0.010085591964889317
0.010105989638250322
0.010143717860337347
0.010152308733668179
0.01014954548329115
0.01017117773881182
0.01017386689549312
0.010125113518442959
0.01007503468543291
0.010075648662168533
0.010117043554782868
0.01015910247573629
0.010185955250635743
0.010210519251413643
0.010249686338938772
0.010297139300964772
0.010304261727724225
0.010253446630667896
0.010216356108430772
0.01023978494340554
0.010271590896882116
0.010277785467915237
0.01031563121592626
0.010420963396318256
0.01052371519152075
0.010534869458060711
0.010448138702195138
0.010338974921032786
0.010273214404005557
0.010225775067228824
0.010156250696163625
0.010119912805967033
0.010180037007667125
0.010272683773655445
0.010291852634400129
0.010227445499040186
0.010121323384810239
0.010013609668239951
0.00994688692735508
0.009957756998483091
0.010019214963540435
0.010043279114179314
0.010002232624683529
0.009974134536460042
0.010015491568483413
0.010097767452243715
0.01016369768884033
0.010155154129024594
0.01007941051153466
0.010043083603959531
0.010084572050254792
0.010119910170324146
0.01012326990487054
0.010127703826874494
0.010098124532960355
0.010010146098211407
0.009932337701320649
0.00991422574268654
0.009925816622562707
0.009938779885414988
0.009953978138510138
0.009957483196631074
0.009932046465110034
0.009909163063857704
0.009945282638072967
0.010038839450571687
0.01012632527621463
0.010165447888430207
0.010175977100152523
0.010187871321104467
0.010179915810003876
0.010107324961572885
0.009991369694471359
0.00991981923347339
0.009934748734813183
0.009970928214024753
0.00993345444323495
0.00980453792028129
0.009645375730469823
0.009538078715559095
0.009533782666549086
0.009603294350672514
0.009679204479325562
0.009763791805598885
0.009862693187315016
0.0099067165190354
0.009835570876020938
0.009771838316228241
0.009800854865461587
0.009853260910604148
0.009873039317317306
0.009876845150720327
0.009870661976747215
0.009870565887540579
0.009919307809323073
0.009987584033515304
0.010009846328757703
0.010004844088107347
0.010011179740540683
0.010010563659016043
0.00999860728625208
0.010016666962765158
0.010075905486010015
0.010125945180188865
0.010125211398117244
0.010100950084161014
0.010112087596207858
0.010172007279470563
0.01022708949400112
0.010219791922718286
0.010172847600188106
0.010165253863669932
0.01022323066368699
0.010290538123808802
0.010288469209335745
0.010188147237058728
0.010062636777292936
0.010030472481157631
0.01010721810394898
0.010193793205544352
0.01021941288607195
0.010190732111223042
0.01013074300950393
0.01007021690485999
0.010053974194452166
0.010079167750664055
0.010088860117830336
0.010066521102562547
0.010057799951173365
0.010090540344826877
0.01013121540658176
0.0101272097742185
0.010078633804805576
0.010044097772333772
0.010076141993049532
0.010170955841895193
0.010273816855624318
0.01032335787313059
0.010325441563036292
0.010333338077180088
0.010365205593407154
0.010386338264215738
0.010377820376306772
0.010354652313981205
0.010311614002566784
0.010234861178323626
0.01015889469301328
0.010135253593325615
0.010149274265859275
0.01013778722845018
0.010101838386617601
0.010100325962994247
0.01010338011663407
0.01003253305098042
0.009954095049761236
0.009983692157547921
0.010084924588445574
0.010175874414853752
0.010243853677529842
0.01025729505578056
0.010173022719100118
0.010064209620468318
0.010065427862573416
0.010132446512579918
0.01007544046966359
0.00998222216265276
0.009850822857115417
0.009934524996206165
0.010072920271195471
0.010116463918238878
0.010112142940051853
0.010163663830608129
0.010264849571976811
0.010324727196712047
0.01031768426299095
0.010300322016701103
0.010280694952234626
0.010253514195792377
0.01028962736018002
0.010394434535410255
0.010457235674839466
0.010436404184438287
0.010396697337273508
0.010381848928518593
0.01038261956302449
0.010378462532535195
0.010335909072309732
0.010244209563825279
0.0101737419818528
0.010174107763450593
0.010192255559377372
0.01019907132955268
0.010231055580079555
0.010260155566502362
0.010221391739323736
0.010169307591859252
0.010210952260531486
0.010326605488080532
0.010406994463410228
0.010412489068694413
0.010401376155205071
0.010413871412165463
0.010422905401792377
0.010423334972001612
0.010442369636148214
0.010449405880644918
0.010372595316730439
0.01020973875420168
0.010054774163290859
0.009987560198642314
0.009984417061787099
0.00998731560073793
0.009989669944625348
0.009996896130032837
0.010009954983834177
0.01006117731332779
0.010150529649108649
0.010208630301058293
0.010188053215388208
0.010112219443544745
0.010055096538271755
0.010088830487802625
0.010185707213822752
0.010243638821411877
0.010241715405136347
0.010243912721052765
0.010268642723094672
0.01027139810146764
0.01023805585457012
0.010216276491992176
0.010230469247326256
0.010231095636263489
0.010175305088050663
0.01009962375741452
0.010065788901410997
0.010081850874703377
0.010117284394800663
0.01014847399201244
0.010172692751511931
0.010178278260864317
0.010120566068217159
0.0100367978727445
0.009973946877289563
0.009957944643683731
0.009946500707883388
0.009967050990089774
0.01002894972683862
0.010073602118063718
0.010087159823160618
0.010129688871093095
0.010205747485160828
0.010207404799293726
0.010098151846323162
0.010027915360406042
0.010076981212478131
0.010184929938986897
0.010241634983103723
0.010198092241771518
0.010102970891166478
0.010074708012398332
0.010164074455387891
0.010271534868516029
0.010290437766816467
0.010298350844532251
0.01041868848958984
0.010481530814431608
0.01053902081446722
0.010437473061028869
0.010317987576127053
0.010243982216343284
0.010195717550814151
0.010178643185645342
0.010177112894598394
0.010146587716881185
0.01010190766537562
0.01010926614748314
0.010199152489658445
0.010301070343703032
0.010308462036773563
0.010230388024356217
0.010173648020718247
0.010191487753763795
0.010248468993231653
0.010309594944119453
0.010390735124237835
0.01048770550871268
0.010545977319125086
0.010566942463628947
0.010602605091407894
0.010629348740912974
0.010577032049186528
0.010529100624844433
0.010420080679468811
0.01040174420690164
0.010431782593950629
0.0104328500921838
0.010410779928788543
0.010401617519091815
0.010397320995107293
0.010389495834242552
0.010392995509319007
0.010395232751034201
0.010358416922390461
0.01027747016167268
0.010198320215567946
0.010152853999752551
0.01019787891767919
0.01034070190275088
0.010495263407938183
0.01053975538816303
0.01045815299032256
0.010371685870923101
0.010250316879246385
0.010187794414814561
0.0102060179063119
0.010234107123687863
0.010174347346182912
0.010061188654508441
0.010010529474820942
0.01006539388326928
0.010158978074323387
0.010217699331697076
0.010229680275078862
0.010199108175002039
0.010139529427979141
0.01009932431159541
0.010112952010240405
0.010144399292767049
0.010138551767449827
0.010110850494820625
0.010113269828725607
0.010151026726234705
0.010196142583154141
0.010237595648504794
0.010285761137492955
0.01033723924541846
0.010347643478307873
0.01027451890753582
0.010126684743445366
0.010052843065932394
0.010036902665160597
0.010080220967065543
0.010182400296907873
0.01019552918849513
0.010152561895083637
0.010109283216297626
0.01004251352045685
0.009968521976843477
0.009952028412371874
0.009983015726320446
0.009998080723453312
0.0100176766468212
0.010123112024739384
0.010282974536530674
0.010369592136703432
0.010270908535458147
0.010108711016364395
0.01000931640388444
0.010101286496501416
0.01026597995776683
0.010352828642353415
0.010352279299404472
0.010339989373460413
0.01034817487699911
0.010338499741628766
0.010279527495149522
0.010229027671739459
0.010254840087145566
0.0103208668413572
0.010379226505756378
0.01044321092311293
0.010514077953994274
0.010589817701838911
0.010670035879593342
0.010698352793697267
0.010655286067631095
0.010623768733348698
0.010631438612472266
0.010609509963542223
0.010558945469092577
0.010543165621347725
0.010554466997273266
0.01054967388510704
0.010517624039202929
0.010449543264694511
0.010347967182751746
0.010249637509696185
0.010174539098516107
0.010116706402041018
0.010096945248078555
0.010146874624770135
0.0101653963024728
0.010231183902360498
0.010223951928783209
0.010204696066211908
0.010233936677686871
0.010261801967862994
0.010223676506429911
0.010183223187923432
0.010226527659688145
0.010279668285511434
0.010232831197790802
0.010168396027293056
0.010241041481494904
0.010393864724319428
0.010462220148183406
0.010393985931295901
0.010300570216495544
0.010264265940058977
0.010285797535907477
0.010344266542233527
0.010387842215131969
0.010488321743905545
0.010555691164918245
0.010584739961195737
0.010620925284456462
0.010694018031936139
0.010756737487390637
0.010753787569701672
0.010712255346588791
0.010693923640064894
0.01068253959529102
0.010637589506804943
0.01061021460685879
0.010642199532594532
0.010643263964448124
0.01054866862250492
0.010493931169621646
0.010459174530114978
0.010475852249655873
0.010467827077955008
0.010469653238542377
0.010523569139186293
0.010577200830448419
0.010567747524473816
0.01051002620253712
0.010461800866760313
0.010452465564012527
0.01050699305254966
0.010566466443706304
0.01068586138309911
0.010774444977287204
0.010767663398291915
0.01077956372871995
0.010855369481723755
0.010915990867652
0.01085200516274199
0.010802406528964638
0.01074241279391572
0.010796046170871704
0.010839425222948194
0.010827626318205148
0.010794055790174752
0.010743083741981536
0.010697123280260712
0.010727284660097211
0.010807943318504841
0.01089448076672852
0.010825602367985994
0.010649879320990294
0.010508889965713024
0.010452913152985275
0.010442646010778845
0.010435420856811106
0.01041576461168006
0.0103952485951595
0.01036796917906031
0.010308921486139298
0.010259423721581697
0.010266470657661557
0.010278306081891059
0.010247881496325136
0.010189255578443407
0.01013068892294541
0.010132979163900017
0.0101990651874803
0.01021582879824564
0.010157635118812323
0.010132851114030927
0.01017215688014403
0.010201841893140226
0.010165637594182044
0.010063574903178961
0.009950051631312818
0.009885587557218968
0.009885990258771927
0.00994422401767224
0.010020715680439026
0.010048314528539777
0.010031760283745826
0.010041579839307814
0.01008778541116044
0.010109853153117
0.010095188522245734
0.010113991515245288
0.010175658280495554
0.010177427993621677
0.010095386619213968
0.010023011390585453
0.00997129785362631
0.009890251813922078
0.00984738000202924
0.009900327590294182
0.009927463387139141
0.009858233907725661
0.009832120575010777
0.009924745741300285
0.010005325041711331
0.009982505305670202
0.009934425123501569
0.009931271304376424
0.009938873972278089
0.009924073729198426
0.00988411160185933
0.009801739186514169
0.009702678357716649
0.009674507032614202
0.009753286961931736
0.00987937742844224
0.009946819057222455
0.009881252783816307
0.009802626175805927
0.009768734292592854
0.009805324759799987
0.009781755118165165
0.009748528664931654
0.00984991414938122
0.009983615435194224
0.010085221498738974
0.010052373928483576
0.009983321561012417
0.009922789549455047
0.009882253967225552
0.009874953099060804
0.009886048603802919
0.009888018828351051
0.009879737864248455
0.009888287242501974
0.009901640019379557
0.009865730076562614
0.009793664528988302
0.009745570044033229
0.009736090083606541
0.00976225531194359
0.009802394919097424
0.00983281666180119
0.009916748967953026
0.009994116500020028
0.010170758427120745
0.010325384906027467
0.010522436127066612
0.010695160657633096
0.01071809277869761
0.010611676638945937
0.010634106018114835
0.010967718097381294
0.01150588783202693
0.011816690415143967
0.011800768603570759
0.012356174218002707
0.013200060809031128
0.014016204357612878
0.014635435133241117
0.014985351148061455
0.014992369518149645
0.015202448251657188
0.01563512206543237
0.016234998332802206
0.016987854768522083
0.017386695051100104
0.017831421901937573
0.01931008409243077
0.020806650375016035
0.02152261327020824
0.02169111839029938
0.022000401576515286
0.02244731696555391
0.022411392850335686
0.023308395869098605
0.024085466221440584
0.02419171992689371
0.02492301813326776
0.025340762473642826
0.025507336950395258
0.02613188751041889
0.027413020911626517
0.02982840794371441
0.03246828282251954
0.03351959970779717
0.0338697607209906
0.0346078954054974
0.036002243848051875
0.03896088778274134
0.04268896480090916
0.0456715465663001
0.04727853045566008
0.04722908505005762
0.04888942975783721
0.051250713022891435
0.05329756329068914
0.05561534192878753
0.05885806914884597
0.06183064526878297
0.06305759387789295
0.06301201137015595
0.06299214006401599
0.063132701755967
0.064546724925749
0.06734340777853504
0.07019555731443688
0.07199976957403123
0.07311516315909103
0.07440102973952889
0.07581833659438417
0.07699647611705586
0.0780782656930387
0.07911133722402156
0.07990373114589602
0.08042021363042295
0.08030858533456922
0.08158222088590264
0.08438567893346771
0.08777470756322145
0.09030012012459337
0.09109337800648064
0.09176484791794792
0.09306802107952535
0.0937703691306524
0.09395661153364926
0.09479666277067736
0.09524060916854069
0.09522222201572732
0.09542447234503924
0.09627155412919819
0.09724280016263948
0.09716215070337057
0.09879822640912607
0.10170907222433016
0.10458659912226721
0.10620448084082454
0.10644462218042464
0.10665973608149215
0.10739262396004051
0.10893752046395093
0.1105387125024572
0.11110080565791577
0.11136399782262743
0.11222340770065785
0.11371579380705953
0.11559096434852108
0.11653284679399803
0.11680181957315654
0.11816685559228063
0.11944219805765897
0.12044166441308335
0.12138248417293653
0.12209874081192539
0.12234911608044058
0.12267669292632491
0.12344274793751538
0.12436194102745503
0.1252538213529624
0.1258974340185523
0.12626950319856406
0.12689499420812353
0.127517258010339
0.12759092413354664
0.1272232293453999
0.12728792009176687
0.12768860695185139
0.128025828525424
0.1277395337703638
0.12788045152556152
0.1291188625828363
0.13119636673713103
0.13251819036435336
0.1325187139189802
0.13554198559140787
0.13795634583104402
0.13898445362458006
0.1400089555629529
0.14101100062718616
0.1418107684212737
0.14229419888462871
0.14287258067401126
0.14169543706811966
0.13956810228759423
0.13839389653876424
0.13749075860949234
0.14006503201555462
0.14291299229022114
0.14210826613474636
0.14116760730044917
0.1396344052022323
0.13751755261560902
0.13577238579047843
0.1357330681453459
0.13504629425704479
0.1346290155989118
0.13425831624073908
0.13279565128264947
0.13014731015777214
0.12724728805944324
0.12756365849636495
0.1316339750518091
0.1365257436200045
0.13946170688373968
0.13810579847311602
0.13673465232597665
0.13511622759280725
0.13348477251827717
0.13266271653585135
0.13130307760322465
0.13098342838697136
0.13146585501497612
0.13107701126486063
0.13032827887916937
0.12942865052260458
0.1296154458913952
0.13031872222432866
0.1300193186663091
0.13015137562761084
0.12953408191911875
0.12751420201500877
0.12767588381189854
0.127610551265534
0.12648142804624513
0.12571910141967238
0.12646246219286694
0.12641082334565
0.12618818441638724
0.12684251641388983
0.12674853560049087
0.12738384649623186
0.12805195355322213
0.12831044683232903
0.12887777179712429
0.12747951047262177
0.1250041855685413
0.12425690090982243
0.12394149872241542
0.12414661402581259
0.12427888442529365
0.12444208189612255
0.12467391345184296
0.12495110882911831
0.12466775320470333
0.12398278716951609
0.12229941353201866
0.12029598598834128
0.11900343417190015
0.1188742601685226
0.11820643038023264
0.11791842928854748
0.11744692575419322
0.11653089243685827
0.11587646794272587
0.11537777294404805
0.11751086137024686
0.11988738340558484
0.120594093054533
0.11940335308900103
0.11845194647554308
0.11819123181048781
0.1180590246943757
0.11818666299805045
0.11975544498069211
0.12249215875286609
0.12369958261027932
0.123566113084089
0.12585840882966295
0.12737348553258926
0.12720926718553527
0.12747650056146084
0.12903966737212613
0.13099479080410675
0.13203415834577753
0.12942174265626818
0.1279279710049741
0.12983162399148568
0.13424535421654582
0.13677540711825714
0.13578326907241717
0.13865853352006524
0.13902942857006564
0.14254773610271512
0.14919128947192803
0.15362977395765484
0.1567356346664019
0.15550694497302175
0.1525072721624747
0.1525899556814693
0.15189473875332624
0.15060107259079814
0.1505484614195302
0.15223846628097817
0.15397475246107206
0.15317355231614782
0.15407628316665067
0.15547163501614705
0.15535458042519168
0.16138604088220745
0.17102198646171018
0.1766358359833248
0.17337426866171882
0.17229981960495933
0.17183875001734122
0.17315894937608392
0.17495374134043232
0.17539539108052848
0.17518231410998852
0.1755820419243537
0.17734489413443952
0.17877372461603955
0.17935676837107167
0.17986740434542298
0.17970775245921686
0.17979157465975731
0.18015986441401766
0.1810094869043678
0.18015680401585996
0.17927978912135586
0.178263441149611
0.17781405842630194
0.1785194201162085
0.17906266595004128
0.18035852456931026
0.18468368948670105
0.18846445749746635
0.19034569929121062
0.19027254136512056
0.19076591257937253
0.19220663223415613
0.1931052238238044
0.19464803010458126
0.1971439454308711
0.19581584240309893
0.19528826397145166
0.19720129252411425
0.19858813885832205
0.1998191797803156
0.19962775379652156
0.19905288535635918
0.19811493400018662
0.1969111756561324
0.19593983076745644
0.19646101661957802
0.19663252149010077
0.19693068586289883
0.19791904933517798
0.19922216915059834
0.19944941432215274
0.19864907036302612
0.19770558298798277
0.19728697730693967
0.19717799456557258
0.19797964927740394
0.19995053323218598
0.19887263411888853
0.19523163301870228
0.19383077446604147
0.19366015006555246
0.19414713079109788
0.1942698832647875
0.1944867815100588
0.19480153971817343
0.19288302886998282
0.19050868127029388
0.18891244404250757
0.1886888058972545
0.1867918090405874
0.18569677016232164
0.1849135342100635
0.1834271822171286
0.18111105537274852
0.17824415028560905
0.17679995600366966
0.17647825951687993
0.1757065330957994
0.1747374107851647
0.17255260087549687
0.17077817155513914
0.17113593506626784
0.1689615684864111
0.16996192045509814
0.16935766672017052
0.16518346968805417
0.16064106352627278
0.15797573647927493
0.15856261459877716
0.1605995775014162
0.1618497996684164
0.16120078895241022
0.1606963733979501
0.16057303837500514
0.15890481174457818
0.15781689603114502
0.15789549036184325
0.15504834435647352
0.15262458292301745
0.15319386356975884
0.14780013470444828
0.1393675088719465
0.13431474855402484
0.13555357698816806
0.13264222597470507
0.13458986590616406
0.13811730297515168
0.13704081888310612
0.13528873604955152
0.13546555318403988
0.1349207505886443
0.13459537041839212
0.1341017103404738
0.13253508642548695
0.1319885364314541
0.1323903001891449
0.13286414988106116
0.13294273558771239
0.1323006917978637
0.1325731729110703
0.13134973672684283
0.1299613246624358
0.130564435236156
0.13007677536923437
0.12898053298471496
0.1288596925069578
0.12544952027965336
0.12135277946479618
0.12062044711783529
0.12356797208543867
0.1271820604405366
0.13061796785797924
0.13046563531504943
0.12809769747778774
0.1268930702796206
0.12674046696396546
0.12788214325672015
0.13025173930916936
0.13267651052912696
0.13372732396004722
0.13393116702791302
0.13386421841569246
0.1334560433961451
0.13515351648442447
0.13792854586150496
0.1379292086465284
0.1388998657069169
0.14116005588555708
0.1441240255953744
0.1478866633051075
0.15050643777474762
0.15052042375085875
0.1521639514225535
0.1540431759110652
0.15654342921450734
0.15804073475068436
0.15709601929876954
0.15681455805664882
0.15850147077348084
0.15759281774284317
0.15952336006099357
0.16304592435713858
0.16710143322125076
0.16940367653267457
0.16918703427771106
0.16912205692147836
0.1697888948651962
0.1720776540390216
0.1750519380858168
0.17608579969964921
0.17538541612448172
0.178580331124831
0.18075523694744333
0.18011795639060438
0.18208980691153556
0.18224817790091039
0.18463124533183872
0.18544145909603685
0.1831806910969317
0.18096567386062815
0.1785025594360195
0.17853789161657915
0.1779586775111966
0.17611689482349902
0.1734207933396101
0.1708692457410507
0.170018694747705
0.16986278919503092
0.16771775209577755
0.1654673654655926
0.16495017876150087
0.16630288794636727
0.16760087862843648
0.1680125918867998
0.16885553151834756
0.16826827001757919
0.1697060373844579
0.17276663438184187
0.17547720751957968
0.17635988015448675
0.17523205787409096
0.17560880928765982
0.17497339858906344
0.17356733119813725
0.17268749262671917
0.1689918973320164
0.16669705346226693
0.16729409880470483
0.16748932537157088
0.17107409109128638
0.17543234634678812
0.17685090478276833
0.17602778221247717
0.17588882721029223
0.17576839024666696
0.17748971770517527
0.17968323235865682
0.17907012459123506
0.18024168537696825
0.1823191597429104
0.18156305210199208
0.1831431218376383
0.18460111050400882
0.1848261764179915
0.1850123538193293
0.1846002375660464
0.18556359629146754
0.18693948283558712
0.18646603535627945
0.18397658407920972
0.17977879265556113
0.1769350321078673
0.17812353706452996
0.18052462239051237
0.18082994600990787
0.1802037108805962
0.17962591959163546
0.17837342583807186
0.17758746756473556
0.1776904762047343
0.17747358025750146
0.1776307087112218
0.1774797545815818
0.17587898375000804
0.17477318807970732
0.17498099678196014
0.17459280645009131
0.17341786507517098
0.16946203735191376
0.16503882348770277
0.16226793986512347
0.16226669086609036
0.16089705939404667
0.1591481400001794
0.15663495772518218
0.15452624138910323
0.15507769810035824
0.15531077552819625
0.1535641476418823
0.15452594161732122
0.15370115447090937
0.1506203494546935
0.14622872861800715
0.14371077530784532
0.14287972301011906
0.14363378883572295
0.14361806582892314
0.14140480211470277
0.1381987136323005
0.1368550163623877
0.1372578184865415
0.13471298264106735
0.13250032088253647
0.13153142152819783
0.12912700433284044
0.1292198745533824
0.12687520519830287
0.1251140227052383
0.12475099564529955
0.12392838090425357
0.12439656584290787
0.1241053608735092
0.12443137403111905
0.12424065213650465
0.12410537960706279
0.12473192285513506
0.1251116698491387
0.12470121034188196
0.12465000255964696
0.1248620238294825
0.12471056026406586
0.12277871019905433
0.12302485652733594
0.1247252430417575
0.1256435564882122
0.12581701774382964
0.12409206086071208
0.12187015557661653
0.11981681494275108
0.11824047897243872
0.11881546335993334
0.11883295918814837
0.11915853693615645
0.11962639874313026
0.12007447881391271
0.11986600579461083
0.11828675830736757
0.11600663940189407
0.11676432318985462
0.11469957681605593
0.11077632230473683
0.10864259506110102
0.10826585076283664
0.10791270414600149
0.1074694229871966
0.10546290009748191
0.10409080003621057
0.10553949023829773
0.10492326249368489
0.10265515278093516
0.10373801148962229
0.10212955680210144
0.10021626902744174
0.09903642531018704
0.09956092047970742
0.09880023314384744
0.09830259956186638
0.09672545745735989
0.09662727918475866
0.09809134181356058
0.09879736222792417
0.09686405089916661
0.09355695886537432
0.09066861168248579
0.08884557425975799
0.08963672515470535
0.08933966111391783
0.08653899876400828
0.08663028012728319
0.08914246298605576
0.09106146183563396
0.09146909441798926
0.09304269678425044
0.09349282805575058
0.0926863753143698
0.09288533800048754
0.0924958359519951
0.09182558332569897
0.09363513497868553
0.09493459705030545
0.09567707872251048
0.09640130191110075
0.09638036580057814
0.09640163847710938
0.09720953068230301
0.09786798410583288
0.09715813318733126
0.09583544029854238
0.09646213637432083
0.09542380739701911
0.09496430475031957
0.09568044333951548
0.09774342883378268
0.09922548149013892
0.09953946564346552
0.10075106730451808
0.10382323762169107
0.1076430014660582
0.1094672653148882
0.10911334302043542
0.10962568169925362
0.10976203006226569
0.10993008834775538
0.11112021738197654
0.11279107223730535
0.11472138206474483
0.11550526371458546
0.11628754348959774
0.1173353441641666
0.11731074748327956
0.11813378770370037
0.1182318032043986
0.11836563050979748
0.1205595087306574
0.12372783626429737
0.12557881471700966
0.12638992584776132
0.1276616734918207
0.12837546459399163
0.1278543262812309
0.12697602443397046
0.12815836899681016
0.1285882163234055
0.12883643415989354
0.12975178431952372
0.12984548239735885
0.13195018092403188
0.1328000495978631
0.13168482742737977
0.13168791323900222
0.13127199383685365
0.12968260929919778
0.12775908450363205
0.12785146951908247
0.12939999177819117
0.12914964822819455
0.12919473342364654
0.12947785873664544
0.1290884094987996
0.12826157262548804
0.1276824041758664
0.12735707926331089
0.1264860170101747
0.1270912690833211
0.12890238942345605
0.13081119766691698
0.1306285229884088
0.12879841052927077
0.12894025989808142
0.13056189169175922
0.13042077454505488
0.13021057233447209
0.13015013617230578
0.13121241205604747
0.13248490575235336
0.13288995061069728
0.13334471048321575
0.135774151540827
0.13640758472960443
0.13529243984492495
0.13430322475731374
0.1342548703867942
0.1344069988001138
0.13397339114453644
0.13462345368228854
0.1348090894217603
0.13470635954290627
0.13486304257530718
0.13099865158088506
0.12671463430160657
0.12589857453014702
0.1267172618350014
0.12615041667828336
0.12529067374300212
0.1253823983599432
0.12669965975452213
0.12823014150140807
0.12831815748242661
0.1268277032696642
0.1264844326651655
0.12777485134778543
0.1298682168312371
0.1319009821722284
0.13304910700768233
0.13268747645663098
0.13133088156115263
0.131280358992517
0.13244213627418502
0.1333190328651108
0.13538251084508374
0.13649882551282644
0.13548883890965954
0.13330267740646376
0.1320173466182314
0.1319033428328112
0.12998994887573645
0.12628409305820243
0.12310529848793522
0.12290603636298329
0.124637273196131
0.12514462321531028
0.1254271422023885
0.12467387065524235
0.1268633552826941
0.13027502013836056
0.13350443044910207
0.1362154652713798
0.1354964170907624
0.13742078289156778
0.1412721979082562
0.14243327521951868
0.14217947476776316
0.1417406500549987
0.1395168628031388
0.1361199466092512
0.1333916422841139
0.13210591620998458
0.13137334760976954
0.13113148133968935
0.13165983726270497
0.13119521970162168
0.1309449049574323
0.12999358992557972
0.12777525385608896
0.12539344859775156
0.12545236219884828
0.12437960174866021
0.12384115412132815
0.12400592618621886
0.12381549378857017
0.12412215745542199
0.12420706466538832
0.12593459656927736
0.12699921396793798
0.12563231003237887
0.12673591593978928
0.1277260509831831
0.12784019210841507
0.1275597092951648
0.12711057773558423
0.12708544643362985
0.12664119181456043
0.1271605415130034
0.12643166209803894
0.12577627160819246
0.12488544505089522
0.12362269867910072
0.12388980806805193
0.12292346213012934
0.12230591813335195
0.12223051770590246
0.12323807511013002
0.1255435562110506
0.12520583397476004
0.12432467601494863
0.12499929287238047
0.12324850186472759
0.12043168741744012
0.11979729791171849
0.12084246947430075
0.12157899561570958
0.12164998606080189
0.12169375670375303
0.12237511552171781
0.12316045624669641
0.12249525928404183
0.12242155196610838
0.1228473564516753
0.12289048595353962
0.12314479510765523
0.12213883414166048
0.12194797143572941
0.12170132799074054
0.12149353227578104
0.12064150658203289
0.11893285574158653
0.11784997206181287
0.11809947242727503
0.11818142778938637
0.11659422643715515
0.11458136362722143
0.11217083752853796
0.11005254072602838
0.10964929265202955
0.11079188298201188
0.1122697180416435
0.11130322514101863
0.11157717000693083
0.11181741343578323
0.11102356791030615
0.11011015440803021
0.1102964377286844
0.11078210193431005
0.11047801431734115
0.11178985143778845
0.11348725247662514
0.11350416513159871
0.11250751871149987
0.11087863400345668
0.10867002096259966
0.10631809191545472
0.10509636817732826
0.10599834012798964
0.10376287107355893
0.09923962001455948
0.09445569379488006
0.09116532848449424
0.09143470261711627
0.089898362881504
0.08763010340044275
0.08628476845333352
0.0861071768286638
0.08561478949850425
0.08562045190483332
0.08722483514575288
0.08851089019328356
0.08808220896171406
0.08773699541809038
0.08719814627431333
0.08665811694227159
0.08807090631453321
0.08917077872669324
0.08955992934061215
0.08994557555764914
0.09055710354354232
0.09045571237802505
0.0897376747103408
0.08872933338861913
0.08870754247996956
0.08894887968664988
0.08882341601420193
0.08870015767868608
0.08710962001932784
0.08538740119663998
0.08575704120099545
0.08531202904880048
0.08365962882060557
0.08378636779263615
0.0865055715944618
0.08909221300622448
0.09037580351578071
0.09085794840473682
0.09145282918820158
0.09298229006817564
0.09248385442653671
0.09189156254753471
0.094032863676548
0.09601279767462984
0.09707659255946055
0.0963052530772984
0.09560493522556499
0.09539696771651507
0.09368256029672921
0.09337866090005263
0.09416338890092447
0.09397474182769656
0.09450890477979555
0.09578803553711623
0.09489507840946317
0.09322747586295009
0.0923334703524597
0.09315762355457992
0.09412618949543684
0.09446137502556667
0.093654352275189
0.09379899809136986
0.09338558003073558
0.09251648439792916
0.09279715126380324
0.09322292786324397
0.0939126576250419
0.09255847333697602
0.09198923095595092
0.09224973866948857
0.09224969446659088
0.09236027097096666
0.0914529318572022
0.09115928476443515
0.0908097249432467
0.09204102536197752
0.0924507491546683
0.09279557765927166
0.09293661824893207
0.09374209574889392
0.09415463636396453
0.09276628326624632
0.09525839372770861
0.09589580769184977
0.09472482870798558
0.09363531936658546
0.09291101025650278
0.09223094815388322
0.09167975482530892
0.09181556040188298
0.0907713651121594
0.08921882604481653
0.08974405684974045
0.09050561843439936
0.09053245793329552
0.09061504091136158
0.09139709572074935
0.09202309081563725
0.09194199449382723
0.09130868477514013
0.09069586510770022
0.09054270788095892
0.09073119807289913
0.09035917703295127
0.08931549862259999
0.08745559527305886
0.08725423518102617
0.0881106785009615
0.08779723220970481
0.08777526564430445
0.086180327644106
0.08567743054358289
0.08631433370057494
0.08659682519733906
0.08869522793684155
0.09127251725643873
0.0919536947272718
0.09052433491218835
0.08999617483932525
0.09210650135297328
0.0943815435259603
0.09480588521575556
0.0957405102532357
0.09638209859840571
0.09698602709686384
0.09792799181072041
0.09759154117433354
0.09910699567524717
0.09981610730756074
0.10002846717368812
0.10048541956348345
0.10052138172322884
0.10021084735402837
0.09960727601312101
0.09699636958539486
0.09406415347009897
0.09297120570670814
0.09277357049752027
0.09180905426386744
0.09014213410904631
0.08939092444255949
0.08883994319941849
0.08690793343121186
0.08458523323293775
0.08356444489676505
0.08366727771470323
0.08345424751285463
0.08298264521639794
0.08220943158492446
0.08233143962919712
0.08137651515426114
0.08069593642605469
0.08238427701639012
0.08287606821162626
0.0829178517125547
0.08460699032293632
0.08626921024406328
0.08663947441615165
0.08633173733251169
0.08550830755615607
0.08624141936423257
0.08682659959886223
0.08674764610594138
0.08750395036535337
0.08873999955365434
0.08802697714883834
0.08843344095395878
0.09047111341031268
0.09111112476559356
0.0908516039303504
0.09207960631232709
0.09275997910648584
0.09329861880280077
0.09290154272457585
0.09335177559172735
0.09286531171295792
0.09220559904817492
0.09271824821131304
0.09317067285068333
0.0916332515515387
0.08986762382788584
0.08965967641212046
0.0872224795166403
0.08556098825996741
0.0859438714478165
0.08641744818538427
0.08630256175529212
0.08719659657217563
0.08782161632552743
0.08816662507364527
0.08927390788448974
0.09006087460555136
0.08885117835365236
0.08806677361950278
0.08787151280324906
0.08831855406053364
0.08836271726991982
0.08751262701116502
0.08707483216188848
0.08785604418255388
0.08870103528723121
0.08932750306092202
0.09020719388034194
0.09066358927171678
0.09115000637248158
0.09296144109684974
0.09336278541013598
0.09278787578921766
0.09315638323314487
0.09341613101772964
0.0948714788025245
0.09546717601828277
0.09533346644602717
0.0974798437114805
0.09788451256230474
0.09596384261269122
0.0941723866155371
0.09338638564571738
0.09255155577324331
0.089255406036973
0.08647401416208594
0.08586456424556672
0.08499855638016016
0.08439504050649703
0.08343199010007084
0.08207161261234433
0.08258543731179088
0.08189879552461207
0.0819621091010049
0.08144760177470743
0.08045558832585811
0.07989835006184876
0.07990935410838575
0.07983158829621971
0.08042627695947885
0.08094270199537278
0.08103514425456523
0.08094798739533872
0.08132902543991805
0.08179572301916778
0.08209700932726265
0.08241598270833492
0.08222831141203642
0.08279422883875669
0.0838176364125684
0.08491853450424969
0.0850976805901155
0.08686651882249861
0.08871684710495174
0.08800463982857763
0.08743337152991444
0.08702998649794608
0.08497195192147046
0.08312326468992978
0.08356528499629348
0.08307756741065532
0.08195740636903792
0.08114568957593292
0.08099676697514951
0.08099563812837005
0.07997420047875493
0.07927837520372122
0.07922428604681045
0.07889937739353627
0.07794770871754736
0.07761897187214345
0.07611961628776044
0.07431232755072414
0.07344807392451912
0.0739134015981108
0.07394427395425737
0.07303317751269787
0.07301473902072758
0.07360369897447526
0.07348145777825266
0.07324276297353208
0.07390933492220939
0.07369920867495239
0.0739099194854498
0.074412264181301
0.07403214332647622
0.07657638594973833
0.08112628901842982
0.08439134802669286
0.08356753156986088
0.085661805216223
0.08802602386567741
0.08742411835119128
0.08665902965702116
0.08618070261087268
0.08467042714357376
0.08399127324577421
0.08450871402397751
0.08435926937963814
0.08440312198363245
0.0845211798325181
0.08432233805768191
0.0840498111722991
0.08437745358329267
0.0840679641161114
0.08299255807884037
0.08247714436147362
0.08123951917979866
0.08177506176754833
0.08206428290810436
0.08048195576295257
0.07938498849980533
0.07936361982952804
0.07931082057300955
0.07872279054485261
0.0775925683742389
0.07696931331418455
0.07719199209939688
0.07525232378859073
0.07322911047376693
0.07251398658379912
0.07271613120567054
0.07301099229138344
0.07271477239206434
0.07347973893862218
0.07435882568825036
0.07441319575998932
0.07561439631041139
0.07743268675170839
0.07870980450883508
0.07905986659228802
0.07856629056856036
0.07861162053421139
0.0785641459794715
0.07861599338706583
0.07910410498268902
0.07888531509321182
0.07898231083527207
0.07902692643459887
0.07808035779278726
0.077677166252397
0.0777868836466223
0.07874830897431821
0.07880867481231689
0.07951496364083141
0.08194821431767195
0.08375699367374181
0.08411741205491126
0.08450847001746296
0.08446693052537739
0.08389478155877442
0.08375728464219719
0.0826407570624724
0.08224910663906485
0.08345342272892595
0.08375060067046433
0.08366248067934066
0.08408543421886862
0.08549327563028783
0.08625511372461915
0.0858609735686332
0.08552851795218885
0.08514305961318314
0.08448194213677197
0.08500539802480489
0.08648709208704532
0.08754441706929356
0.08730786174535751
0.08647920758929104
0.08621074338443577
0.08662639337591826
0.0867552824318409
0.08721659598406405
0.08775363677181304
0.08763279334641993
0.0869617726560682
0.08732853980734945
0.08706643977668137
0.08674160034395755
0.08785871785599739
0.08911400369368494
0.08941290948074311
0.08923085294663906
0.08911089965607971
0.08865880325436593
0.0892889998992905
0.08828490938059985
0.08421878153458237
0.081513751745224
0.0823316899081692
0.07981964047066867
0.07771861687302589
0.07722141540609301
0.07804332945961505
0.07786837639287114
0.07772324536927044
0.0779844115767628
0.07765531973447651
0.07874868367332966
0.08006191447842866
0.07954753265716136
0.07973523584660143
0.08020654567051679
0.07994810936506838
0.08034013731405139
0.08045879804529249
0.08106684891041369
0.08221739924978465
0.08117999061476439
0.0806907509593293
0.08117482780944556
0.08087850533891469
0.08134796886704862
0.08118666303809732
0.0823277948750183
0.08356178862042725
0.0830577286100015
0.08436900429427624
0.08563157708384096
0.08604105865117162
0.08678520444314927
0.08756506611593068
0.08773808762896806
0.08923568498808891
0.09130301094148308
0.09151752450503409
0.0926134319929406
0.09345154083799571
0.092363595161587
0.09201458842493594
0.09241764454636722
0.09274298761505634
0.09308716705534607
0.09307552434504032
0.09284227204043419
0.09251124228816479
0.09305054683238267
0.09386349099688232
0.09450117117259652
0.09538966264110059
0.0959653592761606
0.09575286832172424
0.09544100580271334
0.09660613873507827
0.09768571962136775
0.09700084366835654
0.09611347079742699
0.09599953819531948
0.09565169190056622
0.09512529510073364
0.09480839253403246
0.09513027375563979
0.09413333356846124
0.09363559822551906
0.09370322133414448
0.09339745613746345
0.09484953690785915
0.09651677531190217
0.09575040858238935
0.09630936156027019
0.09857205872423946
0.09981599628459663
0.10012663365807384
0.10093544110190124
0.10053261052817106
0.09894251177553087
0.0978020783374086
0.09791938721202315
0.09845184908714145
0.09849896446801722
0.0982954488368705
0.09832305047661066
0.0976858359389007
0.09735297192819417
0.0975527207693085
0.09805884684901685
0.09847943283151835
0.09883622826077045
0.09846882058307528
0.09687302782665938
0.09527662511914968
0.09428892904892563
0.09361988253425807
0.0936560151912272
0.09429757948964834
0.09396005445625633
0.09240922309458256
0.09187242708634585
0.09079156421590596
0.08985667629633098
0.09029405822511763
0.09149199821054936
0.09347126921173185
0.09440092084463686
0.0946874646609649
0.09525937791448086
0.09616427575238048
0.09733847736380995
0.09687092099804431
0.09567325705196708
0.09551430772989988
0.0954053180012852
0.09572992824483663
0.09534450799692422
0.09445176563691347
0.09488931752275676
0.09379551822319626
0.09247639215085655
0.09249167315661908
0.09187426882330328
0.09172884356230497
0.09250093404203653
0.09187099321745336
0.09243304127827287
0.09213107177522034
0.09126398979220539
0.09109600204974413
0.08934623122680932
0.08768940114416182
0.08694131214637309
0.08655902691651135
0.08623170189093798
0.0869773116381839
0.08601130804978312
0.08306887616403401
0.08165406841784716
0.08158963203430175
0.08081269775982947
0.07993455160409212
0.08062896589748561
0.08085883568506688
0.08064769943710416
0.0796523734787479
0.07941631468944252
0.08041555517353118
0.08037370359525084
0.07952201622538269
0.07867302872706204
0.07776838529855012
0.07715573520865292
0.0772045465093106
0.07889757911209017
0.07978915186133236
0.07874313946813345
0.07667624728288501
0.07467047464568168
0.07391828135587275
0.0749728080118075
0.07526432348880917
0.07477741311304271
0.07450991090852767
0.07453831165097653
0.07499236389994621
0.0752128647081554
0.07501620854251087
0.07482593098189681
0.07519068284425884
0.07465298733208328
0.07470199810806662
0.0724557658424601
0.06933685697615147
