0.010194519280921667
0.010168457685504109
0.010151710028294474
0.010140654772985726
0.010110632171854378
0.01006440383847803
0.009998180733527989
0.009918015087023377
0.009881027305964381
0.009906448130495847
0.009934524728450925
0.009919116874225437
0.009868122320622206
0.009820012766867876
0.009826538786292076
0.009897136262152344
0.009963793049100786
0.009983465299010277
0.009998388544190676
0.010016144781839103
0.009988939729519189
0.009936574175953864
0.00991364237619564
0.009920519841834903
0.009961421161424368
0.010043265437707305
0.010103194550611079
0.010086550239939242
0.010025605238042771
0.009951839707791805
0.009855756268370897
0.009782831512857228
0.009803065289743245
0.009867684736382215
0.00987282710848376
0.009837915527168662
0.009854906280525029
0.009923313350882382
0.00997978770174086
0.010015728992875665
0.010041781670879572
0.010015843957662583
0.009928381899371744
0.009846052236389369
0.009805544060654939
0.009789559177588671
0.009789089013356716
0.009820217271335424
0.009855601268354804
0.009800175798591226
0.009661183983553201
0.009591217385604978
0.009653976003173739
0.009752945627551525
0.009805711000226439
0.009818769828416406
0.009813599879853427
0.00979584839195013
0.009796935438644142
0.009861009395681321
0.009947332534939051
0.009944051639176905
0.00985788855701685
0.0098248603194952
0.009880778919905424
0.00994178500957787
0.009974073530174791
0.009979337248951196
0.009930391439702362
0.009848399758338929
0.009807982612401248
0.009816551359836011
0.009813166284002363
0.009788163085468114
0.009782930463552475
0.00979486778145656
0.009792802829761058
0.009795726891607046
0.00982313276734203
0.009818826988339423
0.009752944747451692
0.009700289510656148
0.009738891546148806
0.009860603942070157
0.009929108635988086
0.009954952269326895
0.009937110866885632
0.009950346569530666
0.009976729298941792
0.0099592403951101
0.00992300660116598
0.00994732608087361
0.01001722619868815
0.010027385151479393
0.009940283063333482
0.00982757007703185
0.009777324390597641
0.009804329350590706
0.00982407983392477
0.009836522473488003
0.009841758119873702
0.009843287866096943
0.009818818962667137
0.009799602814018727
0.0098135710763745
0.009820702050346882
0.009822485714685171
0.009876062923576684
0.009964698830153794
0.010025650672614574
0.010060309157706797
0.010095631908625365
0.010114731958601623
0.010094841159880161
0.010043928823433817
0.009976640357635916
0.009906535148620605
0.009841490618418903
0.00978093717712909
0.009761914403643459
0.00983540820889175
0.009965069240424783
0.010071215811185539
0.010147153579164297
0.01020662706810981
0.010225529856979847
0.01021803060779348
0.010236506292130798
0.010285320226103067
0.010332209358457476
0.010375761680770666
0.0104230403364636
0.0104362239735201
0.01039197890786454
0.010351309163961559
0.010378247133921832
0.010437146220356226
0.010440688773524016
0.010378806400112808
0.010335440982598811
0.010356843234039842
0.0104088598000817
0.010467166737653315
0.010522260046564043
0.010540353481192142
0.010501430367585272
0.01043223324464634
0.0103761486383155
0.01036031687632203
0.010386987240053713
0.010414661173708737
0.010389739617239683
0.010323069777805359
0.01027200864860788
0.010263539620209485
0.010272125783376395
0.0102671272540465
0.010254880806896835
0.010244335264433175
0.010217379154637456
0.010171526717022062
0.010149010010063648
0.010164035053458064
0.010153650175780057
0.010091960178688169
0.01005680485162884
0.010096674694214016
0.010157389480154962
0.010192394214682281
0.010216590475756675
0.010234567935112864
0.010235029668547214
0.010242041684687137
0.010262713842093945
0.0102442376781255
0.010184824327006936
0.010163517114706337
0.010187907866202295
0.010194165261927991
0.010194769436493516
0.010214600651524961
0.010188744745682925
0.010086391952354461
0.009981472985818982
0.00996297515463084
0.010043083492200821
0.01012642048066482
0.010122909357305617
0.010072035298217088
0.010069216466508806
0.010108655313961207
0.010104972780682146
0.010071385572664439
0.01009018118493259
0.010131296012550592
0.010122782483231276
0.010095145818777383
0.01010636325692758
0.01013922224054113
0.010136612907517701
0.010071503927465529
0.009978544688783586
0.009949933711905033
0.010034660454839467
0.010152713689021766
0.010205057938583196
0.010205054751131683
0.010203863882925362
0.010174633441492916
0.010091600962914527
0.010004132941830904
0.009951343417633325
0.00994842306477949
0.010011475286446511
0.010101921861059964
0.010163641755934805
0.010223215185105801
0.010346802370622753
0.010489115486852824
0.010494464416988194
0.010336002146359533
0.01020284661790356
0.010218735218513757
0.010276493858546018
0.010251146098598838
0.010178921255283057
0.01015596698736772
0.010169394908007234
0.010140863358974456
0.010097798549104482
0.010109795585740357
0.010121594516094774
0.010061373736243695
0.009995718069840223
0.010014280856121332
0.010083074599970132
0.010118981306441129
0.010114291647914797
0.010094043544959276
0.010040264478884637
0.00996673540212214
0.009947951033245772
0.009986411028075964
0.010004413770511747
0.009987578405998647
0.009986687051132322
0.010016366008203477
0.010059196925722063
0.010102695133537055
0.010125786946155131
0.010112638720311224
0.010070941336452961
0.01001766201807186
0.009982079220935702
0.009976727678440512
0.009952185007277877
0.009880620075855405
0.009822114170528948
0.009795718952082097
0.009739749901928007
0.00966929635964334
0.009678189822006971
0.009778881859965623
0.009880238857585938
0.009895465399604291
0.00983094554161653
0.009760276558808982
0.009710786261130123
0.009656591003295033
0.009602361014112831
0.009581332355737686
0.009595571951940655
0.009611443956382573
0.009623095742426813
0.009666192715521903
0.009727126290090381
0.009746310005430131
0.009739179769530893
0.009765667212195694
0.00980350974947214
0.00979438476031646
0.009755610493011773
0.009751482859719544
0.009810990842524916
0.009885140657424928
0.009897482281085104
0.009863506460096687
0.009857281532604248
0.009897689858917147
0.009959618339780717
0.010017557325772941
0.010052823475562037
0.010045444727875292
0.01000127797946334
0.009982645555865019
0.01001435067737475
0.010029026789125055
0.009999469476751984
0.009988623957615345
0.010019873490091414
0.010061500801239163
0.010120839797891676
0.010176403417717665
0.010137196646537632
0.010003424123860896
0.00988209000090137
0.009824641293380409
0.009799970644526184
0.009784710113890469
0.009783270852640271
0.009800776904448867
0.009858773457817733
0.00994898081291467
0.009983136104419827
0.009923637290485203
0.009862732901237905
0.009861030608881265
0.009853259758092463
0.009809361251536758
0.009832281088456511
0.00995397818973288
0.010023145121522248
0.009960617739707231
0.00988739195279777
0.009902499925810843
0.0099452309217304
0.009914310765452683
0.00983403553487733
0.009815152818337083
0.009848562174011023
0.009835463222116233
0.009805381300393491
0.009845429165288806
0.009897479896899312
0.009860610165633261
0.009775209412910045
0.009735456029884517
0.009746219334192573
0.009766423155087977
0.009777807097416371
0.009766040095128119
0.009720023041591048
0.009666910662781447
0.0096449158876203
0.009653523275628685
0.009681763802655041
0.009726046533323825
0.009759639201220124
0.009759252115618438
0.009737047532107681
0.009723831289447845
0.009739951347000897
0.009760087283793836
0.009742258344776928
0.009703741720877589
0.009712215391919016
0.00978186349850148
0.009845068817958236
0.009879748963285237
0.009938963972963392
0.01001250552944839
0.010027993959374726
0.009981205016374587
0.009934637409169228
0.009940425327513366
0.009993289953563363
0.010039448405150324
0.010066475200001151
0.010096084924880415
0.010096954361069948
0.010037085872609168
0.00995662428671494
0.009907484122086316
0.009892263179644943
0.009891965973656625
0.009893321366980672
0.00988539653364569
0.009870767903048545
0.009865240370854735
0.009878847149666399
0.009914780079852789
0.009963016051333397
0.009987442651763559
0.009954330152831972
0.00989207548322156
0.009868328000884503
0.009874531191308052
0.009839460724033416
0.009762688556220383
0.009706102146301418
0.00969150673598051
0.009714284972287714
0.009794481100980192
0.009893013008404523
0.009885839067865164
0.009776288636494428
0.00973075250396505
0.009797680622432381
0.009862812059000135
0.009888474333565682
0.009948470764793455
0.010033188909292222
0.010038189745973796
0.00998352526454255
0.01000566758448258
0.01011365962214768
0.010171152886468917
0.01011289635207504
0.010098711252212525
0.010047551090829075
0.01006580082932487
0.010061899565625936
0.010000390596687794
0.009959501642733813
0.009986065772827714
0.010030417207162827
0.010044310064986349
0.010014478915836662
0.009957583306822925
0.009918566010892391
0.009919829240534455
0.009949770006351173
0.009984387620352208
0.01000683658523485
0.010022284449078142
0.010019028568640351
0.009978833389468492
0.009937559410464019
0.009939686660654843
0.009964987598359586
0.009941269063856452
0.009836445695254952
0.009741118822712452
0.009768791450187563
0.009875278405379504
0.009915049078408629
0.009880667412653565
0.009902140817139297
0.00999446384375915
0.010044466243125499
0.010032043170649558
0.010020721156615764
0.010006641624495388
0.009971926112193615
0.009957936990540475
0.009985735907685011
0.010038601483684033
0.010110155276488514
0.01018843511119485
0.0102455487055704
0.0102562374365516
0.01022899425122887
0.010219793526921421
0.010251182769425214
0.010251040663570165
0.01015979957766831
0.010062054882291704
0.010092288362793625
0.010226940945722162
0.010313163266982884
0.01028283234219998
0.01022500335937366
0.010238590715453029
0.010295451688580214
0.010314997429959475
0.010282330899499356
0.010218652042094618
0.010132484354544431
0.010082670317497105
0.01005523988744244
0.010082729358691723
0.010106007102876902
0.010090279383584857
0.010052012505475431
0.010010373734403402
0.00997697192709893
0.009946719869039953
0.009901063821744174
0.009864892503246665
0.009875516567844897
0.009901240828912704
0.009905469859950245
0.009912820821627975
0.00993549452163279
0.00995327194686979
0.009968277227599173
0.009988076579757034
0.009998721431475132
0.009990255024749786
0.00997824901714921
0.00998508264310658
0.009980134430807084
0.009905381426215172
0.009832069326657802
0.009909771443344652
0.010084124840795993
0.010152699938043953
0.01008966019609943
0.010013200908433646
0.009937118850648402
0.009789800245780498
0.009602424106560647
0.00951246209209785
0.009555269586853684
0.009598301721271128
0.009561649889219552
0.009543235893361271
0.009638497086707503
0.009719514523167163
0.009851932153105735
0.009884213064797222
0.009874986694194376
0.009875340932048858
0.009887733347713947
0.009914614465087653
0.009941358936484903
0.009936260282993317
0.009909370597451925
0.009894952748436481
0.009895841842517256
0.009906751217786223
0.009934124378487468
0.009960065092891456
0.009954655240289868
0.009925240804441272
0.009915480744093657
0.009945710606407374
0.00995809877756983
0.00994213047903031
0.009860905106179416
0.009887939759064466
0.010003634637687355
0.010081113029737026
0.010058709806762635
0.009973507581744343
0.009885753812268376
0.009814514159224928
0.009759258078411222
0.009754297786857933
0.009798441987950355
0.009817421343177557
0.009812039660755546
0.009874846257735043
0.009998448111582547
0.010064127361401916
0.010020155692473054
0.00989477486582473
0.009707790142856538
0.009573527839966118
0.00949765185592696
0.009555869083851577
0.009632776379585267
0.009646219296846538
0.009635688860435039
0.009677349384874105
0.009798831830266863
0.009925227584317327
0.009942865420598537
0.00986744803842157
0.009820288030896336
0.009847679215017707
0.009886803857516497
0.00988183427369222
0.009856047960929572
0.009847590900026262
0.009840750144794583
0.009822072733659298
0.009833767584059388
0.009877651997376233
0.009971233927644789
0.01001912452513352
0.010042685770895333
0.010106222939211875
0.010205909600481391
0.01028289046138525
0.01031746422406286
0.010359600193332881
0.01044329759432003
0.010517506443429738
0.010533270398154855
0.010525788879022002
0.010526627178769558
0.010501490645110608
0.01044985347893089
0.01043197319842875
0.010453272487502545
0.010458347168751062
0.010439985466655343
0.01044287884607911
0.010479174696374684
0.010514590283855796
0.010540432995185256
0.01058190405368805
0.010600619574543089
0.010528709518257528
0.010410327555146068
0.010349421801511199
0.010376657017040998
0.010445934287272394
0.010485961742233485
0.010495224986225366
0.010559349185787142
0.010664861255791039
0.010680317950900645
0.01061202100245282
0.010610499118920416
0.01069162227679044
0.010707059458363801
0.010616057966835797
0.010564510247204452
0.010628243123646826
0.010693213967606426
0.01067971352254972
0.010661393324844538
0.010684822832699866
0.010675156116485595
0.010589797769207508
0.010514517137780786
0.01051443180302158
0.010518136902246624
0.010455552209168672
0.010354320360347629
0.010257149524986743
0.010198088253382594
0.010206279074773193
0.01024293890921399
0.010242948287632316
0.0102370327222161
0.010248658596538007
0.010363038394134492
0.010441543713677675
0.010433174341451378
0.01034464401891455
0.010269924162421375
0.010201189091894776
0.010244331206195056
0.010356364247854799
0.010404172749258579
0.010319291239138693
0.010220560936722904
0.010245209680870176
0.010318439062684774
0.01031119261169806
0.010270747786853463
0.010290600722655655
0.010350746598560364
0.010411272807978093
0.010488797619473189
0.010526111803483219
0.01057675007963553
0.010551189316902309
0.010489667505025864
0.010468841064721346
0.010511496306862681
0.01055472917156294
0.010552371041849256
0.010549067449755967
0.010567166733089835
0.010556518975645303
0.010514773111790419
0.010476423434447497
0.010421042344532908
0.010354324812069535
0.010335731855593621
0.010357375065796077
0.010378789140377194
0.010408422746695577
0.010431361247319727
0.010413442358840256
0.010386260857339949
0.010386814088560641
0.010387076907791197
0.01036075631622225
0.010309940003789961
0.010239615614991635
0.010180845062714071
0.010154916062019766
0.010140498888213188
0.010130867124535143
0.01011987704783678
0.010073352188337594
0.010004801189061253
0.00998056918149814
0.010013339079450815
0.01003305017016828
0.009987456547096372
0.009921416165307164
0.009903859156183898
0.009918482000939548
0.009903755269479007
0.009853342520073057
0.009798503525089472
0.00975495288381353
0.009748612237162889
0.009817984611727297
0.009949848379474133
0.010064853627700359
0.010096897035837174
0.010072029738221317
0.010083603856619447
0.010170292344409972
0.010252050550188869
0.010253256426658482
0.010219187107868493
0.010211369120515883
0.010194268350023777
0.01013171108905226
0.010086851785890758
0.010102709583006799
0.010094197439029813
0.01000171944964677
0.009915989097207785
0.009919614982791244
0.009954201385844498
0.00993374832905829
0.009867725314106792
0.009830894686747343
0.009842814987059682
0.009829658612143249
0.009770460673607886
0.009740593296010047
0.009775298137683422
0.009838598207570612
0.009855106293689459
0.009771599706728012
0.009676633991766721
0.009715117714367807
0.00986649312544614
0.00997662240639329
0.00996137079782784
0.009869023056235165
0.009791938525158911
0.00978481952799484
0.009799667913466693
0.00985328886192292
0.009829035801813006
0.009775121870916337
0.009789127572439611
0.00986572622321546
0.00990764883812517
0.009854834689758719
0.009754631572868676
0.009683108953759074
0.009657239331863821
0.009660316298250109
0.009656304328236729
0.009602295642253011
0.009524373752065003
0.009488274112809449
0.009498094241134823
0.009522213339805604
0.009556018749717623
0.009587418609298766
0.009578958346974104
0.009540402898564934
0.009504821139853448
0.009434921890497208
0.009332099882885813
0.009303516212385147
0.009365720856003464
0.009437024190556259
0.009499209485948085
0.009527017087675631
0.009484856768976898
0.009448142927139998
0.009472889404278248
0.009499764463398605
0.009500430901534856
0.009500398794189095
0.009487156511750073
0.00945281476015225
0.009419114340562373
0.009383166360203176
0.00936526185600087
0.009397149260621518
0.00943232787773013
0.009432092292699963
0.009412106040399522
0.009366547362878919
0.009324761980678886
0.009347377775702626
0.009393340137321501
0.009389275622088461
0.009368148711510003
0.00939200353110209
0.009448343904223293
0.009504301121924073
0.009568083263002337
0.009641335273627191
0.009691046469379216
0.009717094246298075
0.009776650844141841
0.00989654840203002
0.009994795664679259
0.009958521826192737
0.009820353514514863
0.009727841070853173
0.009722881463821977
0.009736346618738026
0.009751383762340993
0.009774568011052906
0.00976340398658067
0.009720022631809115
0.009698951879981906
0.009712252772878856
0.009752323292195797
0.009807603789959103
0.009823123558890074
0.009777220517862588
0.009739507874473929
0.009756518921349197
0.009783227976877243
0.009756783230695874
0.009663822399452328
0.009574632698204369
0.00958869440248236
0.009682040303014219
0.009743017917498946
0.009749085844960063
0.009743182694073767
0.009717232440598309
0.00970942408312112
0.009721557507291437
0.0097213250445202
0.009725880641490221
0.009764258640352637
0.009777946930844337
0.009682607324793934
0.009550145294051618
0.00945817219791934
0.009493924719281495
0.009589830816257744
0.00965435292571783
0.009652589655015618
0.009643139764666558
0.009689048121217639
0.009737075828015805
0.009715984752401709
0.009667768583167344
0.009665038308594377
0.009715817430987954
0.009794447338208556
0.009856223419774324
0.009836855754256248
0.009740318960975856
0.009693597026634962
0.009793455717153848
0.009943635230883955
0.009984879672992974
0.009925705001223832
0.009906193215865642
0.009963141151238232
0.00998766765696928
0.009935487548355014
0.009886073782108724
0.009896068419329822
0.009960577157326043
0.010030183957424015
0.01001043983269483
0.009887273255735636
0.00978070054668933
0.009780798917636275
0.009859460401348769
0.00993272779043764
0.009949655858799816
0.009957878119312227
0.010015721006784589
0.010073915449902415
0.01006604844937101
0.010022109015844763
0.010001359120942653
0.010009347901213914
0.010016849481035024
0.009996368978172541
0.009956898826640099
0.00994826283538714
0.009977495924104005
0.009992815516889096
0.009992434470914304
0.010018468007910997
0.010073644754011185
0.010138096718583256
0.01017337845871225
0.010126648978330195
0.010013183359988034
0.009914529977831989
0.00986802453873679
0.009845159421674908
0.009831012599170208
0.00983933123992756
0.009858698507305235
0.009850680485833437
0.00980319757014513
0.009749607052654027
0.009721519860904663
0.009705778195057064
0.009676607148721815
0.009643787103705108
0.009635496195405721
0.009651507078669965
0.009660595711320639
0.009642845222260802
0.009616834688931703
0.009624149901792407
0.009674244604539126
0.009714263749774545
0.009710009975824505
0.009702196505386382
0.00971475695259869
0.009717141850851476
0.009701774863060564
0.009687784381676466
0.009687081479933113
0.009709508270025253
0.009742427130695432
0.009769462512340397
0.009818594411481172
0.009917407061439008
0.010038655723910779
0.010105942515656352
0.010099897449836135
0.010050187991000712
0.010026144252624363
0.010058164824731647
0.01012078977189958
0.010148106929846109
0.010133591555058956
0.010156534528359771
0.010207039937376976
0.010275879872497172
0.01029726632637903
0.010306801341939717
0.010346032036468387
0.01041164099937305
0.010455978587269783
0.010449203816242515
0.010409803248476237
0.010359162124805152
0.010316776754334568
0.010313409850932658
0.010339083336293697
0.01034160183276981
0.010309048206545412
0.01028581827878952
0.010293017099611461
0.010287702823989093
0.01024149738252163
0.010213711604010314
0.010262256944552064
0.01032608981942758
0.01031943405047059
0.01027611706405878
0.010264848340302706
0.01027192470850423
0.010270379788707942
0.01027852397877723
0.010294288797304034
0.010285634021274746
0.010275525839533657
0.010317114640492946
0.010374170220457017
0.010369933813344688
0.010337460769806057
0.010366562146227807
0.010428742950316518
0.010412535353098065
0.010326879217755049
0.010299463078845293
0.010367175093851983
0.01044592602411285
0.010491948544513434
0.010538523222785444
0.010600035428069532
0.010639518408570438
0.010631343964487314
0.010597527369391173
0.010575592631939799
0.010591927526984363
0.010625919692683965
0.010601525774691254
0.010494817246217281
0.010394653640687465
0.010395303438417613
0.010485717984847725
0.010585524435155093
0.010664159250445664
0.010743019990622998
0.010793709638528525
0.010758985937573016
0.010663508160505444
0.010599365215748549
0.010603002002462746
0.010620977547951042
0.010622312990017235
0.010637558097951114
0.010651917043142022
0.0106244148616679
0.010591413090005518
0.010597945838235319
0.01062365506310016
0.010648235944099724
0.010674281944520771
0.010687040782067924
0.010676168878562748
0.010666362720075994
0.010679511418566108
0.010702528071124106
0.010724219316616655
0.010755236533004791
0.010775775187648834
0.010751539980992675
0.010708909367676824
0.010682326732203365
0.010679811504669488
0.010737627081107348
0.010820682779885828
0.010789617034606635
0.0106265375809744
0.0104904341022484
0.01049802352907136
0.01059150118380785
0.010653919528704137
0.01067159921862185
0.010681712222285568
0.010682736486196519
0.010689508544746786
0.010722995824180544
0.0107694204733707
0.01082080445950851
0.010853110780008137
0.01082259381422773
0.010749519327655435
0.01070397515548393
0.010720040875021368
0.010764177446253598
0.010776081499643623
0.010779118326026946
0.010866793189197779
0.011004724132362753
0.011037060054950415
0.010946809891611337
0.010863726576790213
0.010827478456776589
0.01079301444813609
0.010783280616160483
0.010832543368451297
0.010878853462636472
0.010835360032506286
0.010719281774945556
0.010633211308158934
0.010600137342698872
0.010550694330595434
0.010495630167424679
0.010498825272079557
0.010529545978643
0.010526998005807399
0.010509910937398672
0.010538357181940228
0.010627349340356886
0.010708240810781717
0.010727772903628648
0.010738070297520608
0.01077321273740381
0.010793071361258627
0.010795607811305672
0.010805304176174105
0.010803444518242031
0.010769970200490206
0.010715803697239608
0.010656143112573773
0.010604752944782376
0.010563081428408623
0.010513667990453541
0.010471821585670114
0.010482221154961734
0.010521500639151781
0.010512040336616338
0.010444547983352094
0.010383948048111052
0.010390821364708244
0.01045479958411306
0.010485030403360724
0.010428805856499822
0.010334305705036968
0.01024637549649924
0.010167105372529477
0.01011266496265307
0.010100583746097982
0.010130240612197668
0.01018428958253935
0.010206589109729975
0.010151718284469098
0.010048694785218686
0.009965259388554842
0.009954156789463013
0.010017587444745004
0.010085805563721805
0.010087519192602486
0.010038331535179168
0.010002533383667469
0.010006780747789889
0.010036720745265484
0.010071673160418869
0.010078211142681539
0.010017661976162344
0.009914627335965633
0.009862239810172469
0.009898703498765826
0.009963176655583083
0.01001399774570018
0.010062585801351815
0.010114771318621934
0.010185843396466226
0.010253983256407083
0.010232897815294564
0.01016124801710248
0.010199970141984522
0.010328414894174784
0.010370891385246068
0.010324362849351018
0.010326268188655376
0.010376462717540563
0.010380546669475734
0.010354665950872003
0.010351478278171272
0.01032432190142572
0.010235545262694358
0.010141380459535866
0.010087751934770494
0.010072852508164943
0.010102403645869345
0.010157776474952697
0.01016597538953647
0.010081873012240975
0.009974230588413775
0.009968052313197404
0.010057962166611105
0.010091973915696145
0.010019373770337552
0.009963931029196828
0.009984479823615403
0.010002026646398009
0.009982725391164422
0.009956467053852976
0.009914137737359852
0.009848980873357505
0.009804013646207749
0.00983523458475247
0.009954743986018002
0.010080621738452464
0.010114550637081266
0.010077795763500035
0.010070303627289832
0.010117772724479437
0.0101474490435794
0.01012009008321911
0.010080940162297339
0.010049701631069184
0.010007712317164987
0.009990043588913977
0.01001087635057047
0.009997031630482524
0.009929496166296303
0.009867957052774727
0.009844951801933349
0.00987493657041341
0.009945346498861909
0.009994575940072536
0.010004775754641742
0.010019166043493897
0.010041033942252397
0.010047877018805593
0.010060881972312927
0.010094911325722933
0.010125524327158929
0.010134966622572392
0.010119362976402044
0.010100506029557437
0.010126688212621957
0.010178568062838168
0.010190445196349174
0.01019812083337456
0.010268240189179777
0.010363635465037078
0.010436914574820549
0.010468826706055551
0.010427530109882354
0.010363805738743395
0.010366763330530375
0.01039164985064417
0.0103409550874494
0.010260526763740927
0.010276244760025293
0.010379124290775508
0.010449934983626008
0.010457298839464784
0.010471103952731937
0.010531927845440804
0.010608707908540965
0.010638100621290504
0.010587336956523358
0.010510715267155319
0.01049289284273982
0.010531975333578884
0.010553414737805723
0.010505488601047545
0.010390112395398318
0.010266978265717626
0.010216279982123523
0.010234651903156191
0.010250839740037918
0.010242044827900827
0.01022911331616342
0.010213720311876387
0.010169697988312692
0.01007342107128352
0.009960702313110232
0.009901177701540292
0.00989933313569054
0.009897518276702613
0.009856880914885551
0.009794433652423322
0.009758115995209664
0.009779300866648554
0.009852150860242546
0.009939119508489967
0.010004854251164944
0.010029800063930451
0.009990123608149588
0.009914235398173332
0.009893276391085237
0.009932440852280707
0.009944171879906207
0.00993308347184211
0.009961567409336567
0.009972003176808358
0.009888766473159194
0.009775476560462267
0.00969896385911852
0.009641989457886666
0.00959224727237597
0.009649329716339708
0.009789232744369656
0.009914772561751306
0.009986813641153275
0.010009293423499911
0.009998371142428368
0.009975500202272088
0.009940516983624548
0.009890842854510994
0.009864760185591877
0.009898801629897208
0.009940080558881164
0.009918075921013951
0.009881576942279934
0.009900759148877114
0.009936350490897894
0.00992508847732097
0.009853953800629825
0.009757146625779568
0.009711048945318908
0.00974172936519608
0.009785875594243407
0.009813320359680801
0.009841229745652526
0.00984303157310933
0.00981448097154498
0.00982323059812188
0.009885669061914086
0.00992618093965575
0.009898622750770301
0.009846006010193378
0.009815992361400277
0.009791772956959903
0.009747578238602728
0.009725415513385087
0.00976253257598728
0.009794213536661118
0.009772662287577987
0.009767086554784327
0.009812187599018217
0.009825943857431413
0.009769806042313575
0.009711935680825264
0.009682722259312868
0.009660096215084195
0.00966015461133793
0.009670612197369336
0.009637828732375056
0.009608103833161295
0.009687288624700158
0.009815288167446852
0.009816052259411663
0.009699309733696282
0.009621796270366759
0.009604660093318671
0.009563358186278492
0.009493606847245246
0.009456808420363814
0.009483289106283337
0.00954872956033796
0.009595835262443871
0.009598151012323797
0.009586472294759006
0.009586596246808767
0.009625206973869354
0.009741634549573063
0.009891886338591576
0.009958269498310983
0.009908197217155247
0.009853230018634349
0.009884169702418148
0.009923839792609215
0.009882806993555277
0.009837326556444169
0.009876816770993174
0.009943700497969984
0.00997097082901746
0.009996257757302373
0.010054529043845833
0.01012709410628304
0.010204910633619875
0.010275988918729127
0.0102923562284559
0.010224631601013244
0.010126855550333857
0.010080196629278362
0.01009627726394683
0.010147838643752039
0.010183163878973573
0.010127805459778755
0.010039547479245813
0.010079233963042498
0.010205770165193827
0.010217339878436179
0.010130063078831882
0.010129912288393826
0.01023014534264803
0.010336265300866216
0.010426138809416443
0.010504299451131374
0.010475875057745726
0.010392899264115841
0.010402307277545333
0.010512885916978121
0.010607081805355847
0.010634852370712907
0.010619661686941981
0.010571038136258721
0.010521176080219448
0.01051756961736828
0.010533701241947711
0.010527805960737168
0.01052894388558343
0.010549208784941583
0.010548212381545454
0.01053290037671104
0.01056126448791474
0.010640758818481118
0.010690476936288178
0.010653581053484231
0.010594476896803826
0.010577083702664823
0.010543491921853275
0.010436048384290188
0.010331408777274191
0.010318590558599681
0.010348542486317456
0.010342016208451241
0.01033402611501515
0.010400805610697717
0.01051862707361579
0.01058198971208185
0.010550606197211891
0.010496871178038419
0.01044154454721138
0.01040408394066617
0.010392255336046218
0.010382356839254498
0.010342658977024258
0.01030362353194505
0.010311506297439337
0.01033994200406596
0.010327478509861977
0.01030400734161958
0.010334620596840977
0.010370797843206674
0.010366057376377285
0.010377160056959838
0.010403111521154642
0.01037736791651696
0.010350821050815284
0.010416995247360318
0.010519600172992796
0.010565822729840874
0.010573557983152569
0.010579083268530666
0.010565924169495701
0.01049961891490966
0.010389283613767475
0.010314078868832439
0.01031922921538353
0.010331458339933305
0.010303681243676692
0.01031647358322516
0.010381445989478379
0.010393948869314044
0.010361105704214424
0.010395410261116922
0.010499843785073609
0.010559651614166797
0.010533059239387512
0.010497149480506777
0.010499635983724147
0.010510241407901048
0.010492027522996068
0.010432819051202387
0.010361054230015725
0.010328135751187802
0.010323774821590631
0.010273221274837851
0.01015804992755875
0.010056253767106681
0.010025463302154093
0.010032687031198292
0.01002804342424497
0.010013261518906802
0.010014377301558852
0.010017605340108275
0.010000730948522687
0.0100137982214801
0.01007889797911048
0.010093729905784131
0.010018581689801067
0.009962295342702418
0.009960720082744956
0.009940922418609261
0.009899521167390048
0.00988481197040528
0.009901587625499815
0.009947098386473953
0.010028508740942925
0.010096974379848689
0.010070489752106369
0.009960198348853738
0.009874407202005386
0.009880705890245735
0.00994098950875923
0.009985059234313667
0.009992491477169097
0.009990053258370608
0.009992895438335836
0.009975386189762504
0.009924424111377448
0.009882388201076538
0.009886056433897466
0.009911567356903106
0.009920772430486977
0.009923604240175337
0.00995522185927257
0.009994110914412886
0.009988157178740948
0.009959592106752098
0.009983491767197848
0.010077310132328422
0.010145329411607236
0.01009640415199101
0.009999535363167524
0.009966151718981565
0.009974928540177643
0.009939807914197445
0.009842697316780686
0.009771253168582916
0.009811561151873321
0.009891201013233512
0.009935347135178746
0.009959095087833703
0.010020378008484841
0.010088003671262414
0.010109909796155989
0.010077229465823621
0.010013695212546737
0.009969565358478576
0.009994733342900873
0.010076509420759976
0.01015635339077562
0.010207957602106035
0.01022937722504139
0.010228692705277353
0.010240116117056459
0.010253142733126878
0.010199541675392538
0.01009314508875832
0.010034483717754483
0.010040618313942104
0.010053413258865475
0.01006753834662959
0.010110373271163552
0.010165965927299112
0.010163280901033432
0.010087348609231413
0.010051289140246809
0.010116625463124364
0.01018499287078157
0.010162520150188356
0.010077776429243386
0.010006266261916608
0.009951845188625156
0.009868285532575101
0.009795270061586052
0.009800620533060283
0.00982722703134641
0.009832988847047091
0.009890649386215955
0.009986623129807413
0.010024459075648338
0.01003061973489821
0.010085695853922516
0.01015547102317214
0.010166764582972974
0.010144982635974884
0.010157392108812929
0.010183917072135956
0.01016439157538116
0.010121074155904353
0.010102301549632103
0.010087908382993192
0.010049372415523975
0.010025662267580629
0.01007312681293115
0.010157870680559426
0.010198531921487302
0.0102128895977512
0.010278585962951184
0.010401750481687486
0.010517737222835421
0.0105474617308937
0.01047753418330103
0.010387013349682093
0.010322842455934733
0.010267137177288532
0.010235707764513791
0.010262974316719919
0.010328967224340886
0.010363779759500176
0.010323160013649612
0.010247725218068809
0.010213267302606254
0.010236975075677036
0.010263497112318873
0.01026237993268296
0.010290581723675132
0.01038127826526761
0.010450322306714952
0.010420480077154935
0.010350729532074183
0.01033367310417816
0.010360961167607456
0.010378659453708678
0.010392081609461456
0.010443825884722173
0.010497336669359356
0.010457978921476752
0.010350095203611999
0.010264392259996384
0.010275371309835463
0.010355206897947937
0.01041128319920972
0.01039462162181735
0.010350537467747927
0.010321366128046065
0.010317826650571078
0.010339855635538697
0.010366738638840616
0.01038636629935354
0.010382540635764598
0.01033471359172836
0.010288895606063306
0.01030262770364061
0.01033949195407331
0.010371885499916971
0.010456095817498862
0.010566181228496134
0.010585029476787895
0.01051307843066752
0.010455530297476798
0.010447124417405576
0.01043573355767876
0.010378550821915269
0.010306563016492874
0.010300474297255278
0.010371366736944766
0.010419440797995776
0.010378465754911304
0.010309690576978028
0.010290325738023966
0.01031040717381984
0.010318474548403173
0.01032364988233894
0.010396676694508642
0.010501619153656066
0.010491872928105295
0.010373345874249935
0.010289246158208698
0.010281968829222023
0.010322759731207044
0.010379192708060146
0.010390243488363921
0.010347387855872511
0.010297620068304241
0.010271245834883303
0.010291914062108845
0.010346858818084002
0.01037138928193599
0.010338780032470822
0.010299489069730043
0.010303956805728376
0.010343013340607285
0.010375065703410655
0.010373627217486501
0.010359290621709078
0.01036721559939906
0.010382794816978276
0.010375638147816063
0.010358255775645375
0.01037333335261792
0.010434798107016831
0.010488960098009557
0.010488542013335973
0.010455277678556741
0.010420397706329822
0.010386120153125376
0.01033340195659548
0.010236881491728127
0.010121935494244099
0.010062064749654383
0.010078530898317695
0.0101143784285523
0.010140076465904712
0.010193275187630206
0.010259447928983718
0.010253595628309995
0.010171172530390323
0.010110333093907685
0.010134152532555164
0.01020563710713759
0.01025597028201446
0.010252879681065679
0.010217830922920257
0.010213791492860764
0.01025041783694178
0.010243685375899076
0.010151891966816038
0.010047981024254114
0.010006514517590404
0.009997245150152594
0.009989443679805844
0.010001084399409593
0.010023113596253097
0.009997597609180958
0.009921540855430067
0.009888148088939487
0.009972690290305763
0.010087694127578288
0.010106811646837742
0.010021719362121075
0.009964401752222329
0.009984666649252176
0.010021418055985123
0.010046802565921099
0.010080670956522226
0.010112017302308231
0.010122367893345655
0.01012605731608346
0.010149982944130897
0.010206425404176116
0.010262620463036
0.01025885087903589
0.010184033757541329
0.010082561343442648
0.00996937113814056
0.009841439451556654
0.009764857913833112
0.009783889658283442
0.009819669497665018
0.009798957887105643
0.009767037637066095
0.009804639094509184
0.009898031416814774
0.009928515285719187
0.009837971148081125
0.009751128854695708
0.009794332606252282
0.009898654203861951
0.009930010475218297
0.009885943040717392
0.009859709406737239
0.00988726584939286
0.0098973079607822
0.009819792620837688
0.009712080641184001
0.009701251636724919
0.009814676376990975
0.009957262177485972
0.010028870459645987
0.010025586928240954
0.010030905262101441
0.010087277677375822
0.010148883028887213
0.010180299112107605
0.010177604060154409
0.010131170025561005
0.010061087182257324
0.010028341803699731
0.01008102010237053
0.010186958713456989
0.01023467716993764
0.010163914351724089
0.010062236594967544
0.01005475219571963
0.010124051212333143
0.010150297842919827
0.010102409985847771
0.010039731422439217
0.009991189362481237
0.009945418210700155
0.009908646794501692
0.009889103975147008
0.009897862165234982
0.009934366527013481
0.009962218760047109
0.009945676333736629
0.00991287851240486
0.00994474760023877
0.010056391968391835
0.01014289318351075
0.01013042006175965
0.010076774742919951
0.010054373135790228
0.010064384560100734
0.010073409208562225
0.010052311457693577
0.010006034586112947
0.009974279180169106
0.009996033569332213
0.0100496839848347
0.010045234975405038
0.009973836927674711
0.009947771783918142
0.009996945664752274
0.010021368192974478
0.009972890932112932
0.009921573481988162
0.00993317307671532
0.009970334337558596
0.00997746002394706
0.00994386535603553
0.00989866719348356
0.009877904823515565
0.009909330517984927
0.009977160084526987
0.010022114103194327
0.009995461674407125
0.009937451609876007
0.009949075027834623
0.01002079333178699
0.010031709703616798
0.009963126417715103
0.009904808294959367
0.009886851580813528
0.009885195570532232
0.00988242625258863
0.009849241685587913
0.009791316252667458
0.00977262479485944
0.009807655697222799
0.009850934892892838
0.009905249734874815
0.00999162893742323
0.010075612883083522
0.01012989911949262
0.010149421922396868
0.010128992241807282
0.010107749905437231
0.010102317724376917
0.010079567842185498
0.010065576205961406
0.010098127811215819
0.010150318904779852
0.01021219942253083
0.010300642533693463
0.010363538356032223
0.01033777833916247
0.01029153211042285
0.010342352222651244
0.010480862916447222
0.010578666285146027
0.010544164306484163
0.01045532371615991
0.010462302800733595
0.010554686272516847
0.010586251453496516
0.010503238644450902
0.010409219590947032
0.010410782122053206
0.010450915307737887
0.010397825536783785
0.010268969819881022
0.010178535212762654
0.01014821492601186
0.0101411437895149
0.010157368669752032
0.010184198271017521
0.01017592819640413
0.010123830209486186
0.010065932904835791
0.01005113469203934
0.010096776855643839
0.010150513008702546
0.010146552075166255
0.010095558452885598
0.01006880053319037
0.010120560913346708
0.010238765124231577
0.010352231387514621
0.01039566887775436
0.010367986334022134
0.010361833362840116
0.010424378199968488
0.010480871959589421
0.010490552135743202
0.010506124820094555
0.010546636132057757
0.010557634031865746
0.010499455421231686
0.010413951615337282
0.010382392606697977
0.010424448412377387
0.010472215481568127
0.010472942867781967
0.010475633849855512
0.01053688958287239
0.010598890706896782
0.010580185970757156
0.010513791148550809
0.010489355453755707
0.010525351506657898
0.010567754376679658
0.010577759293373673
0.010569243663921953
0.010588913613464684
0.010671842102892697
0.010774812081363052
0.010820944688748568
0.01083075892413035
0.010868387180380523
0.010898005401249975
0.010852239120285958
0.010765908670146018
0.010722593311220408
0.01072683107573539
0.010729337350931019
0.010737224917393177
0.010767832617275416
0.010773790986277162
0.010748889814130962
0.010756735356990248
0.010793219320476055
0.010804114448837936
0.010795988405589015
0.010789477257058025
0.010774683027993887
0.010775644313544035
0.010809656162746251
0.010809394484385847
0.010742054160218686
0.010685071323532611
0.010677410776261241
0.010666991737671196
0.01064034695737064
0.010646578187588603
0.010699035350698978
0.010743945420254022
0.010745627067517489
0.010765406880527734
0.0108367635239847
0.010862938300706447
0.010783680349122733
0.010657399585470557
0.01056541975121945
0.010550518203526735
0.010590324590448291
0.010625545042566955
0.010597097291611134
0.010477338519413024
0.010319240489043296
0.010231146048754454
0.010265079149976373
0.010343947287183256
0.010372085408307611
0.010360694376286119
0.010353049375116824
0.010350035813171416
0.010338227588217706
0.010317168044857682
0.01032129983184859
0.010378949507139624
0.01044708427740261
0.010460212512407452
0.010426834581885487
0.010399344670586287
0.010372267176862807
0.010320847337134183
0.010266854863148182
0.010230151363648474
0.010213444766122848
0.010217437269166112
0.010219371751882136
0.010198426968418061
0.010192322928924113
0.010241924624424428
0.010295941988006234
0.010283177443780005
0.010224447683431209
0.010184179178904742
0.010183600208256394
0.010200122850947083
0.010209669228643178
0.010220732686575503
0.010252601287793367
0.010281714668963104
0.010271408616099507
0.01024830695707351
0.010267061181366444
0.010325394521933049
0.010391282616183162
0.01045000464655459
0.010481134064029902
0.01046427373541519
0.01038831333629787
0.01025311898905784
0.010124441862571984
0.010090226435568183
0.010137565690092743
0.010173979527316988
0.010134496425744146
0.010047876462340354
0.009993842775002123
0.009988427818752825
0.009997944661881775
0.009999576332047582
0.009970695869997144
0.009940614278893917
0.00998698730720207
0.01008271889295429
0.01010849571088329
0.010054096225649118
0.010032339850440622
0.010096609008032829
0.010166626586578787
0.01015297146514058
0.010082267872057855
0.010037179056089371
0.010044602113775909
0.010070467067416758
0.010060859967488796
0.010019451035186649
0.010015504602342844
0.010044151353649795
0.010028231085743754
0.00998596909455955
0.010006506282370537
0.010073326288256794
0.01008912016171962
0.010048318493645639
0.010019900661427527
0.010008476567454636
0.009980184289161117
0.009957349868491292
0.009977512939367444
0.010029056023340673
0.010067610437981784
0.010064692555461078
0.010052001206204295
0.010068589716684073
0.01008416000753641
0.01006547274067998
0.010055740349926054
0.01011159626301378
0.010187391166109592
0.010178504809737206
0.010087144470307976
0.010020184356253594
0.010050851700361818
0.01015435165259987
0.010234677644912154
0.010228874620515853
0.010198550866916775
0.01023773517459631
0.010303647175896912
0.01029278642963618
0.010234560761600732
0.010226056538522243
0.01026442222064361
0.010273138224147261
0.010225483435206115
0.01017046883236617
0.010167249755468219
0.010222371574491263
0.010269223861396313
0.010263186655938625
0.010263379225507378
0.010320632052607834
0.010400054780766367
0.01044005609350279
0.010414850905071944
0.01037537794560194
0.010392611338756979
0.01045567328343168
0.010484007059130818
0.010448962540831417
0.010417476010043175
0.010420344618614763
0.010402124824468046
0.010347334146499633
0.010326880449429154
0.010376952323131263
0.010408653744962066
0.010341887490358203
0.010249514151364564
0.010233398680575191
0.01027859766036272
0.01031336947111413
0.01030658084899187
0.010276743334252388
0.010245835112873464
0.010213501087855547
0.010193856479600073
0.010219455184414982
0.010287977622356266
0.010370419027749449
0.01043738221284002
0.01045383779797703
0.0104108198848553
0.010348322067875415
0.010327626771759241
0.010372017407789827
0.010434715563897044
0.010458703208714724
0.010432894588448108
0.010380555600859225
0.010324491318315268
0.010269043068401516
0.010229901475831867
0.010242112765554338
0.010310425714123994
0.010387284434400498
0.010416014795191586
0.010380112351849675
0.010314431253354996
0.010292643294669689
0.010363561732228846
0.010477198474109172
0.010531272708903998
0.010510983921121805
0.01049964958569035
0.010520108183845878
0.010526692972052842
0.010533891203813255
0.010560385324060917
0.010559965551365166
0.010520677091553807
0.010492318198084832
0.010501219383440912
0.010530630436260253
0.010567359474953264
0.010620872823055834
0.010680063699837775
0.010694182456936686
0.010646089878864586
0.010586265767924487
0.01056604307377711
0.010581146399490536
0.010581433756742626
0.010539131443947554
0.010498451953753828
0.010505657843314111
0.010526425102725626
0.010522628396283835
0.010527517495211214
0.010549504917580634
0.010546609396114945
0.010520304299425333
0.010478061847388745
0.010401572349946946
0.010336402643006296
0.010349655922036618
0.010405957160983234
0.010414769642520695
0.010364626026712358
0.010336910330224783
0.010387020118068904
0.010468009354081004
0.010524846494663507
0.010588356778025627
0.010677892446983606
0.010733136553317308
0.01073110766010359
0.010732532634865493
0.01077966563636437
0.010827885356266052
0.010817827866412699
0.010781492195092142
0.010789700043387711
0.010854687374085188
0.01092836593510583
0.010926993566099554
0.010818741691764444
0.010701866089366376
0.010671971135307103
0.01067672618664801
0.01064200244145468
0.010618504420854151
0.010679552494548262
0.010776867093518376
0.010793081209994853
0.010717841270379723
0.010678239637054504
0.010741847229655831
0.010796319535002112
0.01072227660799399
0.010582715864293277
0.010512558415066452
0.01052429565694183
0.010547375807072967
0.010554958251304924
0.010566386808641255
0.010576772389467805
0.010562034237664194
0.010544734674040228
0.010538552785292268
0.01050310260616243
0.010453523623291404
0.010454833230469376
0.010503774804528803
0.010548632745631038
0.0105646357126534
0.01056376246502623
0.01057378466706723
0.010601583456154912
0.010629160404205322
0.010666896051261573
0.010728410407900811
0.0107572000939399
0.010709347811061889
0.010637796674855053
0.01060049439780414
0.010594158936291932
0.010606912383809685
0.010649222577922047
0.010700499932281672
0.010684666864108294
0.010576544948853552
0.010473925822880118
0.010465793493203819
0.010511918014381082
0.010523671628907322
0.010480153812095524
0.010454508606344462
0.01052594614913687
0.010644629404414446
0.010691862003877759
0.010665088584646583
0.010646090160589665
0.010644252949859948
0.010617495852056891
0.01056205713422969
0.010507176055107266
0.010489301353227348
0.010507300922181457
0.010512273022904993
0.01050332048907876
0.010529045292641967
0.010571979992091656
0.010579723832197487
0.01056580430129543
0.01056397304404527
0.010567666697315872
0.010561599712818861
0.010553709878586233
0.010574782495386898
0.010635938672348856
0.0106948113697581
0.01072240860434249
0.010744578344747424
0.010771370003931224
0.010773156995419413
0.010738569879904389
0.010701434791553766
0.01069204325787723
0.010688219522126018
0.010650559153873473
0.010563422956038267
0.01043384357355535
0.010306061203591526
0.01026005006628111
0.010328605151735247
0.010430775417480618
0.01047748328652233
0.010475407319609076
0.010452503757551312
0.010409275440033526
0.010350772712845355
0.010288921361789107
0.010248114063870162
0.010252810730598867
0.01029762181919068
0.010364281376823783
0.010429793950170279
0.01045627671526745
0.010446367040276527
0.010459554989356547
0.010503403495531529
0.01051358673721552
0.010482289111241699
0.010470292498357594
0.01047202872345224
0.010422716436441987
0.010332250241190196
0.010271092134062201
0.01026486187474802
0.010272118244320155
0.01023705891566351
0.01015728470403701
0.010095321179833264
0.010100750650744885
0.010139562329277397
0.010159722054377198
0.010160366992931814
0.010149884286802262
0.010149743319489061
0.01018907769350335
0.010236198909115046
0.010238522056024522
0.010197611288167535
0.01016698396531865
0.010190980811603367
0.0102218484506011
0.010183698127511888
0.010114854152780026
0.010107985336799175
0.010148211042396724
0.01013165642041713
0.010025279661640525
0.009920452686492354
0.009877946807537228
0.009898177925497293
0.009928081852849572
0.009928020716179162
0.009898652695119381
0.00986409236676991
0.009836810971610249
0.009807016453705727
0.009755737776868046
0.009696820904500782
0.009679061518982053
0.009724831432104111
0.00978897076798603
0.009790630151983351
0.009720037076622248
0.009664459156338125
0.009681333170738072
0.009723013816401362
0.009720363842789084
0.009695732754189522
0.00972887632669881
0.009811528329737484
0.009838349833153189
0.009778163037262857
0.009738174306694419
0.009773734342306852
0.009786433051340282
0.009728758670389652
0.009703539910260588
0.009746782537549735
0.009750098420772702
0.009685303797014058
0.009651121096685528
0.009661276687402277
0.009636623607948423
0.009584641617257148
0.009571229044813662
0.00958566104527563
0.00959620785433799
0.009608907122164966
0.009604784972034396
0.009584505364764483
0.009607065566815436
0.009673406453803182
0.009716403272468596
0.00971366572426632
0.009706019926816224
0.009740258513484151
0.00981114798458293
0.009850078744348139
0.009787884869147091
0.009650261532515287
0.009542153577785938
0.009484700614120812
0.009429161984007806
0.009413051952142268
0.009472747582476586
0.009530910598114133
0.009518434202764183
0.009465348734520375
0.009416705905459821
0.009372591006103903
0.009339144045952708
0.009338026230689139
0.00937254180200398
0.009419889179989696
0.009441404442768545
0.009430298004299403
0.00941306326072663
0.009405676492024213
0.00942541350843385
0.009496687946375459
0.009601396089419723
0.009660971581470222
0.009626615035813302
0.009571011220104992
0.009599513155408204
0.00970483101438731
0.009794663486536593
0.009798525222577155
0.00973145654425025
0.009677493062335998
0.00965484043583274
0.009602655000053346
0.009537305310368538
0.009519612113945187
0.009534545224159956
0.009542240521404892
0.00953480630647391
0.009535036280285568
0.009555914953816682
0.009551867300178856
0.009493285708595067
0.009467615692410619
0.009450041856616735
0.009470065964851528
0.009493857130873948
0.009545893906615675
0.009660648126155138
0.009765224552247674
0.009791705678217112
0.009757661698386074
0.009734354638494551
0.009722907117102296
0.009696326891425997
0.009668462572153657
0.00966516385320574
0.009706568159162998
0.009799518925137817
0.009887633963953703
0.009898455056827515
0.009841229089070112
0.009774716740939765
0.009737570541910828
0.009738633283413947
0.00975977128604427
0.009753074643667788
0.009694825252518057
0.009650154190603643
0.009660850963555276
0.009636936134193093
0.009524832027964295
0.009431506623513997
0.00944320393493399
0.009504256199579685
0.009549931229557843
0.009578630235046149
0.009575996983330696
0.009514247588813305
0.009441572460345923
0.009460247785318643
0.009571695835329592
0.009664683749433607
0.00968929183902219
0.009704640032723547
0.009735412038862705
0.009720042273402214
0.009651784363668411
0.00962145385099575
0.009668216982390732
0.009719995462801308
0.009688941047061235
0.009577091559767723
0.009485355177894235
0.009487120334524661
0.00954467753181234
0.009594347900711
0.009635796418879182
0.00968792947474867
0.009726733940187842
0.009755948786623775
0.009819482078310102
0.009877520019654185
0.009865819094702601
0.009828935081604867
0.009818845845293253
0.009799618194811045
0.009750062269158661
0.009708804613910615
0.009691838810686021
0.009693480988498777
0.009725616280920803
0.009759151048492641
0.009717982227448374
0.00960578631144017
0.00952149487566203
0.009508831447456033
0.009531824178993701
0.009578118342906236
0.009637719825841487
0.009653638920281083
0.009597639550920576
0.009510292138438672
0.00946337139699608
0.009523426999803632
0.009666139546316116
0.009761475382838398
0.009744112826883793
0.00970470928121358
0.009736785560380667
0.009811169339809567
0.009855538578704
0.009874801712576299
0.009937545598950237
0.010037227671127767
0.01006608328782022
0.009979470521211625
0.009867644649930299
0.009825538804288953
0.009828191460110247
0.009809217602014541
0.009811972165480257
0.009893259638920427
0.00992203006753698
0.009885212127119302
0.009821185879409312
0.009820098087657244
0.009830474692862481
0.009791849113535136
0.00975794299505651
0.00977462189970538
0.009787243700120598
0.00976265247212723
0.009752323757857085
0.009778982009738684
0.009806111152283848
0.00982857374008745
0.009847707245498896
0.009821848173160105
0.009771935921162368
0.009772394041065127
0.009813369582407177
0.009849082014989108
0.009856537475716323
0.009806851195171475
0.009732774042058736
0.009729038244113326
0.00980938428081572
0.009882241778541356
0.00989798828959465
0.009910957396496087
0.009972868531476706
0.010063668296206743
0.010134362326934933
0.010149363589007407
0.010108408483210951
0.01006515002809465
0.010091376099735498
0.010197600992396473
0.010301128120627254
0.010313802997116
0.010248795140068979
0.010173277766443788
0.010115414259489626
0.010080223283730448
0.010075475147459656
0.010115772185381502
0.010214838492684066
0.010303616696037353
0.01027716237353161
0.01019506028853357
0.010194262370932848
0.010239767646417021
0.010233630989678204
0.010217376886866986
0.010254260937217622
0.01028668264625594
0.010238528158515692
0.010153910766821355
0.01012864223914221
0.01013562861829996
0.01008197438903153
0.009998134726192803
0.009976014350540937
0.010011413779575378
0.010047727054916323
0.01006756022805348
0.010079728602431715
0.010107881196308881
0.010168054648675024
0.010219283627811819
0.01020990124437958
0.010164218763820827
0.010155304125510157
0.010174369923770427
0.010142792377155273
0.010067719749640673
0.010004904186353088
0.009951431208755822
0.009914571763947605
0.00992718763416633
0.009957890282385052
0.00995689123403281
0.00994360051350668
0.009945215221960098
0.009949038254562765
0.00997050886740908
0.010045397982466966
0.01013985246187076
0.010180689671542495
0.010141659660730511
0.010051689664833248
0.009975469016935676
0.009954058644361795
0.00995440831175074
0.009930628428701311
0.009906982404645532
0.009938893872313202
0.010006976327858866
0.01005443680100143
0.010073298341594636
0.010058314339257777
0.010025641417596489
0.010054893961641937
0.010143909340258687
0.01017748802434653
0.010131479550618678
0.010124672958627344
0.010222937979269773
0.010341670149937272
0.010396010903641582
0.010407552905380726
0.010409883572719991
0.010388058077078313
0.010339520091656595
0.010296957124955953
0.010272682579234242
0.010266054244711996
0.010308524095453322
0.010387648621108383
0.010428847684524954
0.010414500734768808
0.010386783471331
0.010385335532482713
0.010430146520957351
0.010491960167419165
0.010513242783490568
0.010481893643736839
0.010446646942291408
0.01044135520933196
0.010433730287477374
0.010383283263072371
0.010305345116648823
0.010247918809764087
0.010231945135165005
0.01024012636160478
0.010249252552166582
0.010230292116757482
0.010141660126391798
0.010001542614772915
0.009905818169936537
0.009882858854252845
0.00986259853700176
0.009832068153191358
0.009823593888431787
0.009814411059487611
0.009787027093116194
0.009748622139450163
0.009709227124694735
0.00970131459645927
0.009718759842216968
0.009740734181832522
0.00980764721520245
0.009892850071191788
0.009876075426582247
0.00977242986438796
0.009724977321457117
0.009759891445282847
0.009791558892466128
0.009798089338000865
0.009818364901002496
0.00983475798740983
0.009809777326881885
0.009796779709868133
0.00984585378319025
0.00990684488788247
0.00995425826869905
0.010027480991557241
0.010108527382835747
0.010135608792770654
0.010116105412598698
0.010114976780023426
0.010149190085940063
0.010179216004908086
0.01022477272665128
0.010337531089317054
0.010451981201767921
0.01047012718161568
0.010433629527688027
0.010428786331322043
0.010434858049266041
0.010411971402354538
0.010385086506139486
0.010347693453077227
0.010269390519242734
0.010191885819658637
0.010154430945403874
0.010117453339044005
0.010051334479358047
0.010003008167259395
0.010026446194387972
0.010101139817852527
0.010164758183527738
0.010174082261510193
0.010132335366215557
0.010145307921338826
0.010313873267732561
0.010507656342815608
0.010513209127821029
0.010411998056806624
0.010302508929744363
0.010319873788394034
0.010389340780675412
0.010413037245161832
0.010388786983676256
0.010387303752359002
0.010417786659672856
0.01040009881136939
0.010308409724384546
0.010211573971901089
0.010145690641365945
0.010112993069924414
0.010164896156638861
0.010321025485172868
0.010479131494648755
0.010527265744749457
0.010478600792121142
0.010415931870229543
0.010383108695968986
0.01037542660953477
0.010370842088013888
0.010365090426057577
0.010379120628349482
0.010422632852569223
0.01046216472517699
0.010433827936649322
0.010334036739077419
0.010245550775434821
0.01021546360105276
0.01021637226920575
0.010225159300025552
0.010248240726068615
0.010299461334943772
0.010367317094933241
0.010404318287037313
0.010403260628227145
0.01041798145044595
0.010450556196738035
0.010457372148521245
0.010452590563800187
0.01047468428267166
0.010530419417191296
0.010603478970006108
0.010654709576629102
0.010664422316476702
0.010662320042029024
0.010659831201191992
0.010636226814240217
0.010603739947546273
0.010601992146112025
0.01063320466550067
0.010630625491030514
0.010548655712045728
0.010473918681964279
0.010496750320307911
0.010546215500216932
0.010546688183676451
0.010562859722413123
0.01062045513652265
0.010627672595437615
0.01057231036713347
0.010558834271505476
0.010616189169231802
0.010654633173253387
0.010623446765821427
0.01057378540514037
0.01055284621892497
0.010539968989323825
0.010520036728121341
0.010527697606012226
0.010566819857340306
0.010585355018265545
0.010561215868219733
0.010526494747027755
0.010497206889558583
0.010455238467548042
0.010418611145578325
0.010417804850731046
0.010411884894128889
0.010367603863123805
0.010348300994373859
0.01041380937444046
0.010528622304555028
0.010619826165493578
0.010649441624991596
0.010633284642826766
0.01061694514239207
0.010607790255453437
0.010572849181480706
0.010509841537568718
0.010447648849803955
0.010397257169242948
0.010346347433514893
0.01029189106542617
0.01025730679742992
0.010250250694807618
0.01022611967055127
0.010175353777594865
0.010203155586495996
0.010314016563352197
0.010464422516524791
0.0104581787600182
0.010349089405499399
0.010290672474075108
0.010312993060797453
0.010295542294625194
0.010185499591752887
0.010077139856293797
0.010026779815088958
0.010008994853124023
0.010037055406719446
0.010109441308304667
0.010132337189279497
0.010051245444919914
0.009936609559226782
0.009878661481197924
0.009899467574432491
0.009963246865663678
0.010009798638056963
0.009996855903882534
0.009935072858352214
0.00986470610834658
0.00981060610851273
0.00977689896710217
0.009765009554103017
0.009787728933151812
0.009846845983993262
0.00990462999790907
0.009921161152888089
0.009898857872467488
0.009869905533269047
0.009861468225717545
0.009863067669793963
0.009845475242473185
0.009808813738636672
0.009753905101679266
0.009693513559177518
0.009710948104038835
0.0098388791247271
0.00995342523092404
0.009942917360458523
0.009864675500430166
0.00983289120020345
0.00985253500053659
0.009861067433375866
0.009852178681176155
0.009853951700497418
0.009857578715309501
0.00984701455803588
0.009848792715929448
0.009889556791167707
0.009939522300846874
0.009950154977850616
0.009916725626681
0.009895198575686664
0.009940632826182991
0.010001913271844387
0.009982319222763181
0.009920572324190288
0.009932490419596434
0.010002235725987702
0.010033276628237218
0.010017249989323318
0.00999889527214691
0.009987569421064109
0.009974361520726234
0.009962632916867734
0.009956126180477441
0.009929710032884032
0.009856522772461176
0.009777540925424546
0.00975943696219474
0.009793943571858109
0.00982475004158914
0.009846061253920197
0.009896092414855957
0.00996685958467424
0.010032598243560642
0.010109439946245403
0.010175199264194816
0.010169978092890233
0.010092339294496924
0.009988001978490502
0.009915794583503158
0.009912983258254826
0.009935441247653215
0.009909095035400241
0.009850984867662192
0.009844922877382487
0.00991007560165599
0.009996472836937755
0.01006738625233993
0.010116792763583363
0.010166257228702307
0.01023150673136115
0.010255867158994078
0.010183284888044
0.010067652750294656
0.009966997352894396
0.009861003428231924
0.009761085654608904
0.00974471347173676
0.009850686532445252
0.009998941463418305
0.010071239531971515
0.010073104265611619
0.010099054500460624
0.010173262066673487
0.01023762644501403
0.010238508495967835
0.010178703798446804
0.01011232488323003
0.010078891317825765
0.0100716196349822
0.010084339522290976
0.010111717705149204
0.010124747229274362
0.010111412436235695
0.010098403624724597
0.010124472961761057
0.01020807156106457
0.010316447450313716
0.010386520044412463
0.010388211640529334
0.010344750212971121
0.010311388964764774
0.010322813296224921
0.010339576518163085
0.010308182088192553
0.010250746961683035
0.010216558892279863
0.010202956963330507
0.01018376792082563
0.010168446528259665
0.01020253554917872
0.010299401488155127
0.010366135421209037
0.010297922794707119
0.010159193100407719
0.010111453053541481
0.010169506166130304
0.010204460776876659
0.01015463880961761
0.010069409250281752
0.010011300581973047
0.009921511341817678
0.00985294974176213
0.009868863513693213
0.009949828432872891
0.009972154435236007
0.009889603385236114
0.00980405115755275
0.009793092119507492
0.009806416030041874
0.0097918850928545
0.009757052247878165
0.009708622868638486
0.009690901760477573
0.00975455688778311
0.009828017537947743
0.009818112112116069
0.009759085348341613
0.009726317597087473
0.00975015236530453
0.00982351131271571
0.009879140167031437
0.009846946122124792
0.009774146934505552
0.009771658019162714
0.009857024033553898
0.00994173827348277
0.009938320703804493
0.009858491076156497
0.009806433422490955
0.009823378601577133
0.009827431163284928
0.009771098277997225
0.009713649945333601
0.009707337298896163
0.009728513229638337
0.009734149100258946
0.009725124191027135
0.009731987102422863
0.009769428940489887
0.009816562766209245
0.009828825537115336
0.0098074598913081
0.009814615577924997
0.009861025349237025
0.009878486772067844
0.009820992816239596
0.00973784628789872
0.00972570188343525
0.00978029889985919
0.009803440233226865
0.009779957495629788
0.0097834306769073
0.009846296748146416
0.00992924170801416
0.009953807699494064
0.009895267959218473
0.009824072560295462
0.009768745617475361
0.009709190987050533
0.009701074198819697
0.009779814069624991
0.009851811227854342
0.009831242822110653
0.009766756612807513
0.009757943886797875
0.009800791544839739
0.009803876699879765
0.009757236586883664
0.009741267021745444
0.009780744195450098
0.009837044782470912
0.009889003550633789
0.009932817092631012
0.009952848688699304
0.00993877166416496
0.009912221007980407
0.009904137861449272
0.009925148547627032
0.009964185473509133
0.009999619242735206
0.010016379046719521
0.010017830433789641
0.010033836965449154
0.01010255454806611
0.010223832477349789
0.010336656507570296
0.010368773648515343
0.010315690604038537
0.010251110077369958
0.010173757083248348
0.010114502292126418
0.010083822426386177
0.01010817316127941
0.010170800019986928
0.010198418518994003
0.010189445759169757
0.01021306598559022
0.010259562847204506
0.010282459084410221
0.010295186459552496
0.010381464739330113
0.010430672350339591
0.010358014609664679
0.010232903421856463
0.010208259809296578
0.010301725438330323
0.01037637504749
0.010335967857390643
0.01033525806153193
0.010273312421049922
0.010290558056440205
0.010350633366033434
0.010391576180700213
0.01036885785171762
0.010304179741069674
0.010260665325913578
0.010267483300995082
0.010320952648762614
0.010381723353639245
0.010386665952391922
0.0103684475668706
0.01041679359273985
0.010488490278366952
0.010478597586043178
0.010416415554936975
0.010411825811024756
0.010508183434139937
0.010632481144275516
0.010654904956463724
0.010568934231996537
0.010505405920557678
0.01051789873978123
0.010533172383438795
0.010490893281530588
0.01042647659778595
0.010414405597839505
0.010459252842701971
0.010493515697307885
0.010462194615975022
0.010391388239804655
0.010363814751617611
0.010404457240365445
0.010460408185608686
0.010492631520610302
0.010507062836550176
0.01053699383046478
0.01060748211108148
0.010673243680503219
0.010667086902540177
0.010613597061019392
0.010582393754739315
0.01058433371130377
0.010597759168595075
0.010610854600090534
0.010624349187128245
0.01064107944490388
0.010635760922450572
0.01060090631013736
0.010569724459201098
0.010530603262595832
0.010470031851436943
0.010452842800877988
0.010502288788557053
0.01054414396174252
0.010541778537444771
0.010548265969846397
0.010606728165876121
0.010684414557181299
0.010743370985146612
0.01078336869366467
0.010783199172001332
0.01072141480864957
0.010626259711571037
0.010549166093114763
0.010524000052828341
0.010523319304920732
0.010489633514080197
0.01042364903492853
0.01038321625906974
0.01041532120667398
0.010485331548843534
0.010503855836577713
0.010481073670089245
0.010494026129599661
0.01048674862133339
0.010391879030503332
0.010323751559481025
0.010360383810475469
0.01037139399209991
0.01033960770117119
0.010338513134047388
0.010402996784541756
0.01044123807689175
0.010429006710182875
0.010444015285465867
0.01048101130174473
0.010456538510043174
0.010391948611941189
0.010389974534045904
0.010456631642300636
0.01051266711903736
0.010539912392850966
0.010584351001307368
0.010646941785234959
0.01066833586897701
0.010640320563688875
0.010655538444407284
0.01078840703703463
0.010857985415495932
0.010890566175803543
0.010756670902483166
0.010636140871793032
0.010605913861654699
0.010588786820881069
0.01060259335907176
0.010713340351358056
0.01083818805636838
0.010844194840174168
0.010762781065423041
0.010710939357522875
0.010692410853225738
0.010669084920082242
0.010681494800373913
0.010731304585933686
0.01070601660059765
0.01055781917879358
0.010395576308947057
0.010334849420469255
0.010393829210661351
0.010492945339065045
0.010533616740722208
0.010514187193475664
0.01047861349536106
0.010441389011684805
0.010427575600333512
0.010439937957562507
0.01043706088559702
0.010411794746760279
0.010382037083618343
0.010344390741083771
0.01032358170952648
0.010342802596278488
0.01036363580962643
0.010344189929310233
0.010295457283500582
0.010241002866532654
0.010183052986394613
0.010116750032175333
0.010069219002034516
0.010074987190309912
0.010086552635766566
0.01002179997973144
0.009910704444628209
0.009873918974772095
0.009950936422683299
0.010045343169476837
0.010061746905557811
0.01001045257318765
0.009955506324768066
0.00993127608904615
0.009926932365633547
0.00992343073245138
0.009919141083955765
0.009917602529749275
0.009914911203086376
0.009904442771803587
0.00988526074681431
0.009852728303521872
0.009796601182315498
0.009736349959857761
0.00971649156184867
0.009752985939849168
0.009821993983350694
0.009869511786382646
0.009845668396446855
0.009775506192818284
0.009737014460843057
0.009752698722295464
0.009756742108147592
0.009688131166622043
0.00958456783555448
0.009537204473745078
0.009552858532406389
0.009545246937777847
0.0095077651925385
0.00952405526302755
0.009586207289248704
0.00963827827014029
0.009711751188151539
0.009811032637953758
0.00984568210085854
0.009814005633816123
0.009829640437383205
0.009900601184926926
0.00991703109582886
0.009856069444213062
0.009809359724167735
0.009831738118082285
0.009875995451584458
0.009877062998712063
0.00983406453160569
0.009800133095122874
0.009812777328770608
0.009836692861281335
0.00981541363056749
0.009753946920391172
0.009692221665754914
0.009651419506408274
0.009645629720762373
0.00969409096520394
0.009777631624601782
0.009838732781354338
0.009857125466223806
0.00983642461244017
0.00976426684530452
0.00967330384068191
0.009639899176545442
0.009676383265759796
0.009712795519735664
0.009711931485217064
0.009698280356824398
0.009669593090657146
0.009606534393969923
0.009555929272901267
0.009588840382639319
0.009668485845904797
0.009703772440552712
0.009708683548960834
0.009729937233496458
0.00973336914088577
0.009678582022897899
0.009588731694966554
0.009544173860922456
0.009596499532926827
0.009674945608712732
0.00970567188691348
0.009722035170998424
0.009755305007565766
0.009800532558001578
0.00986658934270963
0.009912679437547922
0.009880440696142613
0.009813522696495056
0.009812442015390842
0.00988063621101901
0.009918769327923656
0.009882206260226668
0.00986603082390502
0.00994647442828864
0.010050222689751536
0.010116274664178491
0.010201421324163676
0.010324817176442593
0.010407247920520604
0.010400568768382072
0.010358572273980826
0.010370005138684064
0.010446875966154038
0.010522047581616789
0.010563614736311138
0.010581798127386719
0.010562804797664284
0.010524003813043237
0.010524855859111995
0.01057005692506209
0.010612237479072063
0.010614520118106157
0.010580762529280037
0.010559748529922218
0.010572047971654683
0.010568408227991313
0.010518744818400592
0.010473809393588454
0.010493104229681194
0.010546948330011218
0.01055947514483705
0.01052722284104675
0.010504002419766038
0.010523303970694542
0.010582709833979607
0.010644987872801721
0.010658252988941968
0.010607342100702227
0.010556807552929967
0.010587565703317522
0.01066594187868759
0.010696107726544142
0.010663968578446656
0.010595707141328603
0.010515631595626473
0.010497387156356126
0.010558583994861693
0.010589920042548329
0.0105373997380957
0.010463326333556323
0.010410716040059925
0.010382503625005484
0.010383053186815231
0.010397516193334013
0.010385387998539955
0.010347939885687083
0.01034027140820399
0.010364717755001038
0.010373835258651525
0.010365635878406465
0.010366822744254022
0.010376702544745058
0.010357225004117936
0.010291273179464043
0.010258008330129086
0.010315107936039567
0.010366910649463535
0.010336379795335233
0.010290614846162498
0.010283508920110762
0.010287479704711586
0.010287138912826777
0.010284144070465118
0.010248682734090835
0.010170300377067178
0.01011180472560227
0.010120337163098157
0.010152427833527327
0.010156001958530397
0.010144546777009964
0.010150169949047267
0.010160666955634952
0.01015546954004094
0.010147298134397716
0.010144368645269424
0.01015457705128938
0.010201475659850984
0.010260286952834576
0.010261839155573398
0.010186221746262164
0.01007401844719425
0.009987206195946783
0.00998351254267618
0.010049621989019215
0.010085459682159126
0.010039734737947583
0.00998382862424478
0.00995641820365563
0.009902707596775145
0.009842355831060558
0.009874224057421088
0.009983324797358363
0.010041297099087387
0.010003908667713404
0.009935241790954024
0.009877326739951968
0.009836213453672827
0.009799962372053415
0.00973167659714818
0.009644824489951133
0.009612409800756722
0.009640081427060068
0.009643535444047302
0.009567355297040194
0.009459568446036428
0.009423204010818153
0.009487941353581846
0.009566931903827935
0.009569148267619312
0.00950291169108823
0.009445528145879506
0.009453663902822882
0.009519213177263737
0.009576829036232084
0.009574644865933806
0.009559167672414333
0.00959844796685502
0.009637736743316054
0.009601194127462805
0.009562386269681155
0.009613261250779033
0.009685150037985295
0.009685701108537614
0.009663758566603065
0.009682146355044097
0.009694406329654157
0.009659838960506022
0.009617754791397601
0.009588330474216492
0.00954847011482343
0.009508387392852456
0.009492723306175321
0.00952370482031256
0.009653644058853389
0.009832356898114085
0.009864396729972214
0.009706264063715934
0.009536717876326293
0.00946525963721797
0.009478104158770293
0.009556840918958188
0.009652055995538832
0.009698260589502752
0.009708172432146967
0.009738736597355455
0.009768462439533323
0.009732093100901694
0.009653144211042672
0.00960447832942009
0.009602002089377493
0.009607212764676661
0.009589526085183025
0.009580392856150866
0.009617704479023815
0.009646565555594861
0.009598216402810066
0.009517050459980964
0.009478908746968955
0.00948174427030608
0.0094932866608724
0.009496919906232505
0.009482180040795356
0.009462989799212665
0.009485849365592002
0.00957409422378987
0.009679312924854458
0.009743987557012588
0.009785857170354574
0.00984544435981661
0.009891230734065176
0.009874579028692097
0.009842069812584668
0.009869727299083024
0.009948897275608033
0.01002617834834382
0.010051705101504922
0.010004111810121685
0.009935494677629322
0.00990779891377315
0.009929212294518947
0.00999876334099099
0.010090331146493554
0.010135646220296621
0.01012829619459808
0.01015131818363443
0.010240584816783667
0.010324626511428505
0.010347741851583124
0.010326826786622405
0.010268651668448002
0.010174722922965885
0.010087988609448074
0.010021869535557925
0.009946689826902002
0.009908847187180072
0.00997455918462947
0.01004781889496371
0.010005595237016678
0.009935393503401429
0.009973616837523878
0.010051261365879327
0.010025201148819178
0.009924235867802054
0.009883885560557247
0.009929572988767177
0.009960410865023733
0.009918613005429506
0.009880161548499017
0.009930554223246872
0.010021316912025213
0.010044601010158659
0.009975293083116413
0.00986056901048869
0.009765696560498327
0.009752012572716922
0.009798442816827447
0.009808973565232009
0.00977370611159131
0.00976077371975407
0.009755996824242174
0.009713886992540211
0.00969062621006742
0.009731268198229372
0.009751436985097825
0.009693323678802698
0.009629509029909968
0.009632527264766395
0.009687858703546225
0.009742429391480982
0.00976277720881626
0.009742738152854145
0.00968811979983002
0.009601247771643102
0.009483556163031608
0.009383850530721247
0.009382204879075288
0.009477870669215918
0.00960029951063916
0.009692573752254248
0.009703609901480377
0.009646883720997722
0.009624364257324486
0.009658306387718767
0.009657981512136758
0.009604595242999494
0.009591043961700052
0.009649257236160337
0.009708613601978867
0.009741725185886025
0.009792343040462583
0.009882881068624555
0.009966006921604275
0.009979736050590873
0.009960839340928942
0.00998819665517658
0.01004480617819354
0.010067000051494688
0.01003858912969008
0.00998822838300839
0.009953912252094597
0.009950963747687638
0.009972379961982369
0.01000422332668677
0.010019348214846104
0.009983175822999329
0.009896102976053953
0.009800918342079967
0.009723890367895364
0.00966461363947019
0.009643964052665979
0.009678181232884527
0.009716130269225687
0.00968216830631718
0.009565551825799047
0.0094207624765113
0.009332640180364251
0.009362050229683519
0.009459501344244926
0.009526728242635727
0.009541119919158519
0.009506338629871608
0.009426194264087827
0.009370750389061868
0.009382342780008912
0.009385550529696047
0.009328833650797605
0.00927766679553315
0.009285405634436757
0.009316186201758683
0.009350219559855759
0.009407757264561951
0.009459630902856588
0.009478996314574033
0.009494891131762415
0.009491783967241645
0.009432458917144686
0.009393256737384946
0.009469713647849858
0.009594964019488544
0.009646771105471998
0.009656533033121377
0.009729921182151885
0.009858475143555551
0.009956074231304228
0.009974885832052678
0.009936143120285124
0.00989743573591113
0.009863842916674912
0.00979828434297815
0.009721379391849042
0.00969491754891351
0.00974777281517163
0.009841367001645267
0.0098889796808362
0.009853589558042586
0.009797845624852926
0.009786189119331538
0.00979985558660701
0.00980572446482256
0.009813548354431987
0.009813669961877167
0.009777981098741293
0.009746461072936655
0.009776690972503275
0.009829458626918496
0.009850952269043773
0.009868626508396119
0.009905850351788103
0.009934691900853068
0.009929625724907964
0.009901936573442072
0.00988706478383392
0.009902601549401879
0.009940598867833614
0.009986855599563568
0.010020765776280314
0.010011863033287226
0.009945832835510373
0.009876355463638901
0.009871833242941648
0.009875752427615226
0.009790105507709085
0.009684578054584564
0.009697456113062799
0.00979574110591784
0.009831216046586632
0.009775657986756415
0.009729620651341975
0.009727951872628182
0.009708056731615216
0.009644959175493567
0.009607199325691908
0.009656567445490509
0.00972335409373045
0.009701716715935617
0.00962352882605046
0.009585520611144602
0.009608035357668996
0.009650602533947677
0.009670412689447403
0.009652051369193941
0.009617370360065252
0.009583694573957474
0.00953712189104408
0.009504539133049548
0.00954780965577811
0.009648786624893546
0.009744299273006619
0.009802011894062162
0.009802483750972897
0.00977022915147245
0.009748769563157112
0.00972508761100471
0.009711604388430715
0.009777675378136336
0.00989282198017463
0.009936405408661813
0.00988758877851069
0.009828886617906391
0.009827632869128139
0.00989674866432324
0.00996929474407807
0.009940439553465694
0.009839920988306404
0.009727328135631978
0.009730633732397109
0.009815793572925032
0.009910036607179791
0.01000951893394813
0.010087312797550112
0.010073649394325913
0.010025240366812795
0.010073756044730544
0.01020120847504586
0.010282696108333766
0.010278387772850693
0.010221918602474034
0.010124960320536048
0.010018560341559351
0.0099625831306912
0.009947688600514084
0.009929972218815237
0.009930033185519278
0.009980681519955396
0.010061713107861579
0.010126957409083844
0.010143657301086932
0.010118317888118327
0.010083300496917217
0.010059773568063974
0.010055797134991735
0.010065520012285561
0.010067268500570208
0.010055389853660017
0.010053709135390818
0.010080119215417653
0.01011207682080567
0.01011141888331622
0.010073300888761879
0.010040857661515475
0.010072742123156786
0.010156526628416032
0.01019486116245389
0.010154754756949842
0.010138640655204654
0.010204325448721647
0.010262881063390523
0.0102505714725703
0.010208235254976899
0.010173800955526531
0.010165334045886994
0.010211974575649947
0.010302224620245397
0.010354223512113094
0.010294106409419327
0.010149607127532363
0.010021053606178611
0.009959765512030571
0.009939562433864922
0.00995086325565353
0.0100206342455931
0.010126303546130658
0.010189842539839447
0.010172479152679444
0.010124084949493408
0.010128616576548666
0.01019209054298699
0.010231872780714184
0.01021943097235635
0.010213401867076755
0.010239756514783949
0.010263756401836872
0.010244361916556954
0.0101830940018408
0.010133446434047073
0.010132278015371412
0.010153771983459592
0.010157125645782798
0.010157991112209856
0.010205858403351158
0.010282136371824891
0.010309427822940052
0.010295940469950438
0.010345408597495408
0.010455130115151406
0.01050113701960072
0.010454715862870216
0.01038684804458171
0.010342505639418959
0.010332159949466586
0.01033192771486938
0.010309194882865995
0.010283318851143121
0.010281553524546325
0.010275594496633858
0.010247872611507773
0.010228260380681604
0.010225632484070957
0.010232841167598962
0.01024710790719837
0.010252203568816185
0.010254983433987945
0.010276374402455985
0.010287988600321114
0.010355857152026146
0.01042743461439386
0.01044869130011648
0.010363389526028187
0.010197397947777062
0.01008282121270895
0.010066308053210378
0.010127978490199894
0.010103611054364591
0.01000599429011345
0.009963407602626831
0.009992406533565373
0.010017796515021472
0.010031302236020565
0.010058071275707334
0.010088982617016882
0.010119753782637417
0.01013206398813054
0.010085696519818157
0.009995854895096272
0.00992582991020754
0.009914963154587895
0.00997023014118895
0.010073649848345667
0.010176102097611875
0.010225741674657911
0.010217248306144028
0.010206738065462559
0.010262988344766199
0.010366427975241095
0.010399623641278595
0.010319162621162831
0.010241730536799878
0.010267093353904784
0.010330306140240282
0.010317292851395906
0.010234674552921206
0.010171901832800359
0.010165371478069573
0.010168572242837398
0.010115534185897558
0.01000855582067743
0.00991859371541068
0.009881614688783884
0.00987781182397157
0.009899767742026597
0.009948222928214819
0.009979679088573903
0.009937140729743988
0.00985383610241115
0.009852242444176228
0.009991162670776248
0.01019686782732606
0.010365169048309326
0.010452649609651416
0.010481802232097834
0.010494008958339691
0.010498786403331906
0.010488635536748916
0.010469262364786118
0.010446964749135076
0.010444936726707965
0.010510631324723362
0.010638081147335469
0.010726060164161026
0.01069321125280112
0.01059838010929525
0.010544413169845938
0.010547174853272737
0.010585340126417576
0.010636441567912698
0.010655535415280611
0.010652047011535614
0.01069490508409217
0.01076352012110874
0.010764434444718063
0.010712354488205164
0.010714680531527847
0.010786642103921622
0.010827187835238873
0.010792001965455711
0.010754208227153868
0.010754870388191194
0.010739446051884443
0.010685798849444837
0.010664455364458264
0.010725403425749392
0.01081452564103529
0.010839863503351808
0.010797169774305075
0.010705771201755851
0.010654140934348107
0.010652824395801872
0.010667723561637104
0.010659814700484277
0.010618560067377984
0.010572068057954312
0.010558699518442153
0.010609192196279765
0.010712391443084925
0.010790383538696914
0.010783691816031933
0.010718480420764535
0.010682464160490781
0.010720182347577066
0.010779839677270501
0.010836707248818129
0.010831758978310973
0.010834542980883271
0.01084920076886192
0.010846685951109976
0.010836480376310647
0.010834458563476802
0.010831045366358013
0.010830832086503506
0.010838413590099662
0.010827953270636499
0.010805738400667906
0.0108080055587925
0.010821066240314394
0.010811545234173537
0.01078710741130635
0.010751512134447694
0.010686359889805317
0.01063618361018598
0.010687945252284408
0.010807426134124398
0.010836906984914095
0.010705139099154621
0.010559602149296552
0.010523922676220536
0.010617063522804528
0.010690926851239055
0.010678834379650653
0.010662616374902427
0.010704278147313744
0.010754479826427996
0.010786793073639273
0.01085632232716307
0.010965451861266047
0.011044594624545425
0.011084428648464381
0.011126088395249098
0.011154026826843619
0.011149149653501809
0.011144885907415301
0.011152315230574458
0.01115316859446466
0.011140980506315828
0.011107542212121188
0.01104378935880959
0.010949853211641311
0.010834435711149126
0.010740902323741466
0.010710876337252557
0.010704456120729447
0.01066451779101044
0.010608611514326185
0.010575380048248918
0.010577857282478363
0.010626156474463641
0.010685158495325595
0.010655820006504654
0.01052451654104516
0.010435474154073745
0.010491284204181283
0.010591913268435747
0.010596688573714345
0.010542490368243307
0.010550742011982948
0.010628729001618922
0.010687979198992252
0.010668874729890376
0.010599225480109453
0.01054655221523717
0.01052279788069427
0.010478714727796615
0.010392310044262559
0.010308513913769276
0.010271972061600536
0.010275609812233598
0.010293841185048223
0.010318846036680042
0.010360341258347035
0.010400848302524537
0.010379602978937329
0.010307716785464436
0.010303836367093026
0.010416896992828696
0.010520847050938755
0.010555436383001507
0.010544613518286497
0.010578640052117408
0.010646711539011448
0.010684299296699465
0.010668051389511674
0.01061499210773036
0.010552256975788623
0.010497546109836548
0.010473142971750348
0.010482571264728903
0.010469085581135004
0.01042520148679614
0.010435578962787986
0.010507692324463278
0.01055888679344207
0.010563924624584616
0.01055340220220387
0.01054929461563006
0.010578447473235428
0.010663500670343638
0.010768534122034908
0.010824548788368702
0.010822264747694134
0.010813527829013765
0.01081828261492774
0.010794791826047003
0.010717517987359315
0.010629552982281893
0.010586314727552235
0.010586166742723436
0.01058722666464746
0.010577057308983057
0.010574811450205744
0.01055505409836769
0.010462461113929749
0.010325919687747955
0.010252786648925394
0.010293874549679458
0.010371277034282684
0.010450361289549619
0.01048669848125428
0.010492675388231874
0.010459047337062656
0.010416090560611338
0.01044503620127216
0.010525027324911207
0.010526570826768875
0.010414272497873753
0.010298417794983835
0.010254258196800948
0.010227182519156486
0.010178318582475185
0.010163896086160093
0.010192058340180665
0.010198177774436773
0.010173396323807538
0.01016695962054655
0.010212596715427935
0.010298316478729247
0.010382497280370445
0.010439815421123058
0.010468016266822816
0.010474346769042313
0.010479090109001846
0.01049062998732552
0.010499014558736235
0.010524083753116429
0.010593453631736338
0.010651119898539037
0.01060668108286336
0.010493350957985967
0.01043609003070742
0.010450388386379928
0.010431808389257639
0.01035107930423692
0.010296916549559682
0.010322585927788168
0.010370261401403695
0.010363542695995421
0.010307606265414507
0.01027589842211455
0.010313460151664913
0.01037925818003714
0.01041832371149212
0.010430378708988428
0.010443127190228552
0.010481243531685322
0.010545821958221496
0.010605964832939208
0.010611221815925092
0.010538411880843342
0.010448338461574167
0.010407756320200861
0.010404708797577768
0.01042433111462742
0.010450167900417
0.010425270001869649
0.010359569434076548
0.010334382308647036
0.010369410500861704
0.010412978436797858
0.01042009779950604
0.010381732964888216
0.010324400952085852
0.01029928136151284
0.010328749988693743
0.010373826087452472
0.010389048447832465
0.010370487966574728
0.010348445267882199
0.010349241844378411
0.010346781101543457
0.010297562540508808
0.010207904076669366
0.010113980867899955
0.010048676757141948
0.01003102804068476
0.01004671337082982
0.010046820871066302
0.009978693812154233
0.009858226340729742
0.009790727321524173
0.009836466351989656
0.009913823569659143
0.00993208741536364
0.009928879588842391
0.00997751390794292
0.010062382675241678
0.010140436149667949
0.010218351187650115
0.010284454787615686
0.010287447031587363
0.01024279500124976
0.010232755183242261
0.010288054258562624
0.010360639134887606
0.010396048440597952
0.010373919680714607
0.010290344429668039
0.010163842781912536
0.010048361297231167
0.01001177025726065
0.010089443665929138
0.010199105667416006
0.010209088693372906
0.010144698224030435
0.010112496183719486
0.010103205009363592
0.010085295112803578
0.010110921990126372
0.010204395733308048
0.010302310602273792
0.010352819852996617
0.010379685591906308
0.01041116185253486
0.010415006568655372
0.010361090409569442
0.010286359309684485
0.010235650702379645
0.010188996500801295
0.010126326379831881
0.01011714524589479
0.010200140697415918
0.010271363023202867
0.010259134601801634
0.01022426764946431
0.01021521373419091
0.01022039822069928
0.010236174713354558
0.010250040346290916
0.010221219917293639
0.010161403832025826
0.010143181050661951
0.010188806504011154
0.010251793840434403
0.010292114468757062
0.01029444747371599
0.010255258609540761
0.010197383172344416
0.010163126399274915
0.010175006296485663
0.010218742457218467
0.010230342412833125
0.010144736792426556
0.010042501967400313
0.01006156145595014
0.010136862730141728
0.010118923871777952
0.010037503733765335
0.010016747151967138
0.010076515364926309
0.01013771434314549
0.010157853255514056
0.010162991196848452
0.010164288966916502
0.010148296391125768
0.01013030176050961
0.010155871580354869
0.010229887231253088
0.010268143352586776
0.01021044557215646
0.010131314732134342
0.010123407067731023
0.010167575327213853
0.010205811993218959
0.010235078316181898
0.010268672022502869
0.010283285116311163
0.010244335110764951
0.010157062360085546
0.010088335464242846
0.010102887200191616
0.010178585534449667
0.010264541739597916
0.010341314459219575
0.010371459643356501
0.010338481534272432
0.010301657672971486
0.01030153918080032
0.010312134358100593
0.010325002521276473
0.010338033912703395
0.01029431762173772
0.010188390447292478
0.010127589129842818
0.010177884376607835
0.010273800070863218
0.01032018130645156
0.010284683383069933
0.010184719450771809
0.010064551229588688
0.009985899126622826
0.00997174959629774
0.009983630049973727
0.00998411436798051
0.009977895927149802
0.0100080662406981
0.010090563793201
0.010159296549391001
0.010181197102647276
0.010216315831057728
0.010273556848987937
0.010288916688878089
0.010260186423547566
0.010230702729895711
0.010201326496899128
0.010180486508179456
0.010199735581409186
0.010227792798541486
0.01020822293125093
0.010157725892495363
0.010127462563104928
0.010128298932686448
0.010129491738043726
0.010100702170748264
0.01006434960756451
0.010077481870539487
0.010148659213446081
0.010235676800366491
0.010315969742368907
0.010381924421526492
0.010394869402516634
0.010344226830638945
0.010306027110200375
0.010337368783075363
0.010387643973808735
0.01037727129412815
0.010298716470133513
0.010221994610037654
0.010219658236019313
0.010301709189079702
0.010399697525426745
0.010412409570999443
0.010336335392203182
0.010279260671231895
0.01029480885481462
0.010336180343292653
0.010357439077924937
0.010351531221531332
0.010329161605332047
0.010300783445127309
0.010268625065218657
0.01026456532534212
0.010336090889759363
0.010416430137120188
0.010377305648289622
0.010260380413383246
0.010214733958709985
0.010263265562243759
0.010326306752394885
0.0103586884890683
0.010364513178355992
0.010343717506621032
0.010282417014241218
0.010206697250250727
0.010182136073708534
0.010205759555101395
0.010181628896389157
0.010097368711140007
0.01008835107786581
0.010187348839826882
0.010249746001791208
0.010241076957900077
0.01027944183908403
0.010372530831955374
0.010411543380469084
0.010387491355650126
0.010379540810827165
0.01039111852645874
0.010387977017089725
0.010389863201417028
0.010394804284442217
0.010360859897919
0.010306864664889871
0.010289756157435477
0.010300659469794481
0.010298644355498255
0.010274930999148637
0.010222142431885003
0.01016475326847285
0.010168552596587688
0.01023706624051556
0.010310813423711807
0.01032558809267357
0.010241487247403711
0.010090335728600621
0.009949709016364067
0.009883026527240872
0.009911636994220317
0.009992192157078535
0.01005985054653138
0.010085002309642732
0.010069603752344846
0.01003809470217675
0.010017646919004619
0.010009004436433315
0.009991430109366775
0.009973348223138601
0.010001216509845107
0.010051056263037025
0.010040264534763992
0.009994048927910625
0.009985407814383507
0.00999205015366897
0.009989445200189948
0.010000461887102574
0.010021702623926104
0.010046746139414609
0.010087411375716329
0.010138863509055226
0.01018647788790986
0.010205434681847692
0.01017977638868615
0.01016125306719914
0.010199529970996081
0.010244276220910252
0.010229624952189624
0.010167567820753903
0.01010295151732862
0.010064623432699591
0.010060229219961912
0.010058802680578082
0.010018182832282037
0.009935127932112663
0.009835304401349276
0.009768997328355908
0.00978461935184896
0.009845453798770904
0.009860331865493208
0.009819396338425577
0.009785683953668921
0.009778309573885053
0.009787248210050165
0.00981089767999947
0.009804005045443773
0.009717387463897467
0.00960114826913923
0.009575347129721195
0.009680579989217222
0.009802620902191847
0.009800368740689009
0.009695120595861226
0.00963329381775111
0.009662259004544467
0.009716850367840379
0.009785969364456833
0.009880229823756963
0.009931842719670386
0.009888388949912041
0.009800966510083527
0.0097370923217386
0.009713387717492878
0.009753198057878762
0.009859202201478184
0.00992785652168095
0.009877720568329095
0.0097867697221227
0.00976625912822783
0.009828016313258558
0.009910330951679498
0.009951239966321737
0.00994384653866291
0.009917597528547048
0.00988696212414652
0.009853400345891715
0.009826558330096304
0.009811540292575955
0.009793502525426448
0.009779114173725248
0.009796203894075007
0.00981434837449342
0.00978413774864748
0.00973224668763578
0.009706700947135686
0.009702538528945297
0.009701837575994432
0.009713152348995209
0.009749698985833674
0.009823297627735882
0.009918435423169286
0.009971948252059519
0.009961938778869807
0.009946880091447383
0.009983488155994565
0.01006172051653266
0.010128904834855347
0.010162854639347643
0.010168695114552975
0.010149515334051102
0.010121633950620889
0.01010019339621067
0.010108227378223091
0.010174815091304482
0.010253094171639532
0.010272750051226466
0.010258661787956954
0.010256015872582793
0.010261156675405801
0.01027689892333001
0.010313618436921388
0.01034217890817672
0.010312798381783068
0.010235068656038493
0.010170928759034723
0.010136532443575562
0.010117156899068504
0.010127559755928814
0.010164191937074065
0.010192485542502254
0.01019584856228903
0.010165792391635477
0.010096012421417982
0.010008203631732613
0.009942728206515311
0.009929802855476738
0.009961606657598168
0.009998914028983563
0.010029081534594298
0.010062145865522325
0.010074489349499345
0.010058728191070258
0.010074022600892931
0.010139323244802654
0.0101924185664393
0.010221419690642506
0.010268680881708861
0.010314024386461824
0.010318429227918386
0.010317917421925813
0.01036591456271708
0.010434415072668344
0.010453869614284485
0.010429149572737516
0.010420433457475155
0.01044617282692343
0.010493998646270484
0.01054616536013782
0.01055481999181211
0.010494312199298292
0.010423407254274935
0.010416543437168002
0.010449460740201175
0.010437443281989544
0.010379655114375054
0.010332438140176236
0.010285119859036058
0.010201282557100058
0.010123084783554077
0.010121122486889362
0.01017311384435743
0.01020901492331177
0.010222933604381979
0.01022777947364375
0.010228455101605504
0.010276103187352418
0.0103819540864788
0.01045696411980316
0.010443919533863665
0.010367325427941977
0.010259965255390852
0.010168997121509165
0.010148825808428227
0.010167999991681427
0.010136069781146943
0.010064447822514921
0.010045603644102811
0.010079469815827906
0.010116562803741545
0.010160990867298096
0.010208714823238551
0.010253272589761765
0.010309339954983444
0.010347182243131102
0.010324074339587241
0.010272891391068698
0.010270886588841677
0.010318221524357796
0.010340049997903406
0.010298386600334197
0.010195668865926565
0.010060989886987955
0.009968955053482205
0.009957807422615587
0.009980575800873338
0.009993993123061954
0.010005767073016614
0.010032913309987634
0.01008029211545363
0.010132707839366048
0.010168618271127344
0.010188690370414406
0.010183151194360108
0.010141475622076542
0.010122975197155028
0.01017347903456539
0.01023144662147388
0.010240238022524863
0.010223070539068431
0.010218207160942256
0.010238065104931592
0.010271083374973386
0.010286836435552687
0.010259522055275739
0.010211782283149659
0.010195950833149255
0.010199298916850239
0.010151867500972002
0.010062615803908556
0.010016632408369332
0.010019901609048247
0.010016967980191112
0.0100403408636339
0.010135912608820945
0.010218276272062211
0.01021463138749823
0.010201318410690875
0.010236707283183932
0.010263525082264096
0.010249680334236472
0.010225958109367638
0.010203492236323655
0.010173626048490404
0.010128198971506209
0.010067034075036644
0.009997872347012162
0.009930485598742963
0.009896606663241983
0.009915534765459597
0.00995630381628871
0.009978266507387161
0.009975145836360753
0.009979047663509846
0.010004199449904263
0.010027728597633541
0.01004836694803089
0.010075950138270855
0.010097438544034958
0.010093529541045428
0.010057727103121578
0.010025127097032965
0.010050259442068636
0.010137160327285528
0.010222303266637027
0.010235634655691684
0.010200670496560633
0.01021535713225603
0.010309930848889053
0.010412919376976788
0.010450113047845662
0.010431515839882196
0.010426709838211536
0.010447534476406872
0.010443124384619296
0.010411566873081028
0.010393647681921721
0.010396482208743691
0.010397683940827846
0.010368010797537863
0.01030481257941574
0.010268160393461585
0.010309043871238828
0.01037122133653611
0.010402405601926148
0.010454975599423051
0.010549732344225049
0.010604819077998399
0.010586990364827216
0.01054847812280059
0.010520935971289874
0.010490363100543618
0.010437141377478839
0.010385048086754977
0.01037380268331617
0.010385134192183613
0.01039201364852488
0.010412543611600995
0.010442902483046055
0.010438509080559015
0.010396775770932436
0.010380451916716993
0.010422879387624562
0.01047518582083285
0.010494248210452497
0.010499150371178984
0.010512728355824947
0.010521622602827846
0.010498657757416367
0.010445414171554148
0.010392573419958353
0.010372293009422719
0.010413470608182252
0.010494972784072161
0.010544516770169139
0.010539437793195248
0.010501091894693672
0.010420024571940302
0.010300687621347606
0.01020706438459456
0.010150442118756473
0.010111028281971812
0.010078268963843584
0.01008372119627893
0.010127236032858491
0.010130505301058293
0.010088128456845879
0.010038659051060677
0.010101527702063321
0.010202822713181377
0.01022125840652734
0.010166068370454013
0.010134409926831723
0.010145301232114434
0.010156214996241033
0.010177580364979804
0.01019942251034081
0.010136143290437757
0.009991013370454311
0.009886352764442562
0.009864305485971272
0.009858323275111616
0.009842947954311967
0.009853080967441202
0.009895020057447254
0.009930853713303805
0.009954589349217714
0.00999346639495343
0.010025951378047467
0.010025464943610132
0.010015069167129695
0.009992102649994195
0.009928847928531468
0.009863200644031168
0.00987409926019609
0.00994901154190302
0.00998271105811
0.00994079077616334
0.009888757294975221
0.009880201234482229
0.009921008129604161
0.009980319649912417
0.010017445995472371
0.010016481699422002
0.009997232775203884
0.01001196360681206
0.010059861675836146
0.010048727029934526
0.009955073478631676
0.009871215000748635
0.009833183935843409
0.009795654816552996
0.009742909157648683
0.009685352691449226
0.009630931001156568
0.009596912316046655
0.009578765914775432
0.009554704572074114
0.00954570754431188
0.009593763700686396
0.009686508635058998
0.009763662950135768
0.009783025020733476
0.009760955353267492
0.009718125495128333
0.00965409614611417
0.009590862952172756
0.00956371617037803
0.009568993686698377
0.009584016697481275
0.009598522135056554
0.009596505467779935
0.009569134400226175
0.009547648262232542
0.009575129933655262
0.009626980740576982
0.009621998062357306
0.009546269522979855
0.009479143158532679
0.009491883129812776
0.009572234246879816
0.009636008185334504
0.00961501874960959
0.009523288332857191
0.009430458080023527
0.009402201566845179
0.009440968856215476
0.00948630676139146
0.009495518621988594
0.009470573272556066
0.009437118242494762
0.009420332503505052
0.009405793263576925
0.009386209482327103
0.009386519971303641
0.009383582836017012
0.0093564274860546
0.009359421101398766
0.009416285105980932
0.009473255919292569
0.009504222269169986
0.009486018274910748
0.009452714645303785
0.009455473544076085
0.009496919699013234
0.009567640591412782
0.00962571995332837
0.009677132391370833
0.009629560597240926
0.009508783454075456
0.009410053030587734
0.009424217375926674
0.009494963139295577
0.009510799362324178
0.009449094780720771
0.009340337929315864
0.009228958468884229
0.00920319919474423
0.009284203923307359
0.009362628031522036
0.009381362362764776
0.009413963090628386
0.009479012335650622
0.009486840018071234
0.009440017272718251
0.00945670017041266
0.00953505606856197
0.009559625810943544
0.009522068859077991
0.009473751462064684
0.00941858499776572
0.009398017330095172
0.009459696682170034
0.00953854844905436
0.009529024073854088
0.009429325717501342
0.009340965067967772
0.009333855314180255
0.009367659301497043
0.009377990900538861
0.009360838634893297
0.009340627244673669
0.00930859382264316
0.009241151283495128
0.009167789840139448
0.009133025449700653
0.009135929625481367
0.009170717685483396
0.00921135874465108
0.009195967786945402
0.00914311250206083
0.00914087503682822
0.009196248538792133
0.009259806941263377
0.009304305762052536
0.009296178687363862
0.00924060873221606
0.009204235398210586
0.009210181180387736
0.00923837951850146
0.009286835808306932
0.009340801890939474
0.009371056952513755
0.009380672457627953
0.009402393782511353
0.00945272667799145
0.009502207790501416
0.009512972598895431
0.009496689485386013
0.009492952902801334
0.009517067284323276
0.009561704411171377
0.009616135717369616
0.009656408149749041
0.009646758381277322
0.009609144935384393
0.009616520591080188
0.009663080302998424
0.009669567532837391
0.009605298927053809
0.009515966647304594
0.009470674069598317
0.009491683528758586
0.009542476735077798
0.009588619503192604
0.00960836856160313
0.0095778732560575
0.009530184920877219
0.009552435521036386
0.009645336922258139
0.009695122479461133
0.009650277397595346
0.00959509904962033
0.009590574041940272
0.009590970068238676
0.009567503249272705
0.0095623445417732
0.009600377548485995
0.009644326441921293
0.009641156606376171
0.009607107411138713
0.009617120949551463
0.009678784026764333
0.009731332873925566
0.009772633714601398
0.009841607357375324
0.009903112603351473
0.00990668375045061
0.009911264004185795
0.009990136600099503
0.010095437606796622
0.010078555885702372
0.009939345060847699
0.009827885157428683
0.009808247284963727
0.009828644199296832
0.009869732880033552
0.009920727000571788
0.009950747275725006
0.009980438300408423
0.01002857472281903
0.010047494447790087
0.010018208539113402
0.009981567529030145
0.009944958835840225
0.009883242039941252
0.009821569300256669
0.009805342289619148
0.009807679513469338
0.009787564217112958
0.009765765597112477
0.009747109198942781
0.009713677261024713
0.009693143055774272
0.009702748339623212
0.009723540139384567
0.009740063748322427
0.009736043401062489
0.009719209321774542
0.009705625106580556
0.009679863224737345
0.009646503143012524
0.00963968399912119
0.009662210596725345
0.009675394133664668
0.009642888479866087
0.009568727598525584
0.00949480884708464
0.009479871490038932
0.009549668608233332
0.009643823802471162
0.009688093466684223
0.009677175590768456
0.009619876607321203
0.00954526443965733
0.009542128844186664
0.009632710344158113
0.00971994323655963
0.00973660176154226
0.009703012318350374
0.009646941889077425
0.009580007777549327
0.009512314163148404
0.00944727738853544
0.009403482303023339
0.009401373276486992
0.009399894885718822
0.009353094999678433
0.009303840342909098
0.009300267887301743
0.009301966303028167
0.009263329450041055
0.009226397210732103
0.009253398510627448
0.009338029436767101
0.009434515181928872
0.009498275024816394
0.009508445211686194
0.009508229740895331
0.009560413216240704
0.009654189771972597
0.009733292064629495
0.00977341755758971
0.009773771781474351
0.00973350235261023
0.009677590504288673
0.009673440954647958
0.009744322844780981
0.009799405471421779
0.009776852363720535
0.009748838376253843
0.009777165353298187
0.00983135003130883
0.009877969310618937
0.009905492858961225
0.009896980416961014
0.009865035051479936
0.009858408845029771
0.009903062218800187
0.009995538434013724
0.010102620227262377
0.01013317085802555
0.010053407568484544
0.009965465953573584
0.009937259778380393
0.009920042348094285
0.009876227690838277
0.009833114771172404
0.009818609780631959
0.009810504117049278
0.009775688317604362
0.009747475148178636
0.009768671719357372
0.009812532612122594
0.009861993002705276
0.009933948596008123
0.010003706058487296
0.010041742166504265
0.010067547960206867
0.010097774448804558
0.01012808590196073
0.010159678081981838
0.01017485419753939
0.010153899579308926
0.010127480649389327
0.010142833543941378
0.010200225650332868
0.01024752396158874
0.010256189317442477
0.010278256111778319
0.010357685629278421
0.010450963964685797
0.010490182754583657
0.010455396021716296
0.010380413113161922
0.010317199910059572
0.010293808034621179
0.010314351357519626
0.010368696777150035
0.010423173462040723
0.010441917665302754
0.010424038106575608
0.010392786641605199
0.01036645473446697
0.010358864539302886
0.010384985348209738
0.010445532058365643
0.010500781005248427
0.010481899254955351
0.010374078708700836
0.01027592517901212
0.010283384192734956
0.010355231082066894
0.010411281920969486
0.010431479606777429
0.010400206544436514
0.010332178520038725
0.010290348259732128
0.010283965547569097
0.010279403775930404
0.010278923492878676
0.01029105889145285
0.010304836924187839
0.010328969247639179
0.010371914813295007
0.010403496609069408
0.010424758847802877
0.010477909231558441
0.010543251046910881
0.010567375123500825
0.010568698029965162
0.010601326720789075
0.010636157682165503
0.010584017811343074
0.010448480751365423
0.010324361929669977
0.010263095707632602
0.010254832305945457
0.01026968093123287
0.010260292650200427
0.010216478067450225
0.010194437662139535
0.010224187159910797
0.010273660821840168
0.01030122155789286
0.010267750504426658
0.010164639158174395
0.01004707499872893
0.009977726773358881
0.009952227603644132
0.009913754775188863
0.009838474923744797
0.009755438361316919
0.009689771947450935
0.009659925261512398
0.009680735301226378
0.009712555217556656
0.009693499384447933
0.009628732483834028
0.00954422895796597
0.009456216236576437
0.009443165501579642
0.009532030359841882
0.009591161720454693
0.009514258611015975
0.009372270591557026
0.009310375885106623
0.009386300118640065
0.00949719078373164
0.009559676009230316
0.009606819786131381
0.00966549210716039
0.009703532294370234
0.009691734514199198
0.009628142137080431
0.009552056794054806
0.009526954283937811
0.009554166276939214
0.00955948988441378
0.009480724586173892
0.00933136437088251
0.009194337273947894
0.009144885148853064
0.009185163006186485
0.009260712023824454
0.009285608436912299
0.009206836014054715
0.009098409893922507
0.00907687434926629
0.009110114653594792
0.009068407560698688
0.008963291659019887
0.00891296869609505
0.008931646053679288
0.008959299172274768
0.008957151514478028
0.008928922922350466
0.00891596803907305
0.008920230749063195
0.00891751453280449
0.008921369863674044
0.00894676171708852
0.008998330589383841
0.009064793544821441
0.009107286822982133
0.009128747112117707
0.009174328432418406
0.009245771295391024
0.00930902454070747
0.009350967700593174
0.009365837485529483
0.009330830187536776
0.009260464794933795
0.009220944195985794
0.009242487424053251
0.009304623994976282
0.009377545253373682
0.009431253825314343
0.009469139548018575
0.00951901736203581
0.009581801407039165
0.009634957197122276
0.009649434168823063
0.009606709871441126
0.009508066843263805
0.00937306547537446
0.009234590330161154
0.009175074342638255
0.009192458349280059
0.009216069281101226
0.009204202820546925
0.009162529516033828
0.009117681565694511
0.009117621122859418
0.009183639232069253
0.009249554877169431
0.009258938999846578
0.009252868760377168
0.009256526287645101
0.00924059568438679
0.009206625283695757
0.009172683185897767
0.009139670999720692
0.009102833829820156
0.009082630933262408
0.009136371142230927
0.009257184918969869
0.009335925802588463
0.009310960359871388
0.009270750335417688
0.00934247049037367
0.009507474005222321
0.009646581914275885
0.009726075772196054
0.009775974554941058
0.009786030757240952
0.009748923797160388
0.009720409093424677
0.009752159472554922
0.00981353975366801
0.009842246570624411
0.009825665736570954
0.009797591427341103
0.00979235811624676
0.00983530692756176
0.009930577669292688
0.010029367194510997
0.010048981932923197
0.009987724237143994
0.009883259059861302
0.009764675218611955
0.0096742711821571
0.009692365662194788
0.009805158232338726
0.009931149831973017
0.010016344524919986
0.010025961585342883
0.009940660800784826
0.00982257685624063
0.009785752655006945
0.009863324277102948
0.009946564012207091
0.00993715928401798
0.009887498565949499
0.009868215629830956
0.009887645989656448
0.009954834426753222
0.010024049771018326
0.010020991526544095
0.01000309229362756
0.010076291570439934
0.010160040999762714
0.01011616007424891
0.010015952889807523
0.010004272069782019
0.010087389298714697
0.010164929507300257
0.010147730875760317
0.010066458177752792
0.010010407129302621
0.009972711433656514
0.00990680607035756
0.009836815716698765
0.009800842464901507
0.009801620081998409
0.009805578263476491
0.009738746439106763
0.009600795125588774
0.009537630784325301
0.009640954793430865
0.009799578245729208
0.00988421197514981
0.009912491249851883
0.009938724003732205
0.009949547993019224
0.009924288257025182
0.009880372509360313
0.00984998449217528
0.009838132834993303
0.00979969760403037
0.009711306816898286
0.009649275406263768
0.009703558702021838
0.009834389607422054
0.009935178719460964
0.009976217551156878
0.009999475348740816
0.009999445546418429
0.009994602729566395
0.009993467396125198
0.009987675012089312
0.010011746124364436
0.010093063334934413
0.010160313942469657
0.010134691381826997
0.010067015830427408
0.0100225003156811
0.009971878044307231
0.009929969133809209
0.009945229357108475
0.009962517791427672
0.009933251370675862
0.0099188391584903
0.00997808831743896
0.010084167197346687
0.010165698365308345
0.010185955087654292
0.010181025066412986
0.010212771631777286
0.010272138542495668
0.010273692877963186
0.010183750493451953
0.010060050967149436
0.00996487082913518
0.009930386603809894
0.009958043373189866
0.010008012247271835
0.010023530190810561
0.009992897831834853
0.009970211172476411
0.00999273782595992
0.0100290793646127
0.01004605277441442
0.010055591887794434
0.010065730279311538
0.010040618642233313
0.009959675576537848
0.009873162764124572
0.009861748809926211
0.009961245646700263
0.010105166402645409
0.010208865576423705
0.010240057189948857
0.010229499423876404
0.010179890054278076
0.010102224363945424
0.010072071463800967
0.010145178460516036
0.010271952403709293
0.010364161492325365
0.010394069766625762
0.01041326598264277
0.01046916276216507
0.010520236673764885
0.010528468177653849
0.010542058474384249
0.010594687568955123
0.010647712075151503
0.010650307037867606
0.010582206989638507
0.010469515761360525
0.010410082116723061
0.010489228805527091
0.010634496859274804
0.010714008221402765
0.010719195655547083
0.010703810639679432
0.010683531253598631
0.01066658776719123
0.010682618105784058
0.01074116871226579
0.010783690130338072
0.010775230610743165
0.010795220979489387
0.010888368166051805
0.01096020009368658
0.010942745199427008
0.010905420477502047
0.010913472613319755
0.010918557615950704
0.010862373360432685
0.010769779980182647
0.010692905434407294
0.010657008029520512
0.010675390525721013
0.010735955690033733
0.010796147244982422
0.010829366506077348
0.010827993312850594
0.010783661911264062
0.010747527601197363
0.010643556425347924
0.010544484318234026
0.01048477168660611
0.010472317510284483
0.010467211506329477
0.010457145683467388
0.010475420644506812
0.010516812172718347
0.01054988262243569
0.010563094858080149
0.010540082473307849
0.01048840559553355
0.010479529183357953
0.010553715727292001
0.010645566605962813
0.010702769481576979
0.010747351511381566
0.01077134341467172
0.01076911339070648
0.010809699837118387
0.010902482680976391
0.010959812491200864
0.010956022799946367
0.010928411185741425
0.010870506567880512
0.010775502170436085
0.010698738372884691
0.01068004263099283
0.010692118732258678
0.010723993508145213
0.010792269124649465
0.010853177504613995
0.010834304038435221
0.010745507907122373
0.010687577375210821
0.010730500519275665
0.010821365169249475
0.010861453297547997
0.01081476089078933
0.010722967013716698
0.01065834184642881
0.010645677694119513
0.01065973446238786
0.01069854240398854
0.010766884782351554
0.010830684686079622
0.010869422391988338
0.010877610393799841
0.010810698457062244
0.010667180581949652
0.010529574062675238
0.010439966479316354
0.01038698498159647
0.010349543010815978
0.010345134828239679
0.010362725113518536
0.010364525164477527
0.010351270320825279
0.01034127845428884
0.010312448032200336
0.01025544801261276
0.010212003216147424
0.010202135657891631
0.01019681157078594
0.010176981035619974
0.010170176583342254
0.010222560754045843
0.010341625246219337
0.010474433577619492
0.01056686311494559
0.010591448596678675
0.010523835802450776
0.010410713306628168
0.01036167252343148
0.01040076588280499
0.010476593896746635
0.010557896750979125
0.010600733240135014
0.010566937155090272
0.010535133951343596
0.010611999197863042
0.010717775989323854
0.010682866447605193
0.010529401078820229
0.01044774214271456
0.010532758375629782
0.010659800488501786
0.010646396433003247
0.010497197099030018
0.010386656373739242
0.010410308223217726
0.010490290755406022
0.010519311539828777
0.01048685978166759
0.010457370025105774
0.01045117856003344
0.010432602502405644
0.010434025800786912
0.010512699489481747
0.010562155432999133
0.010596351805143059
0.010604611304588616
0.010635123942047358
0.010655959849245847
0.010651350235566497
0.010656634918414057
0.010665412656962872
0.01063202491030097
0.010569975716061891
0.01053516814019531
0.010534381126053632
0.010533380382694304
0.010523602049797773
0.010524764838628471
0.010518312104977667
0.010449992674402893
0.01037532280664891
0.010331527022644877
0.010348932053893804
0.010348980692215263
0.010308298845775426
0.010244367490522564
0.01016179465688765
0.010079959006980062
0.010042839795351028
0.010074623282998801
0.010139703662134706
0.010187247493304312
0.010209541833028198
0.010199068202637137
0.01013619381468743
0.010055361981503665
0.010040929750539362
0.010107314372435212
0.010139770354144276
0.010066474452614785
0.009973152033053339
0.009945809952914714
0.009985737670212984
0.010081195849925279
0.010193596393801272
0.01024943428579718
0.010221447283402085
0.010136826280504465
0.010045467838644982
0.010014286981895566
0.010047955946065485
0.010072707505896688
0.01009063104633242
0.010179515602067113
0.010323739061132074
0.010434166914783417
0.010482617160305381
0.01053289756178856
0.010564855700358748
0.010514896614477038
0.01041855533607304
0.010362680731341244
0.010387076372280717
0.010481332801282406
0.010578346285037697
0.010622434099204839
0.010651526306755841
0.010692427759058773
0.010685677626170217
0.010598150580190122
0.010477727171964943
0.010384673532098532
0.010329102119430899
0.010257580666802824
0.010160832316614687
0.010134775722399354
0.01019928237888962
0.010239224722608924
0.010216886550188065
0.010202353410422802
0.010207226108759642
0.010207885741256178
0.010227453391999007
0.01024254905525595
0.010183790512382985
0.010110769858583809
0.01015678135678172
0.010278495731763542
0.01032177739776671
0.010284429127350449
0.010282472488470376
0.010357336578890682
0.010454911794513464
0.010510763972997666
0.010503518870100379
0.010461607798933983
0.01043380945455283
0.01042349643073976
0.010389667395502329
0.010353383566252887
0.010360828689299524
0.010365545353852212
0.010324578136205673
0.010288890623487533
0.010292258462868631
0.010287003852427005
0.010239619547501206
0.01018650745972991
0.010156189277768134
0.01012850800063461
0.010102165751159192
0.010114829218946398
0.010160946021787822
0.010170174539089203
0.010117400591261684
0.010073119653388857
0.010082091921940445
0.010098269786685704
0.010112865827977657
0.010182591564953327
0.010236039753071963
0.01021356153767556
0.01010520531795919
0.010046352869831026
0.01009372504428029
0.010197706851176918
0.010302202366292477
0.010389301511459052
0.010452601527795195
0.010462506376206875
0.010403734375722706
0.010321788336150349
0.01026380513329059
0.010231861090287566
0.010241897306405007
0.010313235116191208
0.010370368678122759
0.01033075973391533
0.010268800710327923
0.010285344920121134
0.010328161483630537
0.010325953480787575
0.010307016307488084
0.010285605979152023
0.010241942647844553
0.01020107054617256
0.010192873398773372
0.010212291083298623
0.010234952829778194
0.010217968779616058
0.010167265986092388
0.010165930371731519
0.010221801963634789
0.010225674789398908
0.010140769798308611
0.010052302395924926
0.010005668546073139
0.009968559956178069
0.009950929526239634
0.01000336917117238
0.010099190319888294
0.010144942360930144
0.01009368228726089
0.00999785762745887
0.009951736750081182
0.009956672652624548
0.009922709199599922
0.009846293264999986
0.009818882974795997
0.009850265407003463
0.009864341085776687
0.009823555294424295
0.00976579030510038
0.009774836390279233
0.009869073675945401
0.009949685698375106
0.009951213127933442
0.009918251559138298
0.009894777545705438
0.009865948189981282
0.009819055530242623
0.009778548306785524
0.009774750750511884
0.009823732925578952
0.00990454641636461
