0.010403673123801128
0.010455148707842454
0.01048398921615444
0.010531617562519387
0.0105579664837569
0.010599977325182409
0.010623318935977295
0.010648525927681476
0.010686287673888729
0.010739067756803706
0.010788158914074301
0.010794466973748059
0.010754263878334313
0.010712531059980393
0.010692608386743813
0.010679788594134152
0.010676656347932294
0.010700922574615105
0.010733560979133472
0.010740530949551613
0.010737428911961616
0.010754603105597197
0.010791485828813166
0.010817815978080035
0.010848872321657837
0.010887888665311039
0.010839798246743158
0.010710553749231622
0.010579804667504505
0.010515318581601605
0.01055295116850175
0.010661235484294594
0.010746538157109171
0.010744184623472392
0.010681599632371218
0.010615268925903365
0.010544295000145212
0.010459475885145366
0.01040487282210961
0.01040153277455829
0.010422041949350386
0.010452057612128555
0.010479718651622534
0.01049709810409695
0.01053018524311483
0.010590292772976682
0.010628038198919967
0.010598282252904028
0.010547944946447388
0.010546753641683608
0.010558374894317239
0.010511322011006996
0.01044167876825668
0.010436895695747808
0.010487590471748263
0.010507507477886974
0.01048394976882264
0.010490600556368008
0.010560932718217373
0.010635857625165954
0.010640243048546836
0.010599913118639961
0.010616777082905173
0.010701015690574422
0.010751074905274436
0.0107199543598108
0.01070373943541199
0.010686472062952817
0.010685858982615173
0.010663945010164752
0.010622169574489818
0.010603066218318418
0.010621303275693208
0.010631874195532874
0.010604143101954833
0.010557069763308391
0.010523456473601983
0.010531332765240223
0.010562419092748314
0.010554712044540792
0.01050859757931903
0.01050331404665485
0.010564570324495435
0.010612578883301466
0.010578577588312328
0.010540419018361717
0.010472436380805448
0.010478205957915633
0.010535542604047805
0.01053479514317587
0.01045461124740541
0.010409350346308202
0.010462876489618793
0.010542150064138696
0.010586583983385935
0.010636278336169197
0.010721010046545416
0.010784198747714982
0.010779045543167741
0.01075311995111406
0.010769509009551257
0.010805711395805702
0.010810291424859316
0.010808189392555505
0.010839744189288467
0.010856283609755338
0.010805057327961548
0.010735391491325573
0.010707799276569858
0.010699904740322381
0.01068013246054761
0.010661069967318327
0.010641871746629476
0.010596052469918505
0.010533907046774402
0.01050557502778247
0.010509402252500877
0.010482200336409732
0.010422025804873556
0.010392572931014001
0.010402995701879263
0.010417001334717497
0.010428377916105092
0.010445153912296518
0.010464458846254274
0.010482207937166095
0.01049961734097451
0.010531952033052221
0.010591269588330761
0.010642404010286554
0.010629082416417078
0.01055619382765144
0.010482297291746363
0.010448491071583703
0.010453900613356382
0.010473992563784123
0.010498739427421242
0.010524784843437374
0.010529147223569452
0.010520118047716097
0.010529643830377609
0.010541297883028164
0.010541618199786171
0.010571057047927752
0.010645280712051317
0.01070129860076122
0.010678773811087013
0.010620047773700207
0.010602129573235287
0.010620408584363758
0.01063143833191134
0.01062315162504092
0.010598690862534567
0.010571721359156072
0.010584018221125006
0.010642715016147122
0.010660987898008898
0.01057502550072968
0.01044962893356569
0.010397425278788432
0.010464245327748358
0.01056966173578985
0.01058744326699525
0.010527872245293111
0.010523231793195009
0.010628800161648543
0.010720171220600604
0.010765814665937797
0.010733968944987283
0.010685458489460871
0.010655900377314538
0.010647894735448062
0.010652586214710026
0.010659813322126866
0.010649675112217665
0.010610427499050274
0.010561343255685642
0.010519172771601006
0.010494900603080169
0.010509703409625218
0.010547961642732844
0.0105495712289121
0.010492294547148048
0.010439289958449081
0.010466847183415666
0.010510639725252987
0.010589099237695337
0.010604445360368118
0.010566172767430543
0.010518808136694133
0.010483084679581225
0.01045258283149451
0.010422216334845871
0.010407326529966668
0.010418938429793342
0.010437447524163873
0.010427609873004258
0.010380023138131945
0.01034007445559837
0.010348896350478753
0.01036854074918665
0.010361976460553706
0.010378133765188978
0.010449646833585576
0.01053121249191463
0.010599354464793577
0.010664040052797646
0.010693754529347644
0.010653459428576753
0.01057056755758822
0.010511767892166972
0.010527274985797704
0.01060143085429445
0.010659555952297523
0.010644034018041567
0.01055801157373935
0.01045761220389977
0.010407006558962166
0.01040304081980139
0.010403748963726684
0.010431405550334602
0.01051716202753596
0.01059477933566086
0.010596133368089795
0.01056951958918944
0.01060744392569177
0.010714581538923084
0.010800264842109754
0.010806827618507668
0.010771200908347964
0.010719800555380061
0.010634890558430926
0.010555617940844968
0.010531782910693437
0.010510601687710732
0.010445887577952817
0.010399927595863119
0.01042948809801601
0.010500297110993415
0.010533735725330189
0.010495378680061548
0.010454215148929507
0.010491522684460505
0.010562672335654498
0.010567409469513223
0.010523643980268388
0.010535124751040712
0.010599345691734924
0.01061845984077081
0.010583299602149054
0.010545794415520504
0.010494383173063398
0.010432575199520216
0.010415650160284713
0.010410508529748768
0.010345700964098797
0.010293243654305116
0.01035130791598931
0.010454699548427015
0.010492620449513197
0.010467180435080081
0.010454552517039702
0.010490882138255983
0.01052129071787931
0.010492639918811619
0.010448927162215113
0.010458119115792214
0.010513420214410872
0.010577091006562114
0.010649941329611466
0.010708769119810313
0.010688450830057263
0.010611635351087898
0.010568121062824502
0.010560161308385432
0.0105393066839315
0.010523232244886459
0.01055089517380111
0.01059721660683863
0.010605461410013959
0.010567401691805572
0.010533524369820952
0.01055067337001674
0.010606719588395208
0.010656045123469085
0.010683876111870631
0.010704279955243692
0.010711989850969985
0.010693165173288435
0.010679236071882769
0.010703455010661856
0.01071831230656244
0.01067065091454424
0.010597288346616551
0.01054300957475789
0.010492059563985094
0.010444228404667228
0.01043284495943226
0.0104508481931407
0.010477743558585644
0.010537329089129344
0.01061804881086573
0.0106334315543063
0.010561823340831325
0.010499319670489058
0.010508246335666627
0.010554490820504725
0.010614038706989959
0.01070080725941807
0.010787810069741681
0.010800989610143006
0.010717566651292145
0.010612736413022503
0.010553800555644557
0.010524309469619766
0.010505125769414007
0.010510035060578958
0.010524038563016803
0.0105253863777034
0.010531908693956211
0.010545816805679351
0.010538933239877224
0.010522758037550374
0.010530874285614118
0.010558524371590465
0.010581113708904013
0.010586344244657084
0.010587628359207884
0.010605447718407959
0.010628525507636368
0.010650498114991934
0.010690900746267289
0.010719282301142812
0.010689590437104926
0.010651269591180608
0.010666566556319595
0.01069011448067613
0.01066095630521886
0.010608859364874662
0.01059363376814872
0.010618698777398095
0.010631348879542202
0.010593581199645995
0.010546461287885904
0.010563610953977332
0.01063744470360689
0.01067554548382759
0.010639578634873033
0.010600147044751793
0.010607512156711891
0.010641549578867853
0.010697669661603869
0.010765789860161022
0.010786036200588569
0.010727510754950344
0.010636708212550729
0.010586271085776389
0.010600155814317986
0.01062624821672216
0.010605934610357508
0.01055724775767885
0.010522267950000242
0.010483003066619858
0.01043762904824689
0.010447492212988437
0.010513029637513683
0.010560189762618393
0.010558958889450878
0.010512946886010469
0.010425699664046988
0.010353599608642981
0.010351127744652331
0.010368395869154483
0.01034147676313296
0.010319422280881554
0.010371947432868183
0.010461811592103914
0.010496543089393526
0.010440326236421242
0.010366277508437634
0.0103798574837856
0.010464611777570099
0.010512739060213789
0.010499247047118843
0.010484364058356732
0.010498254946433007
0.01052805371233262
0.010554698249325156
0.010562961180694401
0.010544143978040665
0.010517662798520178
0.01053802198730409
0.010601864377968014
0.010620090210577473
0.010569248977117241
0.010527388092596084
0.010536571177653968
0.010567494024289772
0.01057693092036061
0.010539913525572047
0.010505984633928165
0.010586206880398095
0.010767060490325093
0.010857954148668796
0.010767753560794518
0.010648946333676577
0.010558631983585656
0.010518874733243137
0.01047226101742126
0.010448768064379691
0.010489913236815482
0.01054632188170217
0.01054312986554578
0.010511219404870644
0.010546200388344005
0.010635508951963857
0.010682076161028817
0.01068052781978622
0.010693558164639398
0.010710835001664237
0.010683321031974629
0.010635073281591759
0.010622137151658535
0.010639415119076148
0.01065323747927323
0.010654717737343162
0.010632000159239397
0.010572780733928084
0.010508980222512036
0.010486169657669962
0.010496050338260829
0.010497385556809603
0.010487942964537068
0.010491243758006022
0.010503709106706083
0.01051830844837241
0.010537592730252072
0.0105470878072083
0.010546887818491087
0.010558936932357028
0.010575487064197659
0.010583758094580844
0.010608042223611846
0.010643408598843962
0.010629387779626995
0.010565861143404617
0.010542834918014705
0.010601565069518983
0.010670921721030027
0.010673176402924582
0.010619776976527646
0.01057311096577905
0.010565520875388756
0.01058535584481433
0.01062083859462291
0.010661940564168616
0.010657345314975829
0.010585999576142058
0.010543998432112858
0.010609191835392266
0.010698006190359592
0.010706746858777478
0.010673848538426683
0.010661316574551166
0.01063788921921514
0.010590050945756957
0.010572307425318285
0.010610753337386996
0.010688164534512908
0.010776107723359019
0.010829709520330653
0.0108273132215254
0.010809824446914718
0.010819187031593173
0.01083113217027858
0.010803244024282321
0.010735455441754312
0.010671509155072272
0.010678713957313448
0.010752886371919885
0.010787237780168652
0.010737937294179574
0.01068921975325793
0.010695923416642472
0.01071736114914529
0.010716030055191368
0.010696670864708721
0.010670718319015577
0.010652629403630272
0.01064215351594612
0.01060557171353139
0.010547870969166978
0.010539479155559093
0.010589908232213929
0.010613956834422424
0.01058031605789438
0.010549338951241225
0.010558231235481799
0.010604368203785271
0.010690262365387752
0.010766088491072879
0.010726643207017333
0.010605237836716696
0.01060768854105845
0.010789696868741885
0.01095026706228964
0.01103202414815314
0.011015832702396438
0.010958923706784845
0.010903288930421695
0.010882992948172614
0.010884885229170322
0.010867032911628485
0.010813871475402265
0.010730466089444234
0.010651818804908543
0.010623174126958474
0.010625836440594867
0.010622999216429889
0.010640295393532142
0.010694651588564738
0.010736555721377954
0.010745604193070904
0.010773585215210914
0.010831873785937205
0.01085962372366339
0.010850232148077338
0.010853082475950942
0.010851573025574908
0.010812351456843316
0.010776951300213113
0.010790826962329447
0.010840652578044683
0.010884883970720693
0.010889283802825958
0.010848505205940455
0.010802533099194989
0.010790845744777471
0.010773663547588512
0.01070277123944834
0.01063642157940194
0.010643174896249547
0.010676912516355514
0.010664466930320486
0.01063951441203244
0.010691372982691974
0.010816831670235843
0.010922079189913347
0.010959464755142107
0.010961164410691709
0.010948853417066856
0.010906977215781807
0.010835428396239877
0.01076677484321408
0.010729846634203568
0.010721728391945361
0.010728020489914343
0.010734822740778327
0.01072282831533812
0.01070576494676061
0.01072814262821339
0.010784277227940038
0.01083247815608047
0.01088928763056174
0.010987228407757357
0.011076023363275454
0.011083757806336508
0.011018844178179278
0.01093624131870456
0.010869194858241827
0.010835442934185266
0.010847832442959771
0.010885997905861587
0.010906137212878093
0.010889286341844127
0.010852324408479035
0.010823061417322605
0.010805086116306484
0.01077388339675963
0.010732008108170703
0.010730488336412236
0.010789988123578951
0.010849734183866531
0.010858757277019323
0.010855106974486262
0.010878652612445876
0.010894599405582994
0.010878843551035971
0.010871580784441903
0.010903643071651458
0.010946744224056601
0.010927144476445392
0.010813439564080908
0.010704083868768066
0.010703704555053263
0.010758789259707555
0.01076553483842872
0.010735082604223862
0.010729788173921406
0.010746288294903934
0.010736094689927995
0.010678652258357034
0.010594289272557945
0.010511809473391621
0.010447412669891491
0.010394590483047068
0.010363858471391723
0.010411312368232757
0.010518487648805603
0.010552739179693162
0.010472389900824055
0.010394449561135843
0.010386798104736954
0.010399941226933152
0.01041234537260607
0.010449790564598516
0.010503334472887219
0.010543172664474696
0.010555037966696545
0.010539883917663246
0.010510703272884711
0.010479854828445241
0.010456475125392899
0.010444799331016838
0.010435032640816643
0.010429553986759856
0.010441581102786585
0.010464092436013744
0.010489270765101538
0.010511638922616839
0.010515679854433984
0.010492107627214864
0.010439436716260388
0.010378788722446188
0.010354305090149864
0.010373989967629314
0.01040039368555881
0.010414984636008739
0.01043198389117606
0.010445888640824706
0.010429909385275096
0.010391573569504544
0.01036881681298837
0.010385363029781729
0.010419381494866684
0.010396546483971179
0.010289529716828838
0.010182797877350823
0.010141002158634364
0.01013537286198698
0.010137799812946468
0.010163267567986623
0.010223166096257046
0.010288388184271753
0.010316177044296637
0.010309906647307798
0.010307906676316633
0.01031569710583426
0.01029407063499093
0.010226369578158484
0.010161993057699874
0.010151603575795889
0.010173465709667652
0.010167264739284292
0.010120202372781932
0.010095513677224516
0.01013993276632391
0.01019661415135488
0.010204856505151839
0.010191916225012391
0.010171979626175016
0.010114670163020492
0.010053021324565634
0.010051671367837117
0.010093741400633007
0.010129031747346744
0.010171825119759887
0.010262897291686385
0.010380605553509668
0.010451284082373604
0.010432774783112109
0.010353616712382063
0.01028426607255824
0.010264951220015063
0.010264567657141016
0.010253322868375108
0.010258758929558099
0.010291359219700098
0.01031100339605473
0.010314398870104925
0.010342679434688761
0.010388385638361797
0.010404787090374156
0.010378846590174361
0.010322670383611694
0.010254235814791172
0.010210998753318563
0.010217452143551782
0.010232399624073877
0.010190349807962774
0.010125175109133125
0.01015081784222275
0.010269546246854588
0.010353459044126793
0.010348331667482853
0.01033649690099992
0.010364861517446115
0.010371156129986047
0.010349794930079951
0.010378121711546555
0.010436164221027866
0.010443655309500173
0.010422815189231186
0.010442410347750411
0.010496417888207361
0.010524196290643885
0.010498637132113799
0.0104581431474071
0.010439925157697871
0.010434610835509374
0.01044797353213653
0.010505692582810297
0.010565283609321342
0.010563639191677793
0.010527065664064139
0.01050050276098773
0.010480307770194486
0.010475325947627425
0.010497285226592793
0.01051514622871764
0.010492102247662843
0.01043756035505794
0.010404844413278625
0.010427888395497575
0.010476461234502495
0.010503676610533148
0.010496526318602263
0.01045701649505645
0.01040585209033452
0.010401851618662477
0.010468192404368892
0.010542262505041436
0.010570679402444511
0.010573183099040762
0.010588580553885549
0.010626176533987746
0.010654286514036358
0.010641878824681044
0.01062148408847861
0.010635187338339165
0.010649009696207941
0.010609237611060963
0.010532745356904342
0.010488040498457848
0.010497654544888064
0.010499400942353531
0.01046176492003724
0.01046436428790912
0.01056357137626037
0.010666217607213185
0.010657940716482699
0.010587151397485286
0.010579982565250248
0.010644866686780005
0.010700197573751211
0.010690917702158914
0.010621164052281529
0.010567653951002285
0.01059053311822936
0.010641129666473716
0.010668042680481448
0.01068918860750273
0.01070174523978494
0.010669257895788178
0.010617694373941049
0.010609798463992775
0.010617859973572195
0.010570117583265528
0.010496885592583566
0.010473383140051737
0.010487902302993462
0.010495101305423304
0.010496631278656424
0.010502326003042982
0.01050406535505317
0.010495551755884663
0.010484376410022377
0.010483361806254834
0.01048144262516871
0.010455774924485012
0.010417230506427587
0.010407216722378508
0.010452404307434335
0.01054012842127122
0.010630336166359484
0.010681151957251132
0.010681694253580645
0.010655460666166619
0.010631628866540267
0.010630868814187124
0.01064184160088189
0.010618612250545993
0.010539011738728732
0.010446189364884048
0.01042316465987824
0.01048884550924413
0.010546017891028896
0.010520478589460253
0.010454918568721041
0.010417553223669529
0.01042612364748493
0.01045460503664799
0.010478166568791494
0.010491899765329436
0.010476330930832773
0.01041716663283296
0.010346050680382177
0.01029424186097458
0.010265038205543532
0.010267639971571043
0.010301099905045703
0.010337476979475468
0.01036328766378574
0.010382404226111247
0.010393531841691584
0.010413676389725878
0.010459064972819761
0.010493236295878887
0.010482262438163161
0.010461861507501453
0.010475850000511855
0.010501638230634854
0.010485111634479835
0.01042645022738725
0.010376948425546288
0.010346995181171223
0.010311818517511711
0.010299156937981025
0.01034796611755155
0.010413201440824195
0.010429709791205824
0.010418266324559227
0.010428005458088592
0.010444334970088676
0.010418497654609383
0.010348083899589255
0.010298813054105268
0.010306626805104316
0.010311429125722497
0.010273677640361712
0.010254511358216405
0.01030583394691348
0.010379484138684347
0.010394191283266992
0.010351582965813576
0.010343320380197838
0.010401939281728119
0.010425341201480478
0.010361166910734028
0.010319393530953675
0.010373419872485102
0.010432887878268958
0.010412840554490686
0.01036031636176631
0.010346488297218457
0.010362713445210829
0.010361734576290473
0.010325735131045803
0.010282434310065583
0.010267392427194863
0.010279784626327455
0.010296440270030871
0.010314238757127897
0.010343808269826695
0.010361075773835183
0.010330472940113395
0.010283524196129292
0.010281593879917637
0.010316740802954883
0.010344310351647436
0.010370822416152805
0.01042336187325418
0.010481096550356596
0.010509269547183066
0.010511214977595955
0.010497003027703613
0.010462405893485993
0.010428240568144247
0.010426010307855903
0.010436506851110607
0.010424191416241228
0.010409924437990412
0.01042519124224782
0.010438713668845594
0.010422896229429171
0.01043373417458497
0.010511775847990066
0.010581760270288215
0.010563737028278411
0.010494623795384541
0.01045207133051008
0.010454000032041222
0.01048557019326836
0.010526598809519783
0.010527866691118106
0.01046538405236788
0.010412168070906773
0.010435678175417707
0.010484075183048844
0.010479758601868526
0.010430660552810878
0.010387535869376734
0.010366299806628376
0.010355170178227126
0.010368496690643951
0.01042892407393083
0.010490127044031397
0.010484806417953223
0.010447344123385847
0.010441738029476256
0.010428939423291013
0.01036555023631081
0.010311255486449226
0.010318168201483785
0.010350875082658605
0.010360367575194686
0.010345736203016714
0.01033359816414304
0.010330642458284274
0.010326917314669117
0.010327947790501639
0.010352427256293595
0.010417115788441152
0.010506368956994265
0.010566627158550546
0.010580211504129694
0.010586118582868948
0.010609747770940885
0.010640993715496734
0.010663537069922313
0.010671718750381842
0.01065864835632965
0.010618330102879554
0.010582157875178381
0.01059409620356746
0.010642282281769439
0.0106668584223371
0.01064724822412245
0.010634928464423866
0.010660067695425823
0.010676129144849255
0.010639002805110067
0.010586769874207676
0.010589383266633376
0.01062556245131418
0.010606103072641418
0.010534308893838898
0.01050794125534594
0.010545495982514695
0.010566937258699909
0.01054427620372735
0.010512005279306322
0.01048942921566777
0.010490273815812544
0.010507211204385384
0.01050487493048422
0.010495453304611147
0.010518711206968874
0.010541831747395917
0.010504307803930715
0.010427630846388638
0.010369019105564804
0.010335620382102206
0.010329740181332455
0.010373382909456268
0.010438887919299304
0.010470574751961977
0.01045872261049226
0.010417614276520907
0.010372407850809395
0.010371909282403067
0.010416974948020652
0.010431607207283377
0.010381669079652055
0.01034272627090104
0.010390757344430313
0.010488316032569856
0.010549271501367911
0.010568718529539183
0.010593326474772766
0.010632562669925391
0.010674786679446697
0.010716013386845588
0.01076368474517949
0.010827294724294915
0.010877475471934303
0.010870552646229043
0.010819195595104247
0.010769626416731626
0.010748350700596347
0.010762245395453647
0.010792359685292468
0.010803814402315766
0.010797176345949993
0.010802132774842902
0.010813437654869631
0.010800125827081501
0.010769835390383377
0.010755070216255262
0.010763736036606132
0.010785367647185922
0.010809168262640015
0.010829531397903339
0.010843733543297276
0.010828628607559948
0.010783590916544199
0.010798707054927945
0.010930076923687011
0.011058436506427825
0.011041381433606147
0.010922397047979758
0.010853507836582139
0.010860267827520148
0.01082664481480606
0.010733019734034314
0.010709842605283484
0.010787397959502414
0.010837127905106173
0.010820292020216584
0.010832680559251457
0.010884124423610047
0.0108805007499177
0.010813799627358093
0.010767644147854298
0.0107612495101057
0.010748613445321098
0.010730104107642547
0.01073051880695857
0.010730551001615822
0.010715554546331987
0.010710396121721715
0.010734494231874123
0.010768162626773119
0.010766896051354707
0.010739549306454137
0.01075748075149022
0.010830003441078588
0.010881424825638532
0.010876066166674718
0.010862272348022088
0.01088766666711308
0.010932078077457845
0.010942379962652921
0.010917361582396552
0.01091534355422482
0.01095553849823773
0.010979501750553027
0.010954664831515401
0.01092256654985249
0.01089131750515662
0.010819419606123119
0.01074840707005933
0.010748412000248208
0.01076373499701731
0.01072606636909768
0.010684110545553268
0.010684206596342847
0.01069218389922753
0.010694572847569361
0.010737301226472483
0.01082066099741496
0.01087559862411581
0.010873867913614959
0.010847846794640646
0.010813643577275798
0.010772969230310991
0.010743844717508182
0.010742487867828459
0.010768632414983586
0.01078840233734809
0.010750294077442959
0.010672415137523785
0.010643513560062275
0.01068807388888672
0.010731399497017265
0.010726250242441893
0.010705692841438576
0.010688192683737725
0.010649551342939958
0.010606496460968628
0.0105951321660541
0.010585835297824815
0.01053559034713544
0.010472641001688316
0.010450214594602585
0.010478094907011837
0.010538001513341442
0.010613728598691523
0.010691295606084167
0.010733294315868988
0.010698108556680382
0.010630604135803879
0.010630305093945936
0.010689437544206157
0.010698000842239708
0.010622106553055346
0.010543624199926853
0.01051661908859387
0.010513778403401374
0.010523285790113732
0.010568919257493689
0.010629962242674082
0.010646015371894463
0.010609081436414272
0.010584124205633998
0.010592059909831732
0.010556421198416502
0.010468806497519835
0.010455759841715918
0.010580366459907963
0.010744736518245191
0.01083026239532046
0.010842321366071701
0.010867337140953169
0.01089422739110887
0.010829543346771971
0.01070092412410304
0.010633908391464502
0.010635310681536794
0.010596552689094096
0.010509223893750459
0.01049426528508775
0.010589014930883423
0.010674200751818717
0.010665004223119468
0.010634541913168505
0.010670196659630165
0.010734533001668751
0.010757374465465546
0.010734932807972655
0.010687742554582656
0.010633545101154596
0.010605416703037917
0.010625196958426387
0.010646919400896878
0.010595192852197215
0.010508330826414749
0.01050602187984623
0.010579101992771029
0.010617236053803936
0.01061130502144806
0.010623835729202256
0.010645552357891575
0.01064020040910691
0.010631709014996887
0.010643256549956277
0.010650937600294128
0.01063392452779226
0.010595906116068364
0.010568361749174074
0.010594071716768667
0.01064659484080039
0.01064803394721821
0.01059988244320266
0.010572657653829082
0.010583410885883495
0.010598433539271354
0.010603720898507163
0.010594426301540807
0.010562469912692905
0.010532379633514211
0.010539827160537243
0.010573723267298192
0.010606421093689278
0.010636241813190282
0.010654882078524679
0.01064640519907698
0.010628868812927976
0.010635910530108959
0.010657049646833911
0.010656078454339878
0.0106420070794411
0.010641657452797517
0.010636102163698525
0.010595983855891973
0.010531548195285723
0.01047847563168034
0.010476330060046167
0.010532577401027083
0.01058832257403992
0.01058516486431472
0.010551092402311042
0.01054551899782382
0.01055526849697344
0.010536950156092644
0.010496911469381302
0.010445016669109464
0.010375299721490592
0.010313197185751051
0.01028510472155176
0.010280904844403266
0.010285460072336718
0.01028027558932081
0.010233741449192167
0.010170322220074014
0.010166646911529824
0.01022173350560479
0.01026361178373918
0.010263677429175005
0.010229768952121958
0.010162293849280104
0.01009149466874078
0.010088529360946268
0.010167394932359457
0.010245591035345569
0.010261282018618659
0.010243489881977439
0.010235283015063032
0.010225178144173697
0.010199154065921902
0.010191124695120379
0.010212839815067128
0.010216115579241887
0.010193923193728551
0.010206878031603993
0.010259184332098811
0.010294325111899524
0.010300393295474351
0.010302117777755485
0.010326144727878272
0.010383032595273107
0.010419011437334121
0.010364858695538715
0.010258587897988036
0.010221804842585698
0.010280599414836616
0.010323902359232306
0.010281368349678814
0.010206463329959661
0.010174934101523831
0.010201228730147704
0.010249209066387266
0.010291876622941344
0.01032959987875074
0.010358990385429933
0.010359847513027489
0.010303416290553287
0.010199602608336135
0.010114296899409965
0.010085578778525815
0.010088814080227167
0.010107950835954399
0.01015634483192116
0.010200823326595127
0.010173595311352984
0.010107043000170962
0.01010237536393106
0.010159747954457999
0.010208886596374214
0.010238272900460288
0.010264939251355827
0.010283125506248325
0.010297200803179293
0.010310330356005579
0.010309998415177688
0.010312486058101058
0.010336266462691129
0.010347401821054519
0.010318402069387958
0.010275893915677443
0.010246405893703923
0.010233223282266408
0.010235494498629124
0.010241293273866177
0.010244274222059176
0.010261881307233125
0.010302358865737915
0.010330808017170057
0.0103037091542501
0.010261996736517176
0.010284821371315048
0.01033620857167989
0.010339321235660464
0.010331947021186352
0.010378301233286038
0.010454275037627667
0.010506284099537879
0.010502586293732748
0.010434000458335504
0.010355774665949866
0.010353200730169192
0.010419468856416642
0.010472085281508043
0.010472212022868917
0.010445052023278549
0.010440723433857784
0.01048393678967841
0.010533562971977517
0.010547508071176707
0.010553823541849852
0.010583368389634416
0.01059070078888908
0.010543012752896175
0.01052466815453954
0.01061095580807887
0.010733232309576124
0.010790317862993106
0.01077324906247668
0.010738137809094042
0.010736343953758477
0.010772949993843213
0.010814503395231441
0.01083532434538938
0.010846258649835364
0.010849294427316636
0.010820756522007287
0.010780730104306713
0.010758780242176726
0.010724776590941475
0.010663927881978452
0.010616994804004208
0.010615279807243496
0.010640615627635271
0.010630583313759417
0.010566590258385987
0.01052707790862769
0.010553442583186553
0.010597180508775637
0.01062454809085466
0.010629222624702379
0.01062740570283495
0.010658508609049022
0.010716080232523382
0.010757609751308336
0.01075989737175405
0.010714900984894485
0.010647494294680655
0.010629420016193762
0.01069057770888321
0.010752377093303948
0.010741512540262193
0.010691533869830891
0.010636071908520535
0.010536115225404501
0.010418751360848546
0.01041380379232578
0.010534807434305548
0.010630829730071128
0.010640524205518887
0.010656137596815824
0.010708961285417899
0.010721404142677783
0.010686859143897892
0.010706802369095386
0.010810636605601758
0.010894590992247686
0.010880397674627602
0.010813004737719893
0.010764051099540666
0.010728733929572626
0.010682070353068411
0.010658776209456846
0.010688314894214273
0.010730946462135762
0.010746492792386562
0.01073359647532925
0.010701768066501244
0.010700826996471733
0.010789122370770201
0.010922823338769377
0.011000625353772194
0.010989910990465432
0.010933481082320213
0.010887803902151064
0.010876954913837835
0.010893841271754355
0.010922000563004986
0.010942633469821885
0.01095402597100474
0.01097005620948039
0.010997596909292043
0.01103851210908033
0.01107501077814959
0.011075372254708782
0.011056162455352023
0.011055256441468373
0.011043032873421907
0.010989013519138098
0.010944379997672513
0.010934442363213748
0.010902547411387787
0.010827946184435859
0.01076880304259248
0.01077756764134392
0.010837671915069222
0.010870736492797732
0.010833511211676522
0.01079685435979627
0.010825337433489039
0.010859095794148742
0.010848804848501458
0.010856439834460616
0.010902013279264792
0.010897211312549188
0.010804843031801284
0.010683938902802765
0.0105856014683377
0.010534052562434226
0.010534978819778188
0.010557397276861592
0.01057639914797619
0.01059850124293007
0.010613776249811054
0.010601385432528332
0.010593931699404494
0.010641968726413325
0.01071909619262442
0.010761878160992637
0.010769335123477504
0.010777242690091953
0.010784195342566819
0.010754444831982256
0.010688266832148656
0.010655925803584978
0.010697439714567736
0.010753400077810511
0.010765146149788051
0.010744942576857285
0.01073021352640353
0.010737879514927044
0.01074367226101458
0.01070613632327877
0.010640393033390864
0.01061968986177817
0.010667725232196971
0.010724966030102224
0.010749375122832134
0.010746716142166405
0.010717430791119113
0.010670862689148635
0.0106404376658611
0.010643006846075878
0.01066721837851219
0.010708210519514977
0.010757210752926767
0.01077178840758279
0.010751628942089156
0.010767782499315218
0.01084471147856675
0.010923460674239322
0.010946735484758392
0.010911872824653984
0.01084736105403863
0.010781496282434092
0.010750313109019772
0.010768213430419565
0.010806679292581976
0.010844215754186735
0.010869947279570625
0.010878008829895407
0.010892302414868027
0.010916161732748151
0.010914042590884491
0.010886897427262739
0.010864844659809024
0.010854886062443257
0.010852268007583916
0.010834476698655636
0.010770123535767197
0.010677556350128726
0.010626602800330147
0.010668549004476518
0.01077149055665359
0.010859467481495813
0.010915828390279785
0.010959259228548035
0.010954640688141807
0.010878211265662685
0.010802033187355847
0.010774498698301613
0.010726686327252537
0.010624769964488223
0.010564944015350193
0.010608704214682803
0.010669304708717391
0.010655233772704378
0.010612178659066558
0.010620554697234184
0.010660571308108047
0.010687782961176708
0.010708190852310508
0.010718359763268381
0.010708916196599604
0.010693504761438816
0.010660441849613561
0.010610131012508645
0.0105995975213591
0.010618093671509996
0.010591514334082603
0.01056473916163668
0.010617486890405417
0.01068407068029046
0.010689968116348609
0.010681696061510593
0.010714348577894271
0.010784960918826983
0.010861374553060158
0.010910522224148735
0.010933849243447185
0.010942032202146948
0.010930205755867064
0.010906144517939538
0.010885068067582325
0.010885630695847795
0.010925134100252762
0.010976878569927066
0.010987809587968514
0.0109524711756967
0.010917024413356558
0.010910858947318048
0.01091471616527997
0.010913971996633336
0.010930209786165506
0.010967579989228397
0.01098986286437139
0.010967847008723766
0.010918356394395232
0.010884239138104022
0.010878456131322309
0.010871228458127007
0.0108411163254641
0.010833302035462112
0.010893005154794083
0.010948109241435305
0.010926024568034336
0.01089226059615612
0.010904870392987504
0.010921826362609863
0.010924668936058878
0.010945280329324306
0.010978115781908855
0.01098766949842684
0.010973475745413453
0.010959237766219303
0.010954201020067557
0.01094867524690926
0.010918404819676653
0.010855029779486358
0.010779477201867848
0.010702121967915446
0.010633941175183282
0.010618942602304742
0.010665700515965
0.010706985027063638
0.010705537116155028
0.01071346216602251
0.010758434747112916
0.010788060582708568
0.010787501306040212
0.010792078939266503
0.01079348573461175
0.010786217472050339
0.01079428889672272
0.010797563535161316
0.010775072779506446
0.010754015289712697
0.010741600397741422
0.010731430981541052
0.010749877131311224
0.01080539999413304
0.0108481129957363
0.010823214892297983
0.010765079692937433
0.010764956963248551
0.010805334706092254
0.010789960398105904
0.010758898875210435
0.010828375556739047
0.010940590476384387
0.01095780794043094
0.0109107657300774
0.010896145059959964
0.010886448972159997
0.010824771779589355
0.010757291996851564
0.01075439554057084
0.010798536158399657
0.010830399082042277
0.010842368768062443
0.010865156827494503
0.010903028333559632
0.01093334311270155
0.010951611844357103
0.01097932267235592
0.011028053789632395
0.01106792846461758
0.011065467863809318
0.011052636089734733
0.011074819741770625
0.01109523168182932
0.01105518439784646
0.010974956864956767
0.010923473589355127
0.010938280167756602
0.010980878687696531
0.010973375003086403
0.010923161235405132
0.010912162580061703
0.010940851827617734
0.010946332445601002
0.010916143885115161
0.010877875766018405
0.010858443456236273
0.010840885136276483
0.010763485486386344
0.010633153959643095
0.010554499613353982
0.01058420103159733
0.010648722405312583
0.010649761661188677
0.010595139038050547
0.0105685957998503
0.010586568451253697
0.01058192182914354
0.010534589912276715
0.010505624001380056
0.01052395456819795
0.010543000049656257
0.010537370142992586
0.010546826482750475
0.010594799037789926
0.010632115607149899
0.010615397185320034
0.010589654472423717
0.010599685449851676
0.010611742757027968
0.01060499598039314
0.010598385455086828
0.010580213573994114
0.010557085131295026
0.010587983491132037
0.010658477505203337
0.01067797165364027
0.010641434893477708
0.010614380791084841
0.010613543420331552
0.010630849893204867
0.010661977828713134
0.010672254798701033
0.0106522880832199
0.010653823853936047
0.010681427415693178
0.010681233832146973
0.010651754538994283
0.010621667259838432
0.010593119153054432
0.010580986527493223
0.010587063018465414
0.010571133669000119
0.010545712457969784
0.010565160890109837
0.010606694075977429
0.01061559176305309
0.010601111283758655
0.010599325295770541
0.010623633794020862
0.010664315603207797
0.010677029297221452
0.010610662838444114
0.010487842349102721
0.010393861061893404
0.010377215696498751
0.010396676381351427
0.010364776850910857
0.01027899496955797
0.010239270345773549
0.010270566117251292
0.010287131923250854
0.010257311731111258
0.010235580657608807
0.010253578149713576
0.010296937945531682
0.010346764684654772
0.010379269412951544
0.01037824001396075
0.010367966685444117
0.010375025002285838
0.010386163865914568
0.010387203079881146
0.01037493405980058
0.010354388346895576
0.010359614677727223
0.010386284730629995
0.010391874897759407
0.010395963911432772
0.010414055277360603
0.01039997169165872
0.010365650737658143
0.010376580299343914
0.010410983056062832
0.010398680131183937
0.010362879411550239
0.01036322139436379
0.010368775778915732
0.010347520556533709
0.0103623303049244
0.010422612145775929
0.010425169190857559
0.010356125930557028
0.010319997903425247
0.010354283394990489
0.010420860347803682
0.010497956200269982
0.010582965505309403
0.010679412222234532
0.010765290642157197
0.010775130213005468
0.010693905084626748
0.01062364392564632
0.010649514462566003
0.0107039211015217
0.010681163414847105
0.01061004523653537
0.010585102319018914
0.010611536587821319
0.010640742474934087
0.01066018920042552
0.01067406004993245
0.010681776695419103
0.010678610533941537
0.010651239110156894
0.010605272884713485
0.010574684800812974
0.010577803816413506
0.010581633454421535
0.010546364492038265
0.010491753775859251
0.010467549135209992
0.010494318580022081
0.010540423622587695
0.010530154221924022
0.01044587348937057
0.010393907083198428
0.010453918250277638
0.010549455594737083
0.010583812980912625
0.010582305217394606
0.010603488055057824
0.010628445466281847
0.010610887550283223
0.010564347424078732
0.010541185342008248
0.010552223861450329
0.010566249423427508
0.0105732231028378
0.010583356068236753
0.010587440627859905
0.010588887671474367
0.010616603348171338
0.010650684766005725
0.010640581863699481
0.010596672176616266
0.010568715687841177
0.010572663681814446
0.010573674058541656
0.010552284669829532
0.010563145702471957
0.010625442616874353
0.01066428999765776
0.010672939729411156
0.010732287522405386
0.010823184474138542
0.01082989656366408
0.010737707169027999
0.010657706721685827
0.01066021788516082
0.010701619607862084
0.010707946168258787
0.010676318333717063
0.010669438438490032
0.010706335759023205
0.010718621443957091
0.010658413739874958
0.010577757814899088
0.010533867449266836
0.010506881355540827
0.010477905510924757
0.01047462345683016
0.010498333107680082
0.010516917195636778
0.010524873390095309
0.010525920571526513
0.010508586049545555
0.010469179534120486
0.01041617313749157
0.010379678977187723
0.010390048315748572
0.01040972682996653
0.010372789242537692
0.010298275602981449
0.010268216704716907
0.01030536571284756
0.010347824697382747
0.010343710114248096
0.010308055119821802
0.010285007756901905
0.010310937844915316
0.010390346101485193
0.01047194612910971
0.010500253649661317
0.010480267788516358
0.010433549465378746
0.010366664670873433
0.010300190744455904
0.010248168761609121
0.010225906433770433
0.01026935649337247
0.010349844266893343
0.010362178368959576
0.01028210822143592
0.010212958918418735
0.0102255431516096
0.010284864662680774
0.010346904305042698
0.010396259502740576
0.010411456347210333
0.010398124288767576
0.01039638141170144
0.01041198879480362
0.010431656982982531
0.010472497539594769
0.010533089047530666
0.010567210530862212
0.010557797390501946
0.010561711251502856
0.010623033117735759
0.010692412885837256
0.0107096878439188
0.010686355936340987
0.010664087664335966
0.010674005707260221
0.010717674697516485
0.01074013915611431
0.01067659817286767
0.010554600530304015
0.010475609712302684
0.010466432902030648
0.010464956178329885
0.010472018447471783
0.010536671438021585
0.010608656863914802
0.010606877546524628
0.010557755181798712
0.010530931415269151
0.010536687237909063
0.01053766071330756
0.010512106841197237
0.010483649603556841
0.010486967312172055
0.010510428360430524
0.010498095192015172
0.010441693547181784
0.010404271838488056
0.010413583744084463
0.010433765470515936
0.010429703228874132
0.010378665092866867
0.010297745636198669
0.0102667728648521
0.010319652827456593
0.010389206091640518
0.01042576122446917
0.010461711060488597
0.01053086745319888
0.010605192586081103
0.010631014409009367
0.010586227903841063
0.01050342102535069
0.010439931692089885
0.010400082390988245
0.010351445695850997
0.010320212797960266
0.010343583190115168
0.01038307523704134
0.01039188219816424
0.010383128070970997
0.010391128389164806
0.010427119610831141
0.010473840084159747
0.010502257505431772
0.010498529680771753
0.010468519299756736
0.01042484349803999
0.010380782537395135
0.010355402982095257
0.0103661891433876
0.010390258068218828
0.01039147138246335
0.010395576396258549
0.010438443636521697
0.010475521462503821
0.010450573917478324
0.010404950513038785
0.010407780003733933
0.010430562576511876
0.010406146413879469
0.010342969658086076
0.01029864621348679
0.010304215352516622
0.010345920583931729
0.010393142177490518
0.01043185761431232
0.010464700054144486
0.010500213035847993
0.010541434219339863
0.010553615860408172
0.01050863071810454
0.010468355374177918
0.010496554542332887
0.010551332348259166
0.010590819333447143
0.010646652455907315
0.010703540164977312
0.010676556546241046
0.010565551458857953
0.010471548002678901
0.010438815944362433
0.010427379999309778
0.010419090393697842
0.01042593884980306
0.010446307827951386
0.010477472244529053
0.010520327783888206
0.010562333003617823
0.010567152056610211
0.010512984216911719
0.010456529627554119
0.01046981561346911
0.010530397829134017
0.010560454692458733
0.010530903291655704
0.010496186503442004
0.010527808316983283
0.010613440643064678
0.010675915874307974
0.010666673766681924
0.010599312169943005
0.010531249376945197
0.010487122351769358
0.010432211034931242
0.01038144891615957
0.010403760260669515
0.01049259293708019
0.010574490026338026
0.010615073264343664
0.010631024210015312
0.010644050420960411
0.010649707624688745
0.010620508415158839
0.01057731890003197
0.010596030777087435
0.010670948749175296
0.01071855249349028
0.010739164525875821
0.010783847885904833
0.010813819094328209
0.010778215823229402
0.010738907150225714
0.010749595718225464
0.010737944609718397
0.010649104577023536
0.010560964936157689
0.010560473116347566
0.010622825358295814
0.010667424044804648
0.010669019570341333
0.010675158388912677
0.01071738131227903
0.01076847056276165
0.010814663051860407
0.010865108396392315
0.010903179917950184
0.010924141270807012
0.010950314895017072
0.010979500212706626
0.010977919595316053
0.010922580312471836
0.010847838488407433
0.010815585523378104
0.010826271449914202
0.010829376869369299
0.010815357539104297
0.010829228782095015
0.010892059744801372
0.01095362552907318
0.010964658571174369
0.010963163850829006
0.01100734221865423
0.01106600526953116
0.011071937682572752
0.011038951650261879
0.011033731967909261
0.011065204874612392
0.011085961151402444
0.011080257662106305
0.011073982641100884
0.011068648645887151
0.011032904733438044
0.010963525192346424
0.010900333882309496
0.010867307865992189
0.010851476639509201
0.010842068799538538
0.010847687267232686
0.010884274377021939
0.010958982179872692
0.011056436926592141
0.011124812390189618
0.011112781821284444
0.011048709390452131
0.011002365534659475
0.010984715978847816
0.010967561685247347
0.010947691296460107
0.010946618631714955
0.010976279084570707
0.011016734557924792
0.011030336343683302
0.011009322125464677
0.010985380843048915
0.010961068246979266
0.010897812340408564
0.010804306892678141
0.010749878662172705
0.01078172673471272
0.010867416657274588
0.010914721504086629
0.010882679806090891
0.010832225899212062
0.010804527156287803
0.010767817494925112
0.01071294918190688
0.010668382757576183
0.010653560413047672
0.01067830627784133
0.010730743544409052
0.010776061724172906
0.010794317413819953
0.01079138415050693
0.010778701484669
0.010753860044060275
0.010698057078989222
0.010615622911136597
0.01054823552723974
0.010528307269560173
0.010569060050183907
0.010652700908249244
0.010708201582310721
0.01069902218412608
0.01067647699965164
0.010681184239219875
0.010698430860647931
0.010704949079081417
0.010674064537743106
0.010598377332789823
0.010526330847060308
0.010490964752389118
0.010463831422384828
0.010450971429236233
0.01050781280035153
0.01061162383761257
0.010660336101427675
0.010626211250200867
0.010585865174653009
0.010584705863147975
0.010585910686058924
0.01056148842908442
0.01054203008650802
0.010562074983026833
0.010605743683408947
0.010633913351921365
0.010644830683013425
0.010663020280189813
0.010689672690350562
0.010704908937914297
0.010711628372082487
0.010744793177582323
0.010784693391760811
0.0107469248236157
0.01064446207950823
0.010599902542307972
0.010646995541173964
0.010692062836606056
0.010685592674417422
0.010679009514860808
0.01069634327548556
0.010692422931315377
0.01065398387494497
0.010632226032903418
0.010674141530180349
0.010757466293871403
0.010800534834852443
0.010765825577545912
0.010717144450172782
0.010720088296802715
0.010748707731254399
0.010754768948536365
0.010749667963245883
0.010746225100010633
0.010719664252828807
0.010681908968836069
0.010664903147844598
0.010644865066278725
0.010587923943530768
0.01050432168180123
0.010436806310899556
0.010411884629866109
0.01041350386571139
0.01042457080213353
0.01042462706915103
0.010380494189448655
0.010307078391779214
0.010275319922948256
0.010328575855819509
0.010419687021058053
0.010472515791188925
0.010496044697938488
0.010545139668975025
0.010594236887991429
0.010583834232529626
0.010531825282378122
0.010484066498465837
0.010448703673901036
0.010428950139321387
0.01043163618654944
0.010451882500201464
0.010490206046961248
0.01053520719637163
0.010548666935646907
0.010527666993439197
0.010518326993333176
0.010534898397745565
0.010543195060454308
0.010536755525972694
0.01054398548672907
0.010556648797355593
0.01054319825139828
0.01051685375161469
0.01052239675889723
0.01057231069658883
0.010636421039234846
0.010701938989805058
0.010784862475702539
0.010874169138260186
0.010925875924294814
0.010899381425697357
0.010821145311929285
0.01079516879399307
0.010851818341761828
0.010888390348991379
0.010838698998559266
0.010751089493278415
0.010692350876051932
0.010690269515616819
0.010733155068010092
0.010792804178781807
0.010871435677399859
0.010977072356035933
0.011055526543641463
0.011039094399893656
0.010951527195284144
0.01088303020922467
0.010881710387766362
0.010914445404196157
0.010920234617078677
0.010894265009555966
0.01089256017585285
0.010933319457108156
0.010956878993893042
0.010913674816256389
0.010832706949440763
0.010776887895772233
0.010761751304380595
0.010742508077528327
0.010695043477462605
0.010651145091978833
0.010611300133168697
0.010555941679049283
0.010544319074833766
0.0106239166285377
0.010707869832403958
0.010704611967084929
0.010658884990261868
0.010638902120990678
0.010631905188784003
0.010629716059193016
0.010661177107831463
0.010709632610669359
0.010715111345052718
0.010655227975221351
0.010576567482203245
0.010561202086973935
0.010624847996514291
0.010673678163439036
0.01065098610590212
0.010635291632497683
0.010704642875352874
0.01081194578204304
0.010877199843525887
0.01090315991663374
0.010923823377816007
0.010944790944922716
0.010966254905797541
0.010987567999400198
0.011004045186564327
0.011013586416374892
0.011015765416668728
0.011013530143536628
0.011024208542658016
0.011071629574289546
0.011126366698881611
0.011123862179229036
0.011074797823093832
0.011037804917432368
0.011018405008362606
0.01099426026805304
0.010959004326723516
0.010917412415146828
0.010888930697692558
0.010887108072638511
0.010915328428382054
0.010984266526065767
0.011065966653404757
0.011090174819109962
0.011041554930852727
0.010972418419551105
0.010915220611495897
0.01087363261380233
0.010868115716148168
0.01091907250112854
0.011004562333691865
0.011064264884917066
0.011061115555930883
0.011019821098307148
0.010989900543354452
0.0110117864375934
0.011090524245519191
0.01116827766294591
0.011177039265166968
0.011123256725259125
0.01107563624624163
0.011071988355834037
0.011071946057491004
0.011015428921673447
0.010910775702213868
0.010833918533753603
0.01082472435431555
0.010838794310111553
0.01083198765409179
0.010825097914785147
0.010871129654115066
0.010974507136270404
0.011054600942879916
0.011043292415561155
0.010976521167904138
0.010925586351659149
0.010892389039508999
0.010837343872990459
0.010786565559683367
0.010807562554255128
0.010877454048022627
0.010901938977185636
0.010856270435033366
0.010805234091822057
0.010801804958609863
0.010832678647711874
0.010859037816990167
0.010867796756792813
0.010877270119963214
0.010914115011692047
0.010975413045380265
0.011013408742146567
0.011001763606909663
0.010991552481427788
0.011026603596983478
0.011067378302104771
0.011075490815564991
0.011070401817560195
0.011059170513181015
0.01102666620281525
0.010996530459960923
0.011009737831773236
0.011060732761397957
0.01110696562565863
0.011117629903601482
0.011085035027936101
0.0110182839340996
0.01095038652420044
0.010920262627769262
0.010928986802464352
0.01094331917236559
0.010940562235191464
0.010925561654148623
0.010910956289153546
0.010905386274680495
0.010919068400980905
0.010948776062577962
0.010966592230834066
0.010952565871411935
0.010935609571170062
0.0109545395814348
0.010973932022461668
0.010935708087636158
0.01087732030893676
0.01087824848596938
0.010915411233436317
0.010900360317900776
0.010837594132171944
0.010801359682809562
0.010802964485483244
0.010809534733416512
0.010817573319654912
0.010827383429277688
0.01082618483575061
0.010825895483139902
0.010844047106802463
0.01085582977742888
0.010826597582781688
0.010777833472238853
0.010765082865254953
0.010793600215110928
0.010820689253741876
0.010834283867152407
0.010856717173010112
0.010892603166867047
0.010926780031295493
0.010953421631129459
0.010973268835805357
0.01096480687498115
0.010912438222439959
0.01085806863498874
0.010854523867601528
0.010888963490724563
0.01089552377932705
0.010844031678279862
0.010783907028380781
0.010764102634275331
0.010778260010993109
0.010819371389225126
0.01088809159467928
0.010941727600293234
0.01092445268528536
0.0108526591071859
0.01080498973838985
0.010811162111349405
0.010820949979824945
0.0107960130344145
0.01075632729451172
0.010740266817156225
0.010752502678660675
0.01073774442425929
0.010647088080877437
0.010533064320916309
0.010496094004483893
0.010545202110661194
0.01058362161857076
0.01055119517724961
0.010505337942158804
0.01049241550383158
0.010469874679110945
0.010426159979542717
0.01042135312105529
0.010483531143981963
0.010574085403932258
0.01064728175988421
0.010667008842574432
0.01060872112517245
0.010516992047196255
0.01047391300671734
0.010488272996153682
0.01051167443045415
0.010536648337729276
0.010585041334852576
0.010630898433737457
0.010637956778518856
0.01063166759442538
0.010649048938648775
0.01068359537399374
0.010716368681751192
0.010732885217294097
0.010724681913852691
0.010702999068889767
0.010670061374548822
0.010627735492307692
0.010625475170090794
0.010686587911332026
0.010741624858928845
0.010732615625020116
0.010695286348927767
0.01068861446576193
0.010695477219996974
0.01065453263465315
0.01059126881067641
0.01059635185985826
0.010661840311950072
0.010684099236968905
0.010621694457950071
0.010542175753507764
0.010522495184559374
0.010551087044877932
0.010567150622373447
0.010573557232273743
0.01060560253332369
0.010629409592365847
0.010594411249039695
0.010538211152888834
0.01054409212199971
0.010614321280736477
0.010654202456353233
0.010613301984267309
0.010572207298828289
0.010609576017595828
0.01068793461774476
0.010750579012092204
0.010802051158389076
0.010847124385181815
0.010853170646587387
0.010804906126577408
0.010787197910249234
0.010734280592296273
0.01067755048861727
0.010687673734501003
0.01073152802651748
0.010734228309011086
0.010694348487304524
0.010663203166332095
0.010655107020866125
0.010651902067475022
0.010655125083867461
0.010671428324421868
0.010677686859853566
0.010659968893742188
0.0106375453597866
0.010629924590466544
0.010633633976103738
0.010618411058094352
0.010568439931375906
0.010515761269489303
0.010486644342308863
0.01045610344503075
0.010403949560131878
0.010375610225601122
0.01042312520556152
0.010531379079911857
0.010654419253114611
0.010752528966404497
0.010792913624318317
0.01078237798414193
0.010766320939874277
0.01077046106918715
0.010784554155543446
0.010820082403952255
0.010911457296460867
0.011011857505654915
0.011030515565071255
0.011003990697208792
0.011024273526854813
0.011059330351417884
0.011046507337596267
0.011013873420888559
0.011003411144483834
0.011010495844529941
0.01099383587250486
0.010918018680531532
0.010826823574025184
0.010805380096426233
0.010854138283757492
0.010901203874964268
0.010912334916647524
0.010892146059777588
0.010840683609712869
0.01076119544566609
0.010669489052379504
0.010597762665711344
0.010573124203365297
0.010593651819508523
0.010637311472091824
0.01067429197835736
0.01068958745454438
0.010697175570530817
0.01071691335993819
0.010740039297379553
0.010742785027250647
0.01072672385838814
0.010699393848190084
0.01066152808140032
0.010636295547010377
0.01064046132261865
0.010639933899510652
0.010600162056507543
0.01055962644284591
0.010569170182570815
0.01059661231120117
0.010593680292367935
0.01057392974384129
0.010552109536947683
0.010519796487642452
0.010501346366945654
0.010523675250587984
0.010546312072547153
0.010521409352077172
0.01048229713109322
0.010481179803609847
0.010504497019574045
0.010515321866841986
0.010503107212716713
0.010463980176718906
0.010407933921087534
0.010391804482787847
0.010457507468527184
0.010540021019987762
0.010543375943088905
0.010475147265242412
0.010398295263294131
0.010330916182138026
0.010280810692347587
0.010293767655966804
0.010401046545011923
0.010487831804202869
0.010529972853837534
0.010476989282760769
0.010376429132884368
0.010339076357195155
0.010368718858808279
0.010399286634055897
0.01041711811791174
0.01045171368168667
0.010492643535835669
0.010496873997617513
0.01045853788848035
0.010414532710565255
0.010394306572852657
0.010406576171517372
0.010441310571040958
0.010468228072859347
0.010483137745177373
0.01051499780267477
0.010549672823399305
0.010542294677579776
0.010516406627139076
0.010537832356058062
0.010598619626834989
0.010627700517652557
0.01059269967256114
0.010518897068686783
0.01044272189727053
0.010387025222880765
0.010351885985583066
0.010319978853221983
0.010298232280183584
0.010323858256451785
0.010385669793467969
0.010416350479936227
0.010420168832642957
0.010477097866823897
0.010571266162442043
0.010604427324142306
0.01058428168995306
0.010590243519982324
0.010614906614646315
0.01061008347547613
0.010589337836718187
0.010587912873597815
0.010607831827364862
0.010618562328163534
0.010591831031488254
0.010565524641424417
0.01059094164869748
0.010613316609524191
0.010559112475020812
0.010484058395959436
0.01048372688353993
0.01053821039502509
0.01056089365039952
0.010538852015743031
0.010518839603755624
0.010515286332229153
0.010516508999280631
0.010509262837003916
0.010481557339662686
0.01044593942235224
0.010434564751340076
0.010466086863307283
0.010527725494466723
0.010587136660469697
0.010619845143519342
0.01062645016121678
0.01062858229619451
0.010652470091590658
0.010711373671656475
0.010776148232398555
0.010802582575706765
0.010812501802574844
0.010852763092843816
0.010902086094720289
0.010916049020597712
0.010897183851338922
0.010869743617950007
0.010850853458978236
0.010860617479775101
0.010901650110026822
0.01093469568877481
0.01092625765944831
0.010896893974859267
0.010893403624650091
0.010935624754056334
0.010987310415366665
0.010984220256796106
0.0109148477204144
0.010828559043584391
0.010756249368423596
0.01071137641207315
0.010727484138915316
0.010789951058104635
0.010819902383955195
0.010789826348191128
0.010751122208312154
0.010733955429168418
0.010715286002960057
0.010702209656592458
0.01073350083315745
0.010770790569949895
0.010750969358487055
0.010713654482970014
0.01071337378467433
0.010719846888678148
0.010700832398142665
0.01068367800442502
0.010701454426161945
0.01075682443799451
0.010835016301134601
0.010900363136315719
0.010921531687490642
0.010922430831706152
0.01094487658352591
0.010985246192431077
0.011016150717623532
0.011020239158533514
0.01099990307702683
0.010983301851665602
0.010981208344455809
0.010954545839922503
0.010884467514697462
0.010820701083866879
0.010796743718674406
0.010783492977498099
0.010768015964422374
0.010774842640385031
0.010806863555917517
0.010825110430596396
0.010778002693550661
0.010669016875326634
0.010571123495465145
0.01051545878057368
0.010450883922167122
0.010377018604194745
0.010382111392682419
0.010486850976012646
0.010591606218367815
0.010624727995600552
0.010622648475691675
0.010626295482506976
0.01061123269260861
0.010572463761782273
0.010566618430893869
0.010615010738838464
0.010655386452563108
0.01063671313575469
0.010604329634224996
0.010627268037060275
0.01067888532532379
0.010684169149026274
0.010646330685121939
0.01062492691562511
0.010631404602900147
0.010628034577239305
0.010597048621857539
0.010558044763747602
0.010534622811246664
0.010528767713112756
0.010531529046129435
0.010537992282770574
0.010543294210219756
0.010548359178937972
0.010544116378296166
0.010507148130564019
0.010456036360701547
0.010444153428543358
0.0104725081496872
0.010488064585952089
0.01047442751703784
0.010458434260217473
0.010444828165927901
0.010427709376672282
0.010419250385602936
0.010429778874386102
0.010458872348535805
0.010497000620234757
0.010511280405335128
0.010469678387744352
0.010408888577949256
0.010400885993149131
0.010442782614845783
0.010478489808738231
0.010486052320338786
0.010469977830071002
0.010440796008333563
0.010415388444671407
0.010396888497052715
0.010390987930586562
0.010422612556722015
0.010477668840903788
0.010496885484317318
0.010486530454363674
0.010512900864705443
0.010571460537612438
0.010612682204227895
0.010644518259214237
0.010702209608862177
0.010777966877212749
0.010823784201638773
0.010817129088100046
0.010789376321481541
0.010773465275997296
0.010773799937451258
0.01078096630750224
0.010778626361861825
0.010760712161427363
0.010750767247518524
0.010753689710982143
0.010717454368714243
0.010634034083923325
0.01059018777566962
0.010621668312232942
0.010649291893932968
0.010606769497971982
0.01052745186141692
0.010502439397387207
0.0105628980579786
0.010621257935417816
0.01060236474731937
0.010568330736132338
0.010605021110968664
0.010688218303257599
0.010764670131029561
0.010827380367554724
0.010866349996067583
0.010865309010259807
0.010825130133889615
0.010770139464875683
0.010750747154233978
0.010776662934804336
0.010795415706234053
0.010790856289677322
0.010802727729314938
0.010850036969641224
0.010904900417663156
0.01091648381901905
0.010873099477030336
0.010829206090420485
0.010815494143171235
0.010808856030926108
0.010811745387036354
0.010832077335799113
0.010836413658689708
0.010814643185585737
0.010803099152399227
0.010823255006689578
0.010857467870227993
0.010881769642001018
0.010897207229863853
0.010906888617901131
0.010910444444743917
0.01093541347538121
0.010989974448457361
0.01103447566041723
0.011054754527285694
0.011069884994067252
0.011079182502580807
0.011073890468105673
0.011054701614193618
0.011026115582790225
0.010998548347270116
0.01097552400897257
0.01096137380693108
0.010970601263688878
0.010996251510223374
0.011008706338470802
0.010989351930329577
0.010956359463743865
0.010958396057831124
0.01100548980757594
0.01104403899400495
0.011042825563345104
0.011016119102714583
0.010958576856646687
0.010874536545015872
0.010825814910931512
0.010852188704302535
0.010905139268143103
0.010910596010508016
0.010860650055110454
0.010823160122381523
0.010844996890518814
0.010870631410507486
0.010849002389004454
0.010849044716451317
0.010936457217903808
0.01104699824238196
0.011081535384291782
0.011041108259232714
0.011006240887800231
0.011016195617849008
0.011021602369146422
0.010963442374486477
0.01086273670895025
0.010800157454796136
0.010810542919207364
0.010830917269922793
0.010795554281212389
0.01074447013437748
0.010747012988431379
0.010780775246676057
0.01078556479420513
0.010769776931265369
0.010775800511473789
0.010787112656980753
0.01076213748077862
0.010713226031512021
0.010677133991848678
0.010671274012420327
0.010695291153388098
0.010720183225348592
0.01071290351334028
0.010685808741254733
0.010675204654689878
0.010692887048935517
0.010715337387518958
0.010718402507482096
0.010723383411532268
0.010758169180480764
0.010793723071692511
0.010776432729326189
0.010696071598213166
0.010605251918314025
0.010565469516441226
0.010577028458938003
0.010607154205208644
0.01065126026282087
0.010690616689389571
0.010676889473106712
0.010642346255481243
0.01068006743909791
0.010773314003599807
0.01081057780305855
0.010745668958406895
0.010625858680577948
0.010523695175070315
0.010488718608394265
0.010512617334024981
0.010546363473404199
0.010568230501376093
0.0105859553872142
0.010586348708020523
0.010546450084075332
0.010472957411548123
0.010403718310408294
0.010379026915179565
0.010403029328444972
0.0104365175741259
0.010441109259845689
0.010427558076335117
0.010428104822058231
0.010440759111661464
0.010449066078290343
0.010444557892624289
0.010416038115508855
0.01038029168266803
0.010386665390105918
0.01043977282824926
0.01048966619418934
0.010514824651181698
0.01052659488399513
0.01052995745674707
0.010540085237007588
0.010567508342210203
0.010585074963746593
0.010572478589601815
0.010560924558667466
0.010570640596561133
0.010560167336370796
0.010522826763335616
0.010506687455344945
0.010487114662537352
0.010432693075854331
0.010435189564013854
0.010540312733501195
0.010623957036295905
0.010616394185926765
0.010610317826503887
0.010646667449036614
0.010646147365914658
0.010580862939823419
0.01052521818317473
0.01054462157539092
0.010604108162224292
0.01061906995717436
0.010583840428153054
0.010554464583983646
0.010558508241083474
0.010592635524226353
0.010628199548227713
0.010638130846200512
0.010647039848845453
0.010688474397175013
0.01073907446465455
0.01073773662908934
0.010656536427559331
0.010560513192322105
0.010536973042180762
0.010563463711878284
0.01056832000031136
0.010559400143101812
0.010579962857300416
0.010609527754131704
0.010591771902982145
0.010538644405314698
0.010515749227488413
0.010535760099301114
0.010566608407534659
0.01060300606302917
0.010643636551685631
0.01065700049744919
0.010634995084255933
0.010622198422206566
0.01064015656709671
0.010643279866781086
0.010603755834745243
0.010553109793690965
0.010508202830096706
0.0104755270620808
0.010483810210134835
0.010530790071934462
0.010582832269137725
0.010614267151104285
0.01061940573505126
0.010618155960692092
0.01061488816747442
0.010592102778609842
0.010589110739529133
0.010668901472818106
0.010772663783282042
0.010773731929948554
0.010687717796536163
0.010652034608647228
0.01071133059100248
0.010782974102767184
0.010807254273677245
0.010793480951106176
0.01075844859238714
0.010724944788962602
0.010720809128833934
0.010731252304976806
0.010738070583902299
0.010781736837234348
0.010881570333149284
0.010967644000193105
0.010979700052412228
0.010956951486878096
0.010968167566461488
0.011003345308126881
0.010997118047671393
0.010940387309528888
0.010876930286176503
0.010814875141950325
0.010759100321447477
0.010757299966644495
0.010821985346265137
0.010889228453161195
0.01089547656942159
0.010858111436245963
0.010836477396078409
0.010839468658668921
0.010832128773909062
0.010797214306658134
0.010771735461894423
0.010802968875505031
0.01085852743475698
0.01087955778813921
0.01089184895157814
0.01094368198653683
0.011000564446439966
0.011020329502644017
0.011048525103833527
0.011113692638464272
0.011150596363004297
0.011120791218709201
0.011066064467886463
0.011010254942812025
0.010934034720994532
0.01086829558829777
0.010889945433009416
0.010971710496814922
0.010990862970938906
0.0109356997651048
0.01090881737298332
0.010928357827942818
0.010940229984698817
0.010948514454066754
0.010962183111114427
0.010957192482892423
0.010942671770462766
0.010937395044602454
0.010946489725029096
0.010998656234005467
0.011094507890520617
0.011143987452378497
0.01107608830439858
0.011020207004621625
0.011003827000968159
0.011067890174454078
0.011122776288539171
0.01113112835213542
0.011094471856486052
0.011031806835671887
0.01101327802054584
0.011084943559253588
0.011184987419983371
0.011224694473203272
0.011188164906343445
0.011110506269615144
0.01103241451550275
0.011001903166761622
0.011032590768299997
0.011058785550994798
0.011036456723231822
0.011028783689253032
0.011078067715279758
0.011115682814270257
0.011089821761706843
0.01104120725998655
0.011026287941494956
0.01104680862510577
0.01105255912640132
0.011022527049062774
0.011000651028007269
0.011023734748596326
0.0110867215343751
0.011159036899916827
0.011185971598606556
0.011130880296695978
0.011040201088180766
0.011001114454120397
0.011016869784798473
0.011003423095680774
0.010938995248870924
0.010909223724156617
0.010962166658136993
0.011036722352728248
0.01106520910281688
0.011056984504684807
0.01105587636702694
0.01106514043873176
0.011056705836672336
0.011021703438600525
0.010966623014537618
0.010899925174890086
0.010851224015932531
0.010849680929677561
0.010876904563046992
0.010905759260058403
0.010951569648459553
0.011018196811201052
0.011083583167055622
0.011156135426135734
0.011225159938912838
0.011233321770559997
0.011179865904850886
0.011139595854328945
0.011162360456073656
0.011214471992570908
0.01123761444701813
0.011234259988414123
0.011233140038093552
0.01122349025332369
0.011190249521750956
0.011156820178730414
0.011147321003954857
0.011131177418865263
0.011055768055375665
0.010941652560140937
0.010875823781825602
0.010888683239463716
0.010921026818687096
0.010931970470119267
0.010937198958126828
0.010953176358016207
0.010989302131347358
0.011047325839754193
0.01111333028646186
0.011160966689931228
0.011142957225674764
0.011060744838323444
0.01100935741327703
0.011035078527638688
0.011062966466415674
0.011035489933565259
0.010978629767196253
0.010945537574589253
0.010972848429810255
0.01102884062915109
0.011047519517596811
0.011029420128325
0.011001657436136156
0.010944057430606335
0.010860717756440864
0.010846954088192433
0.010960730155929924
0.011044110099319368
0.011063041560119018
0.010985055639175699
0.010894196329172701
0.010822405575308948
0.010784647424006834
0.01080701454076916
0.010844597129616886
0.010816413917345925
0.01075106251752004
0.010719157060375437
0.010702400651061907
0.010685507875168697
0.010720831271028146
0.01081050863605924
0.010870497692376375
0.010865134204505012
0.010862606639275327
0.010899917768547311
0.010922621944919228
0.010911722257733346
0.01091928809066303
0.010946038302499801
0.010928145977668464
0.010874004539800808
0.010875250024255365
0.010962501795729622
0.011060786345042288
0.011085853772237897
0.01103549768566154
0.010966496741166338
0.01091666208114475
0.01089944265433587
0.010901168269338086
0.010883276013191789
0.01085251641809009
0.010854845786234364
0.010896958033554257
0.010934338050428778
0.010923083665547893
0.010880044653313235
0.010860202100593597
0.010864360183477402
0.010848341695964336
0.010821306713623927
0.010821556176524609
0.010837446324294432
0.010866066721500828
0.010923108102288097
0.01095008767559193
0.010890371585264801
0.010811242398340255
0.010799152594991028
0.010835870642913505
0.010869674277491867
0.010880501238862052
0.010858212321763858
0.010826569452183321
0.010818980963667854
0.010799054725794122
0.010731808312702923
0.010673073648940773
0.010673179373843595
0.010694983430439606
0.010691028868313879
0.01067970386124216
0.010698020360432565
0.010714483780320734
0.010679040504619479
0.010641853994457051
0.010682837780332194
0.010778638895135372
0.010862039563944563
0.010896464271936565
0.010859961932292208
0.010780443015974014
0.010725102801807225
0.010713578425347805
0.010720161672215909
0.010718459342606367
0.01069308801088482
0.01064609159482643
0.010602344168582932
0.010608300332678481
0.010669610897311941
0.010703512193867937
0.01066642428864725
0.010644708103500307
0.010695925547042861
0.01075170087744482
0.01074672129470855
0.010692616167943925
0.010637231756700203
0.010631459689466282
0.010673241326585411
0.010694978577084839
0.010668022020254284
0.01063447914668359
0.01060773961711675
0.010577011920977384
0.01057525372481905
0.010618008828023448
0.010675383710768073
0.010731755803572014
0.010775995779549703
0.0107902388041839
0.010783300686161965
0.01078415289754048
0.010783692118711769
0.01072925930377096
0.010649839870166034
0.010664246523519978
0.010756627776427195
0.01076123422360979
0.010649856306845323
0.010580010586418212
0.010622319392859935
0.010669993583578617
0.010638764365576208
0.010585669277934357
0.01059768725768663
0.010657628430053592
0.010689424845622852
0.010682572461664677
0.010671345890732481
0.010652072861557827
0.010590522218262777
0.010485848629614339
0.010401387406745925
0.010385391112649814
0.010412321838084609
0.010447822379646823
0.010488639668328687
0.010545022395672277
0.010619540885090827
0.01069570581545122
0.010764736749697476
0.010822955355979502
0.010861391193466262
0.010895120045170188
0.010938867422519252
0.010982894327025861
0.011019083552528173
0.011043320436729119
0.011050582199823111
0.011036613024771214
0.01100238366285339
0.01096357386210002
0.01094386278418824
0.01095689443172887
0.010982720504980534
0.010977618785109371
0.010935492916032671
0.01088769108755514
0.010845250070560723
0.010816081690136344
0.010823082856368273
0.010862909930292517
0.010923922110814601
0.011010262456256897
0.011082540950737893
0.011076330058276653
0.01100442640017718
0.01093534973450005
0.010901229227893055
0.010897123431786894
0.010918585625477135
0.010951106811407953
0.010968374393414707
0.01096124587347731
0.010945115066133439
0.010943881152197719
0.010954826415982097
0.010953757232055068
0.010940824730787425
0.010925922377500683
0.010911200288683176
0.010912923025898635
0.010939622258301824
0.010961850169114768
0.010957364840433002
0.010956630180589854
0.010977318412624299
0.01097252445295453
0.010925622608046979
0.01090354900341481
0.010932012137491256
0.010934349459130317
0.010880039010662585
0.010850990670733154
0.010887529114261269
0.010930163469165564
0.010928005604073405
0.010874836745206267
0.010791841426398606
0.010726642517838628
0.010713645874056965
0.0107475251192227
0.010801196168176829
0.010834715950768441
0.010823694439604879
0.010788431398104877
0.010748002054169774
0.010707549427170306
0.010707522912416606
0.010770172602497042
0.010823428793810309
0.010802623818162828
0.010788714794907719
0.010896003958769142
0.011052464856766165
0.011096156651619822
0.011056106640025973
0.011078126169741154
0.011130238843616098
0.01107668508309871
0.010952735904138535
0.01089396774303168
0.010920407231897116
0.010960489865392447
0.010962945399805904
0.010945714064873754
0.010969396524596959
0.011034887852147221
0.011074536303058267
0.01105952366720885
0.011044329274445772
0.011085323309525847
0.011150218970142305
0.011175916099455207
0.011161682617384941
0.011122314173262567
0.011052017915062606
0.01097838482586667
0.010942954793572426
0.010935303950682283
0.010917585950810462
0.010883410803508013
0.010852283004205675
0.010826477240771055
0.010785773897077888
0.01072747249621898
0.01068139499053359
0.010660900790244341
0.010644696122035384
0.010639944921713322
0.010673982664011419
0.010719662709161639
0.010739054812584073
0.010750210583209992
0.010783938488457353
0.010831971452571452
0.010856971167959273
0.010863378578796982
0.010902979234233499
0.010946684018708765
0.01090206671738997
0.010792215138208121
0.010721958412323146
0.010710375064518303
0.010707560083828867
0.01068449867889285
0.01063756067538634
0.010594390814658254
0.010602376840543002
0.010640666524413972
0.010632353378459811
0.01058857277268544
0.01058341228403151
0.010603357695508749
0.010601923258509487
0.010597533292602747
0.010598348695784807
0.010583535635378212
0.010575183148030192
0.010598418160807341
0.010618926803581417
0.010593095575459302
0.010534008843824267
0.010506870015524328
0.010556720132008195
0.010641009153332562
0.010684804078191518
0.01068142528180033
0.010667830761522055
0.010649479057174177
0.010622348685283214
0.010613901026081294
0.01063074522651732
0.010628858611453325
0.01058886457234621
0.010557760477531701
0.010589780234731734
0.010666699197608978
0.010718041784130036
0.01073251868598163
0.010746145059820265
0.010744936822447926
0.010708627118729054
0.010671982648782432
0.010667926673777401
0.010693103410303592
0.010735791579354554
0.010777453056070953
0.010784970333334058
0.010746332562994211
0.010704513390082866
0.010713510655332357
0.010749461601953954
0.010733435545116663
0.010675957298371942
0.010665513516869396
0.010685648873914034
0.010652962063904852
0.01061229223618284
0.010652713684830815
0.010717356358654798
0.010713001259136944
0.01067609386285767
0.010668193493038415
0.010658576446585357
0.010603145079221577
0.010526116713881492
0.010479597335215658
0.01046758599113673
0.010464920909143985
0.01047943829325959
0.010510854271706194
0.010519136181101204
0.010494384493213146
0.010478119142353534
0.010512721268460154
0.010597958427388221
0.010686124742496758
0.010733247033786029
0.010731630246154963
0.010698291505686939
0.010671673819888382
0.010682840477675199
0.01072069606045261
0.010761882939841599
0.010805229702964426
0.01084943036781624
0.010878162647131831
0.01088774016359821
0.010890082893893123
0.010886512186843902
0.010867473534308374
0.010829925665166228
0.010780825891997666
0.010719036308582872
0.010642882427200675
0.010582450332585723
0.010554202245548367
0.010516855262685566
0.010465662749484182
0.010464851567521692
0.01051918297773227
0.0105614527547732
0.010564919458702207
0.010552684979047626
0.010558185062836855
0.01061394963413477
0.010700977116357535
0.010739627149887384
0.010699375332333148
0.0106516402377747
0.010660934199113398
0.01070354132913053
0.010726547450758517
0.010710352277383208
0.010671191161964088
0.010640810495242476
0.01062493615085259
0.010609247421380133
0.010608346394728869
0.010635536138433963
0.010657234608661383
0.010651626160833984
0.010644235454965383
0.01064813622040674
0.010664240554906428
0.010712290045339613
0.01077724593691528
0.010811910389456898
0.010822854049038141
0.010845418975222856
0.010874832479748875
0.01090270527638495
0.01092567477375269
0.010920095210894942
0.010886811376549304
0.010850874227471649
0.010836582134943455
0.010882395745720714
0.010976456075441092
0.011032037655822932
0.011008702889084817
0.010957825987134129
0.010943965804763138
0.010967145515605807
0.010963128174189478
0.010901394055690617
0.010820639480371028
0.01075610677478835
0.010722942799329758
0.010741119040176272
0.01080242430092767
0.010854631694965065
0.01086380711523816
0.01084125582827255
0.010802485044114291
0.010770113642793148
0.010767603002022952
0.01076763823395595
0.010744144537020474
0.010742604727856814
0.010802535638213158
0.010893520168028772
0.010974504484329373
0.011029805850703268
0.011053555000107735
0.011050715942401439
0.011036014971323312
0.01103454309515655
0.01106673082569614
0.011108128405176103
0.011122227373998612
0.011118371146731079
0.011113832381088286
0.011103906058706344
0.01108115040231496
0.011032033213414252
0.010958716860041023
0.01090126702329144
0.010897392851766198
0.010933204242028295
0.01095455452799797
0.010935202473774552
0.010896992129273713
0.010858249643351883
0.010807726278435438
0.010734402223024518
0.010664116160478443
0.010642620485741645
0.010673199652228505
0.010712589046452194
0.010746680786833168
0.010805156114511192
0.010898220539093017
0.01099062476074323
0.011029851578641683
0.011003801722545177
0.010965502539183944
0.010984187389258295
0.01106296815443784
0.011128183826804161
0.011140457037836313
0.011126068062148988
0.01109793918672949
0.011069495810661465
0.01106663069454953
0.011071017570793628
0.01105036459863186
0.011013883091509342
0.010987354200333357
0.010982728896196932
0.010990093550644816
0.010980291769374161
0.010955471876077354
0.010957016753964125
0.010966978145297616
0.010934017624240368
0.010907796137034893
0.010957281056325882
0.011034538301173598
0.011076188508886843
0.011105044595897198
0.011133539390284568
0.011113552895840257
0.011046387334354223
0.010983407644089312
0.010926663698628545
0.010885271201841533
0.01090004294877872
0.010936433523893356
0.010931864939630031
0.010889550049323588
0.010831789944786578
0.010796784989070147
0.01083819979103282
0.010926565523259341
0.010974599709734321
0.010952311051078141
0.010876771132461726
0.010790587670635432
0.01076095677446574
0.01080783962737769
0.010873589487746358
0.010890265381895005
0.01086563334101811
0.010864870941732078
0.010903857366647571
0.010955178271979093
0.011011662057135253
0.011053441299591214
0.011037175690289587
0.010955839711241424
0.010859240000136196
0.010813356079161167
0.01083149594720453
0.010860319659113883
0.01087131071370095
0.010900189229287207
0.010949725806713105
0.010967814051546156
0.010946581976022572
0.010912545709870755
0.01084542651893571
0.010737982562277466
0.010671201052609831
0.010696424653287977
0.010740816181059926
0.010743306241929531
0.010748895690776408
0.010792958079837262
0.010832113202195615
0.010833163289353251
0.010815089633688331
0.010804468640126288
0.010814068336039782
0.010826065151486547
0.010805333787575365
0.010768606350757182
0.01078317160718143
0.010840847024228424
0.01083264450309798
0.010744177296292037
0.010703520381357521
0.01075936108129099
0.010818901304155588
0.010816185404546558
0.01078944800887257
0.010799551927484573
0.010837805306073279
0.01084923982154578
0.010820548185147345
0.010770044205710292
0.010692912170197815
0.010585947285871953
0.010494767411146314
0.010488902260549366
0.010568816980812698
0.010646419178228825
0.010653107380494475
0.010618579210713505
0.010599357343744486
0.010569851594045759
0.010487148438114673
0.010403076391667128
0.010391208669170737
0.01044050850206986
0.010483767399564385
0.010487426239997148
0.010480022435076534
0.010486590571235865
0.010489778679329901
0.010480801286175847
0.010485706774052233
0.01050950207747519
0.010528503612149506
0.010565564434509725
0.0106517719081603
0.010728928793687373
0.010724729916546494
0.010653256829828024
0.010566773656755686
0.010508183904457838
0.010518003241159021
0.010583524170797318
0.010634896424598993
0.010666247764602304
0.010706920372322203
0.01068886578315869
0.010571496621705591
0.010457201248500496
0.010423326625023037
0.010441951747052371
0.010477877971716225
0.010496635257732123
0.010466122387442737
0.0104200917808339
0.01042403483297676
0.010487341221887618
0.010566992000676692
0.010614847571123392
0.01061519734794274
0.010594458188861608
0.010588447281625122
0.01061659436672926
0.010656792842783034
0.010663391242269426
0.010640280127990991
0.010624409872107207
0.010620895677711815
0.01061965836910531
0.01063177794450894
0.010670423235278576
0.010710002118721605
0.01070581998443231
0.010671318725217134
0.010668588667176664
0.010691082198172807
0.010671042071189732
0.010631381003186106
0.010663269399665297
0.010749541826080532
0.010785819157026708
0.010750675613526255
0.01071842442965135
0.010736167565919458
0.010776802604086698
0.010795330018736423
0.010769503253977747
0.010687131080776452
0.010557573568075896
0.01043841126607731
0.010396813682746142
0.010444938077125699
0.010508328394498676
0.010496160294860602
0.010448198986705393
0.010480779197532684
0.01056825436418876
0.010572754992172122
0.010494412621483207
0.010483026416040956
0.010566094962414355
0.010608403792139143
0.010579573300201445
0.010591674565803259
0.010679867907892913
0.01075438954634592
0.010738756149075926
0.010658754203468561
0.010602236546110361
0.010620816498994828
0.010694497195072473
0.010780390289146452
0.010846324984449894
0.01086414404446259
0.010832955297082662
0.010796444157604128
0.010788078410550952
0.010793358462397009
0.010797060260083527
0.010819676246028394
0.010882051929365843
0.010970939183607697
0.01105352045968175
0.011086548541206866
0.011033277567476034
0.010930232161190361
0.01087003223132342
0.010876817011740059
0.010890675080008804
0.010880317641422152
0.010873132762499153
0.010886385338380933
0.01091200636466965
0.010927074989303946
0.010893127522431314
0.010819208268076181
0.010769723805133254
0.010772038665600121
0.010811984874308109
0.0108804592769593
0.01096239416161552
0.011033017381560057
0.011071470144670456
0.011054774606600403
0.010968639506027103
0.010870117987506091
0.010867718833032995
0.010965148697141557
0.01105958723463118
0.011109789004549384
0.011144944280385972
0.011171495444141328
0.011185774449259042
0.011188967903144657
0.011165309126954525
0.011090775285847485
0.010970300354529172
0.010851038482505827
0.010769439719151706
0.010720647810958326
0.01069209435256198
0.010667269264813513
0.01062571856426075
0.010580774359405042
0.010563405752182007
0.010579017035197466
0.010622801571153105
0.010688100073020906
0.01075148870702833
0.010791831486858427
0.010811629542149603
0.010833887688349933
0.010876380312256516
0.010922978657763451
0.010957104060798884
0.01099098255392164
0.011023382097482682
0.011044025267474354
0.011057098335586489
0.011048933684360236
0.011018843716010451
0.011015298184938729
0.011045203185640276
0.011048128786496818
0.011028873773757369
0.011059474712237716
0.01113315842114389
0.011173098692670464
0.01115623083198443
0.01114144544582814
0.011172307198867202
0.01119586342945695
0.01117468285607174
0.011181754439603538
0.011255363689269871
0.011322283912450075
0.011327291608322411
0.011297290408983827
0.01127392124850303
0.011249553253874183
0.011194152028765529
0.011119921277277171
0.011060247987043113
0.011027664311695844
0.011023945056367666
0.011041857940144837
0.011070463578216732
0.011098136631771923
0.011104861437343062
0.011093570427037775
0.01108559490647167
0.011068638511933387
0.011031786622479558
0.011018500002101063
0.01106626397697255
0.01113671385217458
0.011161255349870771
0.011126103466376663
0.011069263480603695
0.01102759335655719
0.011019128600601107
0.011035180871840567
0.011024831458926201
0.010952773548197
0.010928241529036313
0.010919787578750402
0.010942376744933426
0.01093932012328878
0.010932428289670497
0.010963126982096583
0.011006302321329714
0.010997961370740085
0.01093343380605802
0.010873544509522617
0.010847242583986371
0.010829448653385042
0.010808700241614132
0.010801665564067663
0.01081251285970211
0.010811597330030055
0.01075306154321879
0.010639919699169696
0.01054870453896001
0.010530150984413922
0.010549198142252863
0.010567154737655073
0.010595942637883127
0.010649955589324236
0.010695053809322418
0.010677952743135393
0.01061326873721555
0.010572619661688805
0.010580377446021885
0.010601695531513543
0.010606538613792509
0.010602370139677077
0.01061223422875628
0.01064033543691039
0.010692492465022952
0.01076284478418529
0.010810278283897787
0.010836456834804267
0.010874140996020288
0.010904280575923622
0.0109189383382909
0.010941497415769845
0.010934576403815299
0.010850232320372015
0.010736737241968513
0.010673247356899083
0.010663323590997607
0.010649462277069689
0.010599718720186502
0.01054284169105813
0.010499736731871963
0.01046737752854824
0.010455241962336003
0.010432690971065313
0.010360216167755424
0.010298119594808667
0.010322828157804907
0.010396937930490822
0.010432895619887859
0.010409879556391388
0.010368852978572249
0.010342470668256283
0.010336967171169817
0.010352309425361455
0.010376107066404074
0.010379579681903124
0.01035180734936148
0.010326767701189964
0.010342608909122647
0.010366797305177897
0.01033128091134131
0.010258380104787648
0.01024202914442867
0.01029391198651865
0.010337706396821886
0.010359011865220964
0.01041229127207771
0.01048392224824056
0.010506931175477803
0.010480465537402778
0.010443241253960877
0.010407798942178487
0.010398010169155895
0.01043216699268669
0.010451533291488886
0.010389791482593865
0.010289343395270408
0.010248929706867783
0.010290178072173148
0.010340572705026717
0.010318440031260251
0.010211494013201445
0.010092140696942807
0.010052930221427232
0.010111239904072136
0.010178968710824847
0.01015804395545274
0.010065457299351693
0.010022329417988658
0.010110679969657213
0.01022011237218976
0.010331804261077195
0.0103735725954175
0.010409692171961069
0.010454729283228516
0.01045363511890173
0.010407994610723108
0.01039807296358049
0.010439756640698761
0.010465733767487108
0.010467135340441018
0.010490297025535255
0.010520953710656613
0.010518680484965444
0.010496804527938365
0.010484152974095195
0.01047810680931434
0.0104604437854141
0.010440037047956138
0.010458359546028077
0.010515812784433365
0.010551100615411996
0.010534280121792108
0.010495129257906228
0.010467435808386653
0.010477403670083731
0.010529845731798559
0.010580773374531418
0.01059484601020813
0.010596652247477323
0.010615350347943604
0.010638927251566201
0.010645576626993716
0.010632096263580025
0.010603811682667583
0.010584497908130288
0.010611494381446391
0.010660389238037169
0.01066313753137365
0.01062332616886124
0.010578469417523592
0.010518999011255801
0.010466002258472145
0.010485011315904558
0.010560765352565796
0.010604735221713782
0.010593197541311383
0.010586963023524732
0.010610795663669705
0.010618744406383485
0.010597424902953208
0.010583442531060427
0.010592842507176101
0.010614889052230864
0.010631892783567309
0.010630433587357402
0.010604212149046362
0.010549237560480833
0.010495182615704835
0.010494048530235887
0.010521320241969079
0.010490454761311411
0.010404573429841548
0.010369071254972368
0.010429634798783808
0.010507088515441864
0.010531353815458715
0.010532241745386273
0.0105464797350578
0.010561767937615514
0.010577548032160848
0.010597884776070715
0.010589591090101748
0.010538925076834857
0.0104828065703623
0.010436561866663396
0.010390460705384612
0.010382808193098754
0.010438424509484321
0.010478485005442052
0.010451012612320483
0.010425884430296718
0.01043694571359083
0.010429822902660818
0.010411281289998442
0.01044528250116855
0.010519838298205287
0.010570730809122323
0.010589488940313458
0.010602422961965204
0.010611303667537868
0.010628650183789431
0.010668453250546009
0.010679211274255068
0.010615156639833003
0.010540464979130774
0.010549472060520202
0.010639896364882589
0.010727684209123255
0.010743704815395176
0.010705553216394038
0.010690514652524144
0.010716595195699483
0.010710038996767252
0.010634115529246629
0.01056443439098075
0.010568299074657261
0.010596917304210364
0.010584372878074646
0.010563869203906506
0.010587286485824734
0.010627301924396306
0.010638026082888245
0.010617219551932067
0.010576338605023921
0.01052866366924718
0.010513056237250566
0.010553517027292401
0.010611716120038181
0.01064281864790246
0.010650239172391593
0.010654531409963966
0.01066309206886217
0.010682547662872821
0.01071215902455151
0.010724452703725547
0.010698631147388369
0.010652615153230727
0.010600367228034884
0.010541533990763128
0.01051990024978295
0.0105697302473709
0.010630254922434688
0.010644581662490963
0.010643344400450587
0.010643140526954085
0.010596177191473544
0.010505185141228139
0.010455747349187732
0.010475770726334304
0.01050684749148786
0.010531163897830993
0.010566437467932701
0.010574721444863827
0.01052477970952168
0.010471871050540357
0.010461820198688656
0.010453878822736441
0.010413581647444516
0.010372528752777726
0.010364836719818414
0.010378076680935919
0.010375091223977506
0.010359131782315671
0.010376298490446061
0.010428567582275719
0.010472207898274064
0.010495352861471473
0.01051295590819791
0.01053510702913627
0.010578351190779357
0.010639077592641115
0.010659907937515527
0.010595084242522717
0.010495116796810179
0.010444250307045877
0.010438306990545243
0.010434642808977514
0.010449305491056294
0.010485305290203542
0.010485804169438779
0.010430958971846848
0.010360048804432153
0.010303193009458483
0.010278068627230822
0.01030367004685104
0.010365784741006792
0.01040170710068196
0.010375854440499098
0.010351070163305848
0.010394895104691387
0.010482143370900303
0.01058971657883376
0.010763773769140244
0.01100122780771926
0.011198676761705429
0.011285890548024327
0.011285825201775878
0.011221295974683016
0.011107599432580172
0.011098920842632651
0.011218447042629122
0.011407306117471308
0.011494796543847769
0.011426076714415104
0.01144608361646533
0.011460096817463636
0.011499031763523817
0.011565488397609442
0.011618160537909716
0.011653140129055828
0.011687001206446439
0.01170498834690079
0.011707517004106193
0.011798010652419179
0.012105808558408171
0.012597115056123584
0.01311783067882061
0.013626166877802461
0.014164513861760496
0.014634668598882855
0.014834330908488482
0.01477177812019363
0.015115935965441167
0.0158153506135568
0.01670780826592818
0.017500741742551326
0.017919808183796702
0.01789602907374501
0.01795352444285527
0.018166136736981572
0.018298309680540116
0.018288827748037875
0.018273825792130084
0.018388686657417566
0.01870509934844449
0.01931273134890944
0.020294928806833923
0.02169424975523725
0.023426331859081984
0.0250839978386648
0.026111442896071823
0.026283837936352937
0.026595083801075815
0.02755407289136201
0.02925169956171885
0.031564221791923044
0.033808724826667455
0.03544804064324126
0.03652253451291472
0.037012254376895724
0.03727166623575613
0.03828083607368171
0.039222840052098036
0.03949125085258856
0.03948186517693102
0.03943800218170509
0.03966881588799879
0.03995887541677803
0.04029582148883492
0.040932214236818254
0.04188690029550344
0.04281988475471735
0.043446045403834434
0.04363992146216333
0.043644697738345714
0.04381766086211428
0.04376169515075162
0.04419171865098179
0.044758300904650244
0.045104841655120256
0.04512017850764096
0.045059391497634355
0.04527059497777373
0.045710912621580065
0.04611095826840028
0.046391764043364675
0.046536059535574166
0.0464006785582751
0.046541403823066506
0.046828048524912444
0.04724417744204402
0.047916895863600074
0.04875487054931
0.04940219917101785
0.04962147288024425
0.049554959563538434
0.04957306718453765
0.0496911255363375
0.049780351505614814
0.0506521115032956
0.05175212579080835
0.05245592224644497
0.052629021243192256
0.05230724850902334
0.052450628802180294
0.052780635536182674
0.05280232571763918
0.05291230348404497
0.05298555785790086
0.05300665224669501
0.05282750065438449
0.05272953876992688
0.05277285721153021
0.05312223101267591
0.05360750983236358
0.0540809422917664
0.05430294233374298
0.05437281651888043
0.05450205471366644
0.05471333984984085
0.054875337379053236
0.05478536183247343
0.055047103695105765
0.05570645625004545
0.05617645040852949
0.05612319170264527
0.055814076806418596
0.05542084222193808
0.054954071291722355
0.05493941294727847
0.055170101239345966
0.055354598423000424
0.05505151093704626
0.05465405392926186
0.05431425421498716
0.054039343979675324
0.053903371789492664
0.054047547166701404
0.05413018585415557
0.054115648665465414
0.05405136948917061
0.054106834514532236
0.054365056501701474
0.05440658652223647
0.05412368278950453
0.053551420816220344
0.05268781833583489
0.05151130318641663
0.04989667198387906
0.04851044613867998
0.04825056158471853
0.04909276437712833
0.04970251947641373
0.04920943968463689
0.047452803843189034
0.045105971291195604
0.0429431264824234
0.04140426709782332
0.04042628674767911
0.04039223884698004
0.040510766287334264
0.039549123891629276
0.03852068149484694
0.0381759496498853
0.03823098660213873
0.038327972132246944
0.038115331723820416
0.03802015464054421
0.03816422884585336
0.03793198836268857
0.036975361725781114
0.03666827811393887
0.03686035247053951
0.03725871771108359
0.03760730267502368
0.03772671289509162
0.038104127305559815
0.037972109182737766
0.03759735775878653
0.037300720838829876
0.03718354633776471
0.03748076919000596
0.037513456312008205
0.037235402937512846
0.03722053641453385
0.037196862893179056
0.03709258802235126
0.03709704267792404
0.03693760582013056
0.03670444122282788
0.036343903017695994
0.03587815612088889
0.03554766266141087
0.03537221139064059
0.035066093215718866
0.03557331908028573
0.03614975580014288
0.036421104758046566
0.03651062485994771
0.03573713450226933
0.03462026864988729
0.03373742276802659
0.0333290962758474
0.033315754511859266
0.03290527635719627
0.032513955431059005
0.032529666228219865
0.032371736986096945
0.032401663900818674
0.032324124125298115
0.03252875794190913
0.03273237391375005
0.03275003963848576
0.032605836857110264
0.03269544459646568
0.033013343415223065
0.03365948278689757
0.03444084172137082
0.03494372675893828
0.03500285885296762
0.03472602262394503
0.03496308766305447
0.03506358862388879
0.034606330373790115
0.03386599217541516
0.03335428705904633
0.03301362604368478
0.032897298829630016
0.03290537205524743
0.03251871143933385
0.03204308415530249
0.03195276380749419
0.032164181519765404
0.03214926505228505
0.03181804580846801
0.031560185959097
0.03172165011288598
0.03214237649925053
0.03230142148211598
0.0319974662642926
0.032087999100331215
0.03214075925759971
0.031859268897678705
0.031673830221407115
0.03166946177836508
0.03161705142585561
0.03151152623817324
0.03142086981795728
0.03137677607825026
0.03171123869484291
0.031424292183946816
0.030296290477272125
0.029602664182893933
0.02910336396889761
0.029242165733594446
0.02936163150938228
0.029289670779835433
0.029146010344848036
0.02904822375625372
0.028710723551921547
0.0284943344630301
0.028486543777398766
0.02846932670334354
0.028488583744037895
0.028494283948093654
0.02858786771539599
0.028804116037208588
0.029000821460504086
0.028898389467503876
0.02851532128173858
0.028702851166017354
0.028377113407477738
0.0278560019377619
0.027536460501141845
0.027304445861373098
0.026930322053376584
0.026742586933542044
0.02653146327473223
0.02630772622535005
0.02624215491814539
0.026584207103587686
0.026925672949291764
0.027263912309426815
0.027285748925060034
0.026911115301772953
0.02666072458261624
0.026610480737872422
0.02684180949116126
0.02702289220644161
0.027005718953441827
0.026905415870714933
0.026703108258079738
0.026332169165834786
0.026474630509037523
0.027275217585265635
0.02724247268633917
0.026936744172126055
0.02696706384420395
0.0271323858643882
0.027062940117903053
0.026975373250897973
0.026972112741786985
0.02696659141452983
0.027008591261692347
0.027195413841400295
0.02740261418512091
0.027579992203973235
0.027672929586842657
0.027819658617954702
0.028152981891762466
0.027963768348563463
0.02805368844885379
0.028308801983948795
0.028097431622445584
0.028274454353377224
0.02868697785306722
0.028486608762759717
0.02744694993365556
0.026889641280286015
0.026515948299784212
0.02666065718047321
0.026436619830783457
0.026061669008340685
0.025819106267299503
0.025819400185719134
0.025941455650608986
0.025938314800150693
0.025965428380295634
0.025925156185403465
0.025801425415556876
0.02584379122359678
0.02573399562155828
0.025549970734864473
0.02518176498822868
0.025126651315949856
0.02516195089323446
0.025036131686065347
0.02470316825900227
0.024413938869256527
0.024530090314801783
0.02457375583006069
0.024635793971829117
0.02456033051479608
0.024551808298565448
0.024447832223959267
0.024414604345802216
0.024494608861859887
0.024669473997782916
0.024938700285274534
0.024605516984593123
0.024100625857245178
0.024526271815411747
0.025159520113375036
0.025978356308769435
0.026171426083892585
0.02607054865686223
0.026070207855664194
0.026057107851374894
0.026107911898288875
0.026087793321348727
0.025974238412454723
0.02599138081073761
0.026108504780568184
0.02618347622686997
0.026331025843974204
0.026403514337725937
0.026355532836169003
0.026042938383761795
0.025667385710403324
0.025598510773852466
0.025457288823090493
0.02516719914507121
0.024885800320189447
0.02468095626216382
0.024562537018209697
0.02490768500138074
0.0249902395484969
0.02504225427983329
0.025209327961783858
0.025325596167240293
0.025204932007472963
0.0248668233375065
0.02453090700786561
0.02438353867037222
0.024361061134841294
0.024319710934069007
0.024258916438557206
0.024106369295623153
0.024094076964538545
0.02415323634631932
0.024265176944900303
0.02435606260318309
0.02429736064514145
0.023863198421895503
0.023211684771813453
0.022782268989831208
0.022455507272388785
0.021958077671006323
0.021619462005328386
0.021933786945883185
0.022571244195569308
0.022896864106878637
0.02299928615335375
0.02319862773641944
0.02303452283842489
0.022728742153849454
0.022717895060777663
0.023153456063009798
0.023253910392522812
0.022965601389296354
0.02329525782028213
0.023160702893510462
0.022734807832166554
0.022795839828904717
0.022191672376357018
0.02168172056786716
0.021769528535660356
0.022152266690973192
0.02207601258996874
0.02227912990376353
0.022224511553067716
0.02251877120928839
0.02274345815181732
0.022788646928966046
0.022742794724181295
0.022824055317323656
0.023142649559304118
0.023286703787744046
0.02338224494131282
0.023479433616157622
0.023472901948262005
0.023791302058380096
0.02388230988290161
0.023915020239073784
0.023718872712925075
0.023465190913993864
0.023070488716475667
0.022814835729077457
0.022830058264080435
0.022789722527377307
0.023119997649919243
0.023788455629255623
0.024432637952268122
0.024509231690317393
0.024490225333720445
0.02445492397993803
0.02443926612380892
0.024268697178922594
0.02400079765357077
0.02376210149610415
0.02385498193791136
0.02357880900846794
0.02262193732429296
0.02194238909520209
0.02182885726680979
0.02192735462449491
0.02183923511765897
0.02188541148789227
0.021828139862045647
0.0218326299241744
0.022001032615080476
0.02210751322330907
0.02212674711830914
0.02205975150456652
0.021844173206482083
0.02175571892876178
0.02170207306742668
0.021663918059784917
0.02199711254565045
0.02226366734597832
0.02214964484097436
0.022178662540391088
0.02223563634324819
0.022147746477276086
0.022139606138225645
0.022010094372089953
0.021974277566187084
0.02193155842134729
0.0217932051490061
0.02167619197862223
0.02165276266634464
0.021600567020941527
0.021415400905534624
0.02152657733531669
0.02165156319271773
0.021697287855204195
0.021733892946504057
0.02178031076444313
0.022063304141629488
0.02254512846004218
0.022610148454550654
0.022819573702290655
0.022876409303862602
0.02319748262874782
0.02393096245126799
0.024170902241021395
0.024376284861937166
0.02465380143839866
0.0245616618078202
0.024367554232012482
0.02388995265122503
0.023602355176117272
0.02352252763696015
0.0235338198277168
0.023813177354168148
0.023881982970051466
0.023782063610851764
0.02386071367189288
0.02439242123393342
0.02515864868182689
0.025250546131283046
0.024937970703467725
0.025130216190591456
0.025330097696278243
0.0252282832772471
0.0244355131755583
0.023511783839203416
0.023251596752088516
0.02347150386311114
0.023611731792334466
0.02354133752407506
0.02336749808397144
0.023239821360912172
0.023235880869906397
0.023379874855745584
0.023277501498814673
0.023012876473367215
0.022840238602366298
0.022858562944456935
0.0233527414011769
0.024062873972579838
0.024424982904456556
0.0245979891018942
0.024827511496841908
0.02512481015874073
0.025368848938960582
0.025465168638620524
0.025522433882579208
0.02565237076021731
0.02573573270114139
0.025134448220487684
0.024309315241407604
0.023887943676672876
0.02400086612906307
0.024297652910463513
0.024512539932038634
0.02435910248197615
0.02440566278062761
0.024546810239553452
0.02455866221571341
0.024459278534632176
0.024494113388936967
0.02469424726907164
0.02465182214509696
0.0246083308942616
0.024679710478521882
0.024829817917197943
0.02486061557661742
0.02499106084695086
0.025123933413997292
0.025080041957553475
0.02505592111032456
0.0253985029598698
0.025871795869898052
0.025834331389050932
0.02612392795505002
0.026348587397951633
0.02636896225158125
0.026034038092475384
0.025920806371141226
0.02598732190206647
0.026119731722865254
0.026618490328546615
0.02721806229557842
0.02740203566616401
0.027294563963077962
0.027329009394161403
0.027237775165122
0.027399424149189146
0.027770040263421832
0.027957308769691734
0.02786982535151765
0.027880755115766077
0.027880420133005828
0.027719209026545285
0.02770649500656873
0.027846734651830046
0.027862980023492127
0.02733541582012549
0.02675206430722028
0.026653521216940135
0.026554315343964845
0.02664679059525952
0.026331477919593452
0.025692775873467327
0.025559228169731794
0.02538360059959814
0.025181114247534424
0.025254220028873533
0.0250755620887503
0.025089162855874748
0.025137528649065644
0.025116323989350348
0.02502084950217977
0.024857237467076628
0.02475032371003181
0.024674084288999438
0.024495815550908448
0.024217506374698133
0.023734829961322246
0.023310087379068135
0.023339874926023185
0.0232195419119671
0.02296343313762918
0.022971613397821784
0.023011190930847077
0.023124479670077563
0.023209607377648354
0.023041234251577405
0.02278948194347322
0.022764592182356866
0.02257261337712407
0.022380544126499445
0.022304976934101432
0.02237268168479204
0.02264274940593168
0.02295959535520524
0.023040263436269016
0.022890196135267615
0.022425987888127566
0.021631267936900258
0.021151212479453535
0.020852491459809244
0.020689875655807554
0.020363861066289245
0.020458045073319227
0.02093579544685781
0.020877579941879956
0.021050036321394145
0.02128483563894406
0.021314223138615487
0.021500328043475746
0.021473474248778074
0.0213656372949481
0.02130316740134731
0.0213501914171502
0.02159173691412434
0.02160053257830441
0.021538257342763246
0.021435756175778805
0.0215618585026823
0.021597333957906813
0.021427414850331842
0.021412042803131043
0.021273570596240462
0.021100177171174437
0.021024512990843503
0.021074023908004166
0.021325668948702515
0.021637541186064483
0.021963490433990956
0.02209692446514964
0.021630529046524315
0.021475694484543055
0.0218266744655557
0.021440059104934336
0.02099396364064887
0.020884776874445378
0.02098474147496745
0.021236442129593344
0.021649176683276893
0.02158167478861287
0.021016123536974192
0.02039387673139572
0.020342549066990612
0.020588350547477603
0.020305265763308853
0.020528863342478873
0.02046610337914899
0.02009521807078272
0.019730749626178296
0.01969954596599564
0.0196850059973076
0.01996688814368099
0.02042939172592014
0.02053277223370969
0.020424176258966326
0.02062818902079016
0.021015847714152186
0.021014380750712006
0.02116606297204271
0.02101966564776376
0.020935871032997967
0.0208308991859667
0.02073348770616576
0.020745045570656657
0.0206260575260967
0.020663793843705206
0.020686323980335146
0.020700512921903284
0.020657772775739432
0.020901125236414374
0.021347901807166635
0.02147073996718973
0.021355181876569988
0.021348968907259406
0.021361150732263922
0.021062800462823363
0.020489144155289976
0.02014619773020968
0.020181703239213675
0.0202294678799808
0.020202451976947488
0.020218560595531017
0.02028858303790912
0.02065779336495325
0.020825180348474533
0.02067209731321782
0.020566351762972772
0.020705840843729676
0.020967319975607097
0.021153691480867563
0.021192136872559785
0.021162143007386475
0.021007037663366646
0.020627828789874913
0.02048152159899473
0.020879575572907923
0.02135455817449838
0.02130804839776829
0.02144094171235338
0.021381361107341946
0.02151943782577291
0.021776116443797944
0.02196060719434172
0.02157836876809597
0.021138844534289093
0.02116154766641557
0.0208066823403351
0.020638806354254483
0.02087518846616149
0.020685865336563438
0.020574394213035703
0.020417886876966804
0.020301231085322797
0.02023209607694298
0.020218494851142167
0.020322085747029633
0.02056928993901238
0.020962593015283346
0.021035993555560708
0.02087407398968935
0.02102835858007893
0.021193455336615444
0.02126150854397565
0.021197811632882802
0.02124494383111596
0.02138743643416092
0.021313811466097832
0.020799944940954447
0.02062333465088159
0.02102125191828236
0.021780044212937354
0.02171203253325075
0.021842651001643388
0.02264851928455755
0.02339919070713222
0.0237968594674021
0.0239661356410943
0.023886165495496242
0.0235761874797754
0.023435903762001543
0.02352888381574303
0.02352962149772793
0.023359458793420343
0.023156412825919688
0.02337895087664947
0.02331889244960621
0.023336704734247177
0.02339238909073174
0.0233940048282966
0.02336935472441837
0.023509998198132962
0.023294047464150935
0.022946303312201054
0.022786711701191963
0.0229816105379723
0.022919861972332
0.02257287915563211
0.022515165039803834
0.022444135809782894
0.022565315321553498
0.022470877510495483
0.02236112335929647
0.022387718337122352
0.022402754442300648
0.022387482901103796
0.02241766877938062
0.02244604072999209
0.02243219028459862
0.0225911923404783
0.02264903557719663
0.02235631101531908
0.022230489067733287
0.022417546284850688
0.02244594642193988
0.022585721407085656
0.022728524815756827
0.0228691492928192
0.02313888743985444
0.023493670315947384
0.02366207607788965
0.02360794453183189
0.02366195058217272
0.023556366306729616
0.0231970984605141
0.023233564200345426
0.02340389057062566
0.02334418034879491
0.023369456550572067
0.02346040417905897
0.023688275846652687
0.024011730775237085
0.024226665056776255
0.02431349203689024
0.02441620285157114
0.024234445532783866
0.023679567854851483
0.023194640062283726
0.023078621255699545
0.023092003942001612
0.023170395016204565
0.023097385484725237
0.022883711343165487
0.022854502191767097
0.022919219993054865
0.022776181215886027
0.022897172034718097
0.02309517040848732
0.023131662881933152
0.023125094170682134
0.02328373021213338
0.023190068022813648
0.0235381285706535
0.02396661211969331
0.02419296312145889
0.02417777000926435
0.024077178521547466
0.02406250302447006
0.024131974061019718
0.02420683845411986
0.024261079307179897
0.024304330609738828
0.02458477409090847
0.025042097677942365
0.02537111156852916
0.0253164527984336
0.02506584060145542
0.024829871703404935
0.025169796778354795
0.02548352807061747
0.025217826436273752
0.024504675189964475
0.0242551999213174
0.024112236415967346
0.02357623355695978
0.022885819680523126
0.022652581357397138
0.022519770790822805
0.02225256892852485
0.02211177551187575
0.02223604215774685
0.022285573955159635
0.0224722022539936
0.022671845217701048
0.022714085408952086
0.02253283921862021
0.022266471469774844
0.022069069540593775
0.02199510789476335
0.022198006662074478
0.022329412843100728
0.022160972291603683
0.022258051689714193
0.022529537153895943
0.022807414787821473
0.022735592615790664
0.02266299820737913
0.022790603036992253
0.022920958909671753
0.02281541067874059
0.022626159435603768
0.022650021594017744
0.022753148551564663
0.02257480370113626
0.022518848832696677
0.022717302865348756
0.022568344774190337
0.02242886684136465
0.022508709141984582
0.022317384991329164
0.022148627606220543
0.022402928215451538
0.0224919784325175
0.022247949421871454
0.02231152929365635
0.02230745866894722
0.02227798321051523
0.022160798057448118
0.021892873824108393
0.021593433462549
0.021534207861404867
0.021515308970119804
0.021681792633607984
0.02178141119191423
0.021838798243552445
0.021818954078480602
0.021704334232490508
0.02171970693161711
0.021660685455426574
0.021530216145329177
0.021177715572994204
0.020850901848170907
0.02062187416246161
0.02060058932052925
0.020847006980329753
0.021148308229167013
0.02132310245418921
0.021477789499331264
0.02181561860954389
0.021904238618444653
0.0217026865365915
0.021506501997355373
0.021463942965492606
0.021437831036746503
0.02134867338463664
0.021571402477566153
0.021417436914052814
0.021446837943512945
0.021667391194496302
0.021544410900678487
0.02153061195742339
0.02188673242693767
0.02155373528599739
0.02128238874254748
0.021177773016970606
0.021063239227514713
0.02080447908723727
0.020483117911498993
0.020258243216667325
0.020144482126925142
0.020232762375380842
0.020273195614572616
0.019994268342852593
0.01945376242045313
0.01952862295554951
0.020135971461422743
0.02050686245318502
0.020377727539744227
0.020070703385863455
0.019602930524852128
0.019535674741491676
0.020047486647963523
0.02043704448034987
0.020175874307751654
0.019819939560256898
0.020166895457077772
0.020626198465470223
0.0206567217502743
0.02095264503965154
0.021207493944093585
0.021079150778241455
0.020943194436840715
0.02080829710699618
0.02071166508132592
0.020474634694401174
0.020479519597720354
0.02057581164408475
0.020854228630196304
0.02128336710156873
0.02141307928599417
0.02117776095867157
0.02128034472465515
0.0209875714732334
0.020776862774509935
0.020697716639842836
0.020734558997210117
0.020775049848016352
0.020784113397821782
0.020893455646000803
0.02109122171998024
0.021117849946022033
0.021132227005437015
0.021166336808819325
0.02126733385026455
0.02113087262958288
0.021032724638935178
0.021036185123957694
0.021177600699011236
0.021044277062173933
0.020970373970922083
0.020950839566066862
0.0205966628016904
0.02054568224120885
0.020907050727400928
0.02120496551739052
0.021269196330104025
0.021229009642265737
0.021241450225934388
0.02132692010840401
0.02135483528021723
0.02116048343013972
0.021317052219528704
0.021319020185619594
0.021229992895387115
0.02112373903160915
0.020916763429995627
0.021224264577031134
0.021843835606705397
0.022126007277984173
0.02213826952967793
0.022388942113611848
0.022705778246745467
0.022755141030065717
0.02279477958101779
0.022550205008592457
0.022298708125017584
0.022310265994165093
0.022276010643690825
0.02208462675334886
0.02199768226593733
0.02215056345332414
0.022369289412163196
0.02256518776062876
0.02283366530202329
0.02310243901098147
0.022958994475193322
0.023576409157831223
0.02417561582988128
0.024181571633089333
0.02408424036344513
0.024086684542708098
0.02396579977590591
0.024282933128997684
0.024428940820507707
0.024426011154428124
0.024458779054693878
0.02454106091754511
0.02457089442992583
0.024527008838485926
0.024482785167638212
0.02441640699049458
0.024221439869143067
0.023987325420603157
0.02416712246602401
0.023847233178094028
0.023591795940883457
0.023973758073989302
0.024536085473373534
0.024429320394992828
0.02466180640272796
0.02463281594682485
0.024172413032501935
0.023869081463199108
0.023961431509815157
0.02399861494079232
0.02361092180479318
0.023012944534420966
0.02299306938657537
0.022931858617812394
0.022880897163413464
0.02305781766306609
0.023264681436121464
0.023501834732014684
0.02358579196035862
0.023672787472605705
0.023672964612487704
0.02372854012530297
0.02346392036881298
0.023100625567603856
0.02292203800054267
0.02294585111550987
0.02287681563058868
0.02286668582353741
0.02273341476218775
0.022473006525542585
0.022203303482383488
0.02196421088417992
0.021806478216312826
0.021727966500911862
0.02180494469124824
0.022139873711857945
0.022303935720119624
0.022365831935312597
0.022568387631326913
0.02274230565177277
0.022754633075091988
0.02296178326709196
0.022812429629266263
0.023091696430929006
0.023241183056961746
0.023051338035147636
0.022965060828719287
0.022879595207050442
0.02262707637855783
0.02225215177051723
0.021942763892002403
0.021932562079746275
0.022142061945050955
0.022255228208377956
0.022243552084546536
0.0224504016386345
0.022679290149826555
0.022927693827077746
0.023156738977413625
0.02326069481438026
0.023257908788509668
0.023029631946701556
0.022580288839526473
0.022457311959005893
0.022755307296756656
0.022902857791632415
0.02275459166849032
0.022763340331148355
0.022560518328100444
0.022642238221596927
0.02298237106297165
0.023349889097735287
0.02372877815272659
0.023989945121575148
0.024118456495925783
0.0242772139236331
0.02449818972731009
0.024503285998944194
0.02411840254208073
0.024083193624392152
0.02417887175222859
0.023471299775410445
0.02257355969864875
0.022276112728286536
0.022274214709177613
0.02230394274229184
0.02255761291831732
0.02263734332052991
0.022491571346763523
0.022373484147246925
0.022444516117684544
0.022680436612572522
0.022912601234856993
0.022957753862719983
0.02279590223217383
0.022771429808344693
0.023069343115203082
0.02358560445951298
0.023967366132419555
0.02428520961198956
0.02389718374470249
0.02340469143819064
0.023299693127628415
0.023719985915813594
0.023533752812072636
0.023235233081504703
0.023188382061198352
0.02328553737141192
0.0235571362846531
0.02406472377013415
0.02442378333071247
0.02443220893619582
0.024527987497858703
0.02438631038647145
0.02415199459763244
0.023976848609745503
0.023833893067203463
0.023493803835008292
0.023666860356461258
0.024308971764985473
0.024728940092027186
0.024769028006121515
0.024887204528786244
0.025029993951320648
0.02516973207006231
0.025229596241842955
0.02539340138435364
0.025654694051481783
0.025720563414506615
0.025819770973175765
0.025977897609118374
0.0260831342311576
0.02607071731472388
0.02595878676045686
0.025742803225293754
0.025510183116421104
0.02537710195640102
0.025640920889563858
0.025785116713959725
0.025754287999588996
0.025718733733519912
0.025680518217850477
0.026119228466413916
0.02627905941568315
0.026296123021747917
0.026271434493828565
0.02642309922259301
0.026809128301683815
0.02702557654120028
0.027233137101866305
0.02762377245584503
0.02766958188964054
0.027525593391619623
0.027406620818655938
0.027443724568001926
0.027580889763776213
0.02735567741561681
0.026901913327164947
0.026648069752845914
0.02655609803972766
0.02647019049152732
0.02627561313798651
0.026085684709250927
0.025731041154358536
0.025350560029037298
0.025181044987402857
0.02539261198602617
0.025804996248334645
0.026226746526081115
0.026310295949224384
0.02608057064935565
0.025591807821765542
0.025046895279083402
0.024770041294395924
0.024694529082626104
0.02449152635410428
0.024143480288330466
0.02383722634287551
0.023964426831807942
0.02384222506079823
0.023687132853083312
0.023803317381534725
0.023989208799321204
0.023855750118382275
0.024035585816018282
0.02421256557572633
0.024104728982783853
0.023770441701635718
0.023544953993987292
0.023323864282574505
0.023314023050479592
0.02328282988863066
0.023201362069230527
0.023233151249587535
0.023361492580734194
0.023266182257793845
0.022943571731448172
0.022551707078237088
0.02207414567936212
0.021901104170829057
0.02246485156705603
0.022623981083743274
0.02222034657606855
0.02193635652773082
0.022012605017516763
0.022550747834611685
0.02321824579965323
0.023342550026718527
0.022948884663637727
0.02234957168344408
0.022443382448982446
0.02312720359535888
0.023293003698345274
0.023152543439064175
0.023269379117991776
0.023443748054560273
0.023854830742347986
0.02488378091016784
0.025648620722349733
0.025645935353823007
0.025400147784966975
0.02614761600503698
0.02679569576634094
0.02704275457188487
0.027481274865567683
0.02839094035094604
0.028894399143755436
0.028796596170868726
0.028872581559699028
0.029088139801751824
0.02914127180352807
0.029149099776986986
0.02916078994749114
0.029468360003083945
0.029791031063068657
0.02971119625493884
0.029773216410540045
0.029390541729517283
0.02906267559155822
0.028886749348603188
0.029173335225787012
0.029278634630609302
0.028917179759591818
0.028604952984023838
0.028592627255711704
0.028902733286377044
0.029754222177434713
0.030490956208668648
0.031059140951838343
0.03114907183451578
0.030764751557726414
0.03051058259792626
0.030618330305442212
0.030569410712923854
0.03113484243163839
0.031734502450563015
0.03194203702034429
0.03236226443434134
0.033355628128629175
0.03436632614117116
0.03472660886123777
0.03494753673439845
0.03520757843973115
0.03525881969137117
0.035186544926837086
0.03542026692070067
0.035860381457023326
0.036004684031940994
0.0356601645774208
0.035655051043722776
0.0357696417812258
0.036059287465177475
0.03663738495204598
0.03721679558046162
0.037523947472218426
0.03759806434856728
0.03762023048242554
0.03781910715391859
0.03796867265133187
0.03818938168231398
0.03852802104782313
0.03850459565874189
0.03866132717113942
0.03915058601181954
0.03925434657605365
0.03882434523664415
0.038691026682499796
0.03887298905057832
0.03889152826974168
0.038911807790864256
0.03876511714421213
0.03858968687942252
0.03844579956959933
