0.010194528135471045
0.010281979984138162
0.010245233145542442
0.010085280290804804
0.009928125485312194
0.009877578909508885
0.009938734662719072
0.010019106031395495
0.010037170650903135
0.010028456430882215
0.010027304678224026
0.009990369025617838
0.009951599070336669
0.009995651161298157
0.010103280842304229
0.010204809138085693
0.010268988197203725
0.010286956666968763
0.010246648965403438
0.010186180078890175
0.010173932402394711
0.010143703389912844
0.009996477691456675
0.009876773261930793
0.009955672330688685
0.010087299414444716
0.010081562453415245
0.010023552647326142
0.010059291154611856
0.010150222328957171
0.010173138454556465
0.010129741318523884
0.01012932606972754
0.010193553746212274
0.010245955837890506
0.0102608006214723
0.010293876675423235
0.010384126640856266
0.010492406729608774
0.010580060968641192
0.010644834351260214
0.010621141213923692
0.010449754614382982
0.010263303613755851
0.010214094098191708
0.010227845222689212
0.010214225915260612
0.010233532164711505
0.01029274242464453
0.010302361794747411
0.010236666975542904
0.0101637250976637
0.010182663868181407
0.010315139177255333
0.010447904949542135
0.010475015689153225
0.010410013273358346
0.010304580442607403
0.010195105883758515
0.010132647042628378
0.010158122759312391
0.01023189710918814
0.01024229356786236
0.010158013941254467
0.010081527451984585
0.010069917333312332
0.010049638480413705
0.009958307230845094
0.009855397988576441
0.009831051924265921
0.009910645643249155
0.01009477850748226
0.0103241859190166
0.010444159132894128
0.010401429310441017
0.010332098375074565
0.010312852952629327
0.01026628221385181
0.01016557042952627
0.01010158285498619
0.010115346366073936
0.010087605041917413
0.009928304799832404
0.009773907396011054
0.009771810537204146
0.00985306151676923
0.009860908829141408
0.009748375206254423
0.009633962248917669
0.009621003109496087
0.009637135020457209
0.009650664061773569
0.00975668678758666
0.00989416661206633
0.00990215580444783
0.009820344483014196
0.009786005513742566
0.009801890526432544
0.009792907901573927
0.009753678755369038
0.00974742814199999
0.009799209954217077
0.009853226540144533
0.009875485089141876
0.009892072861548513
0.00991117741446942
0.009945824979804457
0.010001396976877004
0.010036730449646711
0.010071549436543138
0.010143945566378534
0.010191059024073183
0.01017739820992574
0.010160472076386214
0.010184274869970977
0.010239073338452727
0.010274500993546098
0.01027879147324711
0.010299526250455528
0.010340881340671331
0.010364059947896749
0.010312546712812036
0.01013735671294853
0.009921432009432464
0.009804884865880013
0.00978334592655301
0.009786781726870687
0.009812694303691387
0.009855751723516732
0.009852486748714
0.009772396974731236
0.009713113172911108
0.009775642422027886
0.009887898955494166
0.009939456873107702
0.009947514380328357
0.009947387520223856
0.009902364013250918
0.009795979158952832
0.009745151170063764
0.009903152072802186
0.010159898148849607
0.010219746844377368
0.01008537132292986
0.010022139619104564
0.01008671436458826
0.010124492645263671
0.010089706918224693
0.01008558462606743
0.010151892001740635
0.010186593714170158
0.010140408121515065
0.010132895645219832
0.01023997545009479
0.01036810821853578
0.010430744616314769
0.01044469234533608
0.010467339854221791
0.010497116271872074
0.01046448888257146
0.010402360674925148
0.01043801557738334
0.010565918378997594
0.010658117476850748
0.010631364213768393
0.010502201369963587
0.010384197323583066
0.010385876276995987
0.010489584347233176
0.010576281591784208
0.010546440440230072
0.010480434098280967
0.01056780367391184
0.010777795303147287
0.010889967908151449
0.010835366037208588
0.01072463374817744
0.010667242568451911
0.010674976508598775
0.010686081149615348
0.010690130488947035
0.010734118183609098
0.01080169532680884
0.010817878036759794
0.010754022425971925
0.010651202711742372
0.01056646010139957
0.010544115491211415
0.010582629782147706
0.010578370713628828
0.0104200549563393
0.010196862355805934
0.01011546915397048
0.010178179678041488
0.010226114883553237
0.010230019176378845
0.01027298582252115
0.010381278290878981
0.010486574198585003
0.010511017183307558
0.010468452253844589
0.010403020600788295
0.010294883330352604
0.010154454645235091
0.010068322918377816
0.010052537003066391
0.010022076182067394
0.0099588450207375
0.00995261364383623
0.00998506833333522
0.009896227759309113
0.009690018252003938
0.009569300459697843
0.009612063441891224
0.009718886110931635
0.009825277796480805
0.009908119810279458
0.009917471087537705
0.009853451962117106
0.009795587484259159
0.009815199475269765
0.00987562289694324
0.00985615462763235
0.009734565995167942
0.009661936210468411
0.009756173461209983
0.009912779063452035
0.009958962760865688
0.009894256598781794
0.009808166765142233
0.009714266152586788
0.009623595934826881
0.009605406364426018
0.009693587955553085
0.009837844932917506
0.00994657505536452
0.009989787708036602
0.01003655299777165
0.010114370507653802
0.010180807278957218
0.010266899389680475
0.010401993063278497
0.010477974542882294
0.010437994711101056
0.01040025828871876
0.01043415010208264
0.010456975300330669
0.01039788913913071
0.01030298006022349
0.010270636214409023
0.010336621252354234
0.010463889411184937
0.010612007973250001
0.010722313332371414
0.010715029202401638
0.010606061914004386
0.01051007911330089
0.010468159965239466
0.010397631081286818
0.01028366100275889
0.010267413074616342
0.010412609607446938
0.010560975545085966
0.010547179593704641
0.010405631824396551
0.010307418822776526
0.010376323114614934
0.010546923079527915
0.010636851778253914
0.010591375106014312
0.010512911407276988
0.010478672510944307
0.010505060867872089
0.010584297305904329
0.010633580507710577
0.010580305699259043
0.010497721887659281
0.010466531668789684
0.01046248485101387
0.010508239676710218
0.010663593255449086
0.010839555491693319
0.010886295335367321
0.010815964937210083
0.010753713236190378
0.010771961072459818
0.010851503529120237
0.010895268088206648
0.010841986525338142
0.010763601700309664
0.010713658316526563
0.010663655418902636
0.01065502805635333
0.010719664932694287
0.01074935012962669
0.010688909869641066
0.010625966226216406
0.010607746324967592
0.01058181980624795
0.010504343409556895
0.010424857875332236
0.010401504742912949
0.0103674555872567
0.010254099234007299
0.010125673776492476
0.010071189797017724
0.01011367746628821
0.010221960183698683
0.010369605123996735
0.01055581082822755
0.010712797923479228
0.010735397106036543
0.010657378239557147
0.01062741196481511
0.01070255839265883
0.010800698245875538
0.01083128948463127
0.010786049063317477
0.010723994791042059
0.010696720799896866
0.010703091458417476
0.010716343035455793
0.010696470304392278
0.010624640607275068
0.010569110175129025
0.010600209578406065
0.010669574299827218
0.010697109012398868
0.010687782859895379
0.010672477944754065
0.010654378747567535
0.010674060857854783
0.010760985508095473
0.010796421563718468
0.010677531925030053
0.010523219292517752
0.010442471841815858
0.01036773297470063
0.01025184577330947
0.010145931649021804
0.01011118717258796
0.010129584653768689
0.010096250229980796
0.01001927622128278
0.010044709804933518
0.010166171342134475
0.01022051356267184
0.010183230780530721
0.0101996714877896
0.010324760708026588
0.010420379927381873
0.01041390696540475
0.010435918867588044
0.010557889284100383
0.010689040643628687
0.010751305988524109
0.01073664334602654
0.010693724527955055
0.010675039372872562
0.01064858764410019
0.010583639927208423
0.010531457338947803
0.01050567826256156
0.01047263789223507
0.010472133045550436
0.010524846019688994
0.010522702632006258
0.010404554673004895
0.010298201446421445
0.010331782666034996
0.01041529530659318
0.010402925873640924
0.010362162147648632
0.010406447506975383
0.010452914447523654
0.010405922417994588
0.010327816207427532
0.010302011389285326
0.010328594176098705
0.010386940247844905
0.010466400515288115
0.010493942587636411
0.010414030356332659
0.010362213796470314
0.01044244654243812
0.010505047992337495
0.010493355370126665
0.010578631705138833
0.01077683809446171
0.010911365568172187
0.010932314933743328
0.010959440607111902
0.01106387733016163
0.011154242642223835
0.011109644225798547
0.010975039000622928
0.010912012124899775
0.010941022764891386
0.010919173560105265
0.010804129156749696
0.010707795396447181
0.010678362131584436
0.010635716568212956
0.010551496553234755
0.010506989422719926
0.01053015876095742
0.01056474084034562
0.010563381630927324
0.010498488773591816
0.010398187297396362
0.010349680699873716
0.010391441357787698
0.010479048346169292
0.01053042644634843
0.010484173726290465
0.01037562457844615
0.010309051242657005
0.010343167376704513
0.010426950100809336
0.010448748306371271
0.010405021102633328
0.010385467472951859
0.010346174945589155
0.010220019621774554
0.010142006783280522
0.010228393650613725
0.010389680068474263
0.01050151270115748
0.010525113723706453
0.010460952364373952
0.010307085695676505
0.010132430237717927
0.010063448059372603
0.010062209910247475
0.01000980488024652
0.00997897208435461
0.010024506764020771
0.010011905014980584
0.009913439257070422
0.009878403572365642
0.009966055103577674
0.010069149609189481
0.01009094790322706
0.010078037166967988
0.01013345167040825
0.010256646615453065
0.010363195152021944
0.010425517153926193
0.010470302253961563
0.01049829406896606
0.010511622524354607
0.010535872210748493
0.01056162839056924
0.01052658654982224
0.010428377746138721
0.010355068652424962
0.010303580521140247
0.010197312466334551
0.010090551448520273
0.010082768015563489
0.010144291564356535
0.010164846684783697
0.010068138418719173
0.009919014195911586
0.009864943539723755
0.009904885760042816
0.009932031410280616
0.009922343825455754
0.009886844218708574
0.009828219297342003
0.009772474388591945
0.00974596057087183
0.009800168005749583
0.009959189596120268
0.01010867316275835
0.010132895770948381
0.010090761303436011
0.01011648234911263
0.010229184059426188
0.0103406413202174
0.010442822149489075
0.010602413697633893
0.010768721704371273
0.010852490765973926
0.010875639147125185
0.0108743915008381
0.010865083560347558
0.010866406480781734
0.01086472145980224
0.010849627894349395
0.01078292210586369
0.010628997762687505
0.010507749225944281
0.010519487229175865
0.010532980191055686
0.010447873307857663
0.010353009400423616
0.010293638366274536
0.01024353256681934
0.010253876531496644
0.010358425541780888
0.010462716752663255
0.01050819288007915
0.010580330363009125
0.01068372759502381
0.010708679193630815
0.010733329493086785
0.010914880929049105
0.011144561052788049
0.01119084880920127
0.0110111043183133
0.010798013193998486
0.010791952298022807
0.010967736085876822
0.011066463505849243
0.010995561371091754
0.010882405538577587
0.010808269570115953
0.010759314191527664
0.01075007749721408
0.010836422338616102
0.011004583188332617
0.011143661881797016
0.0111528310040012
0.011035040179267526
0.010899303799960762
0.010844593495130539
0.010838641559239477
0.010792922640684993
0.010689318384975196
0.010532610593363642
0.010328844382893294
0.010143983676098287
0.010023045781999827
0.00995926902629435
0.009952970047015697
0.009951348467729985
0.009896475353743881
0.009834209375549107
0.009812706280499697
0.009818265710491688
0.009842041684314608
0.009860463449731469
0.009853390578646213
0.009880638113245369
0.009958970984444022
0.009991346457973123
0.009954416898544878
0.009920529266819357
0.009877428452018649
0.009749454355333
0.009576190558727831
0.009487037798389792
0.009492181269451975
0.009511245705652982
0.009551195919048041
0.009609910796862096
0.009589178820606321
0.009484173743985594
0.00945887147448957
0.009640141737181694
0.009926380931865424
0.010102656118106098
0.010124222987797112
0.010114538613706828
0.010159038491547107
0.010266989085357637
0.010415454278700054
0.010556001737713814
0.010609339571092278
0.01050980341155082
0.010328275195788592
0.010213118111714721
0.010192473004572093
0.010203406743239612
0.010193036622367799
0.010110130722168834
0.009974965101573616
0.009891367063391953
0.009921873919665813
0.010078751905821264
0.010275993912946433
0.010333240190520883
0.010269357464276254
0.010250388602726162
0.010252208830788732
0.01022524920059368
0.010288384153973311
0.010465741634834557
0.010593597900588066
0.010581841410603374
0.010512201024685055
0.010480535388924182
0.010491264495067298
0.010501022881362588
0.010484875694382936
0.010462143584154546
0.010481085882056505
0.010525237084366382
0.010517120708245785
0.0104975163936615
0.010553376427851617
0.010581336244940757
0.01047786335228011
0.010353532903827727
0.010283536436036229
0.010197197473607957
0.010102357738651336
0.010094336767215282
0.0101536366622895
0.010137841382529586
0.009989511433523147
0.009820362944155931
0.009721494957339018
0.009647650860715657
0.009555390542373062
0.009485767933074384
0.009481243356131017
0.009514761539176107
0.009543090683873743
0.009578737542033195
0.009613342040684075
0.009593211645260454
0.00956230793846771
0.009606184994336218
0.009676216952502727
0.009684731916058809
0.009633642926346511
0.009609430488198996
0.009668962159194052
0.009669299446977675
0.009525245900731534
0.009460141700692475
0.009583814123179763
0.009723869615700096
0.00979407797800377
0.009805687624029814
0.009737140585202723
0.009657840481959284
0.009683680704329163
0.009807607675902545
0.009913754335138946
0.009888783511705697
0.009760165163315833
0.009681856269016862
0.00971707683056593
0.009793722897302359
0.009864557976834476
0.009966990239918231
0.010108008889947086
0.010168499886058271
0.01007933911634609
0.010002814750187099
0.010090345572680235
0.010229167931247502
0.010250208503566682
0.010189059029798955
0.010165029307827353
0.010156240973155945
0.010107331061735749
0.010112356068566442
0.010214893128722907
0.010267533883452416
0.010241151149384677
0.010295923959929495
0.010436177037190646
0.010479017065372319
0.010348433200269937
0.010196225023828448
0.01020667954813689
0.010326901332009584
0.010380618232302368
0.010390834894496947
0.010460761527065187
0.010529849554877728
0.010539951124228538
0.010558309941552579
0.010613262804690748
0.010595158180221916
0.010429688922595232
0.010288099180907012
0.01033830757951364
0.010420822841115295
0.010337360810954124
0.010179661333095282
0.010134986334014684
0.010223378269001842
0.010304103433154523
0.010261544571258129
0.01012077775085345
0.009939306962769479
0.009775291932746767
0.009757547548506409
0.009886712392326445
0.009946092169266195
0.009846929300110788
0.00972330525284633
0.009640143744181841
0.009554090672172605
0.009508039318025113
0.009616669595707207
0.009856825554743409
0.010021051962394268
0.009978059101849795
0.009883256331086158
0.00996609456371516
0.010184324202127755
0.010309775592759252
0.010311966380104422
0.010339926918968559
0.010355672277510166
0.010233455933630467
0.010099679506383836
0.010083025835920125
0.010064441571012139
0.010000305867288261
0.010006326944567262
0.010069775707088412
0.01007109869737178
0.009997125091031194
0.009970607673749328
0.010070763160474599
0.010167900177184492
0.010134515319950878
0.010048437414225191
0.009976689543109388
0.009902746295556425
0.009869813681580126
0.009930352177470923
0.010051634723786264
0.010117444579955191
0.010048979453276843
0.009968283879570662
0.010044550476595759
0.010206975343171507
0.010261118384078146
0.010192233305424452
0.010172221015673132
0.010291153655853123
0.010457021107431502
0.010627302613575012
0.010840345243923365
0.01100384079385549
0.011018075356259942
0.01100422214018181
0.011112425005994736
0.011263131455052644
0.011288536151405425
0.011184722911566495
0.011057475411798806
0.01092465444933623
0.010754817922133952
0.01064499381231144
0.010700286314822734
0.010786800952628255
0.010709005093667656
0.010523716011084617
0.010419739095959812
0.010398966423235834
0.010316308648325502
0.01021086484193802
0.01024085694923997
0.010326006060931831
0.010326682615559548
0.010334593162406236
0.010432615382596851
0.01054998392239213
0.010619659547228367
0.010634773611091077
0.010626479079946875
0.010603973779361696
0.01054345617769286
0.01047863122774288
0.010456414283253253
0.010478574566077441
0.010561593107413501
0.010689618745818735
0.010789421696681529
0.010827858101110905
0.010832559140399099
0.010876078272704036
0.011009055646136403
0.011120920309331268
0.011064462619833649
0.01092959548579529
0.010923803080804645
0.011053568765055389
0.011138914332259447
0.011070743517484516
0.010889709712937474
0.010657158195972443
0.010420398304704577
0.010255359378643334
0.010186432949267328
0.01012471880763769
0.00999723688699305
0.009861553621012717
0.009827490879688412
0.009917394819203763
0.0100400356692262
0.010130838630720973
0.010210328369867057
0.010253197052516044
0.01022854218725115
0.01021733689121902
0.010284654784481973
0.010380275212228299
0.010429160883650184
0.010437798048369586
0.010476159756071865
0.010509809998329728
0.01044846527511254
0.010385782781522721
0.010442523127421737
0.010522016608156264
0.010480231544934214
0.010333448061719536
0.01024282128782943
0.010296083348803222
0.010352660161443055
0.010309956423006951
0.0102726847701706
0.010290392786264419
0.010307012442499399
0.010325339355040342
0.010354574176017196
0.010371982485521585
0.010367564558982849
0.010334709871094673
0.010311898074578494
0.010351045865099877
0.010406855165492744
0.010429746177978814
0.010473294639959932
0.010546328963246197
0.010558281347621233
0.010515642662066966
0.010498972821515053
0.010465818955563009
0.010388161092996596
0.01040507624624297
0.010562647595070302
0.01067799304611981
0.01066158631350845
0.010638020823244006
0.010660589416511356
0.010674711582250893
0.010674220193177462
0.01064547999529168
0.010560978560242802
0.010461401091888547
0.010404694112949073
0.01039419598178938
0.010365144286770373
0.010282823310699313
0.010233442035969346
0.010269834503997117
0.010344013050198555
0.01041528846602887
0.010439079541247337
0.010453203769866377
0.010570690077729523
0.010700911011081189
0.010667186491191387
0.010536630176939071
0.010474067919421941
0.010504533669445664
0.01056254074210301
0.01060748852789402
0.010651250504888594
0.010658680510241538
0.010579965009819716
0.010535640402231365
0.010643250190187246
0.010781696198973805
0.010805850953329355
0.010723174109589308
0.010608552685007454
0.010530440409202129
0.010490097447764128
0.010452861923258751
0.010431604711338877
0.010424458233173936
0.010390338436700404
0.010341073111630976
0.010300875636748969
0.010228747269138694
0.010130173126235605
0.010145140304230154
0.010336802401579916
0.010493600436020642
0.010450975322164595
0.01041010552085936
0.010553139268886298
0.010727047426626087
0.0107829238451086
0.010779932083096355
0.010776938197668642
0.010750137697905303
0.010703453393653035
0.010693293418735266
0.010726691156160087
0.010747931895311922
0.010777081316336989
0.01086399110034108
0.010921311313286424
0.010866715931333601
0.010786941580008716
0.010814632554538548
0.010958683162461966
0.011035055464599281
0.010896229445934295
0.010725890507455916
0.010744758590590209
0.010841996732633561
0.010852271243929863
0.010808448665775358
0.01075988695025444
0.010694070418830961
0.010646261624060571
0.010685526956804097
0.010784282851964234
0.010816844864748418
0.010738368164747953
0.01064428048208356
0.010627060253173113
0.010682768528349698
0.010749441196676344
0.010787402759306133
0.010785999188665301
0.01071816438343376
0.010601840997114777
0.010547669834923
0.010609128256328404
0.01069249210646376
0.010695889634080231
0.010617037815973163
0.01053237059386447
0.010501119131222368
0.010472030790988357
0.010392208250705153
0.010310401720926166
0.010236673422623426
0.010124583411961794
0.010021262890659273
0.010005666583310813
0.010056927318219095
0.010117025061044843
0.010190930569078773
0.010289222684223205
0.010312869120389223
0.010177310663275421
0.010000777405221015
0.009918383522890508
0.00987588236341253
0.009788526338525116
0.00969347044825554
0.009644450533669443
0.009590921625494957
0.009494838321115822
0.009454332017339766
0.009531110683456063
0.009617314736824483
0.009637508834712207
0.009655893256422132
0.009693798588123172
0.009700613722670823
0.009688158677890897
0.009702014869544655
0.009733347648289054
0.009730313175823539
0.009660817228723317
0.009569780963938684
0.009535016773734242
0.009568466341588646
0.009614976774901151
0.009614213432651014
0.009558983612805605
0.009498273548670113
0.009486323378514499
0.009554891067091375
0.00967760099330917
0.009767893974203617
0.009778129486367106
0.009760268735699356
0.00981666597072035
0.009980666493065655
0.010121141576673836
0.010089159321505576
0.009962694549467415
0.009932270771823824
0.009996726871468126
0.010036330611910671
0.010050423115026207
0.010084669480565935
0.01009586791275069
0.010025698577519506
0.009930444126948714
0.009913746167439967
0.009966313980985433
0.010063647839706391
0.010226910642813891
0.010363310743123293
0.010372078337240964
0.010338198048993946
0.010397712837439031
0.010560154020786285
0.010719183050096035
0.010780124564189465
0.010759620654862374
0.010734965142328292
0.010757595889735967
0.010826451093889774
0.010881384033709765
0.010892259797547012
0.01093707222957164
0.01106087600113824
0.0111639589141123
0.011136423610150815
0.010994224697351456
0.010858533747959882
0.010838306364603341
0.010889333221130074
0.010857443413697184
0.010695054102689028
0.010512422986794263
0.010442304068710655
0.010517057836987078
0.010643949301447719
0.010715501725208014
0.010699392261449248
0.010599270300008356
0.010458428037818521
0.010369139618705957
0.010344443717040122
0.01029510558815673
0.010219374145381153
0.010243456359021366
0.01039609672036022
0.010532101376447826
0.010567291774787008
0.010574584866408259
0.01058358559384942
0.01055250195087865
0.010523368353024126
0.01054929162375629
0.010601483723148704
0.01065044688526541
0.010681227697059512
0.010667941451538354
0.010568828457035124
0.010384425478987396
0.010258297719992697
0.010308101722039283
0.010430411666166038
0.010463373300153763
0.010377812255173922
0.010280917219351976
0.01026801923988387
0.010277971180621535
0.010232789567671716
0.010177252027206122
0.010120984958484769
0.009997532237321138
0.009836386907845735
0.009723124280571937
0.009663301785476506
0.009639545234385878
0.009671961783897131
0.009760269501712174
0.009860285012982785
0.009937522562686353
0.00999894913751632
0.010071580235380679
0.010175317157991231
0.010300136466976256
0.010385683216154575
0.01037954590516165
0.010325210026931018
0.010285486134234816
0.010257210789714009
0.010268195646349341
0.010343321894761176
0.01037620791932568
0.010300292072352023
0.010218141148798168
0.010187021947931498
0.010137587932404131
0.010067888484336436
0.010073888981714844
0.010152992887888103
0.010216607297770679
0.010289981523528694
0.010400828316342085
0.010435615896712989
0.010376987289637327
0.010359373539686204
0.010403856842312962
0.010415120078250765
0.010356310873758047
0.01029301979811862
0.010319332315120847
0.010386391107458622
0.010347829677630215
0.010221260434482246
0.010137235245201737
0.010108552984893321
0.010059983576647938
0.009998294515535236
0.010005442250985652
0.010058272024616599
0.010058229558635503
0.01007579172262922
0.010265242329332978
0.01056672979844734
0.010776374517008662
0.010799831291660667
0.010707773251924664
0.010638220079708844
0.01065244026016444
0.01070447585079819
0.010731789383571595
0.010679537381511181
0.010515400003641843
0.010315692599397153
0.010120691577903927
0.00999284215969965
0.009950279700569808
0.00996088481741026
0.010013729527126997
0.01005526363151148
0.00999704965390265
0.009899851700756699
0.009915571741294116
0.010012750886380673
0.010049544591456652
0.010042577346321196
0.010082596428692341
0.010111266183666884
0.01000238447682932
0.009813098271843046
0.009727836009114981
0.009732435094192624
0.009674962006974965
0.00957475184230134
0.00953958192607388
0.009569699841085822
0.009611606006510556
0.00965529736597091
0.009727386049926281
0.009818450610619039
0.009898448479361832
0.01001085344934836
0.010180095378309488
0.010297858538106084
0.010305507213342936
0.010320579709950834
0.010428972258232534
0.010536205058451742
0.010541394967585802
0.010523768486455082
0.01056817254750058
0.010534876366145909
0.010311515931971372
0.010067539960145951
0.009973713492508978
0.009988333012443036
0.01002829400356859
0.010067031644284725
0.010064091654494406
0.009967120154760778
0.009823189196176828
0.009790290286764503
0.00993680723477155
0.010101888771168887
0.010195955615490675
0.010243311459198594
0.010319852859247476
0.010405205320566893
0.010433706003241242
0.010500471687410027
0.010701323675457388
0.01087791947182268
0.010848082276061178
0.010712298178113998
0.010659198241773993
0.0106553459726274
0.010604214924387633
0.010608570035547018
0.010780504846479744
0.010975954695604742
0.01099526991136372
0.010919164412189274
0.010943328021094203
0.011027917889878154
0.011020757912192494
0.01091598004102707
0.010801503614056856
0.010731981203425675
0.01070157261332497
0.010691285734064877
0.010704069607891142
0.010702356835827232
0.010647734694648534
0.010617248779162765
0.010677570404950529
0.010724087529815733
0.010634059603326022
0.010480767351109534
0.010410246641840785
0.010390267870388926
0.010331564303487539
0.010319792185910046
0.010424381038174033
0.01052020254312083
0.010523814416956156
0.010495022123213857
0.010463647558353842
0.010430726276244967
0.010451586376875639
0.01055218387162313
0.010648125135339796
0.010629945006221532
0.010522978040389716
0.010488977953791619
0.010590654399711638
0.010672768075019122
0.010625025059562176
0.010584333448205143
0.01064658740768209
0.010631478463765234
0.010443386642728002
0.010320824354421347
0.010439094596076757
0.01063902659341693
0.010727865239605307
0.010731442978139967
0.010739011738914997
0.010736757160630076
0.01068103511352092
0.010606590744573622
0.010576439036522061
0.010554159553721547
0.010484472550451755
0.01044219485949725
0.010494758270215242
0.010582946022041143
0.010630972944200038
0.010628658435307444
0.010639565200544893
0.010679733124561608
0.01063902321504429
0.010511605588253587
0.010435494461562484
0.01042799406684935
0.01041842756792903
0.010406096612568945
0.010401044068858027
0.010374186080880463
0.010321761548984796
0.010318883624859155
0.010412868508137763
0.010500629879534245
0.01045766783412546
0.010298893938306719
0.010132518175523728
0.01006187298335135
0.010096228998154402
0.010121705438941718
0.01007548653986305
0.010048059709370137
0.010100224940106272
0.01018007734324783
0.010248063160106539
0.010295789439696819
0.010319135854952038
0.010324466852471232
0.010268978383392096
0.010104485091287642
0.009914330877363682
0.00986165356822312
0.009958348707295955
0.010015450136270374
0.009943909826688468
0.009892266646493226
0.009953326338436454
0.010035369670949876
0.010053835161961615
0.010006773385684937
0.009960882163140923
0.01000005573965609
0.010073289861902595
0.010077682354021818
0.010053923879750072
0.010064970734529197
0.010074483477510512
0.010048690075054765
0.009998245369642974
0.009927149307914078
0.009839167550671846
0.009815788718406111
0.009932560704182834
0.010053448199760168
0.01000602625310421
0.009873713778797538
0.00983701181365177
0.009933092759456485
0.01007983433548361
0.010208396648522466
0.010316598606295883
0.010379523728042841
0.010351236860733479
0.010307536222971975
0.010392671823501587
0.010591470350045712
0.010740946107544004
0.01076741949422285
0.010748387884814293
0.01076403567334637
0.010808530803769827
0.010850010106805712
0.010878446488641202
0.01087319288868457
0.010824165719095618
0.010744629744440317
0.010634968564845622
0.010558170243166387
0.010625556195154786
0.010798247384373098
0.010922171492129564
0.010917135365307331
0.010783604292664678
0.010599990850314498
0.010470679430291056
0.010379552603699266
0.010276287354063243
0.010208998022135348
0.010214242206420749
0.010227958308532833
0.010170731598045678
0.01007864457089454
0.010089974254369735
0.010214646174572408
0.010286554787307977
0.010252086212858558
0.010237561385147274
0.01031451483257115
0.0104123534145765
0.010453340387903154
0.010466550486162305
0.010463773508090525
0.010375175371300428
0.010287544368766248
0.010382390930317342
0.010562963027041405
0.010565556730143725
0.010375990392640233
0.010217182512860745
0.010197667505126446
0.010204025993589312
0.010142500724177807
0.010069821367505939
0.010014290604740381
0.009912465678062289
0.009788136042188852
0.009750199136324227
0.009841501966584475
0.010001050387509168
0.010106610958464443
0.010081296903081238
0.009926734184846282
0.009701902600936592
0.009569973184261471
0.00964166667079553
0.009805295991245657
0.00991114418953657
0.009931491068564356
0.009909346450585872
0.009876847262494265
0.009817346129566432
0.009778248064685613
0.009889864907599986
0.010113659198395908
0.010267236861400306
0.010329400934278966
0.010379749014973641
0.010404797666706146
0.010377909922972321
0.010358022518921643
0.010413393364287912
0.010467079849913716
0.01038224081043154
0.010245282000396401
0.010252703677397222
0.010355998957529665
0.010360701265744865
0.010238855865318329
0.010126915099099278
0.010103086791932583
0.010072716784197838
0.009984204624779523
0.009967595210764558
0.010027048878837376
0.009974797130562365
0.009807674156036228
0.009723743696231395
0.00978509814478457
0.009854880964849145
0.009838873085100204
0.00983604765497148
0.009925823553930967
0.009982683034613728
0.009958463080693036
0.009994828174822033
0.010103011974133552
0.01014938305830583
0.010068266550078989
0.009899396973196417
0.009758821961004287
0.009734549417626113
0.009830142678692937
0.010008753114379942
0.01014336669817567
0.010099847461096942
0.009970768475905062
0.00995694450335577
0.010056509582791478
0.010106536699458957
0.01006646858761087
0.010061484999023379
0.010111607576254756
0.0100910434871912
0.010000736131332814
0.009933328956831246
0.009883970338851213
0.009850454938132316
0.009864347877446562
0.009902029468212276
0.009950710192788393
0.010025721951387822
0.01011960543692112
0.010200773212127388
0.010193038522265852
0.010064409342594444
0.009927274303045124
0.00989851358346641
0.009970749318599701
0.01008091859286651
0.010190298694651575
0.010287856396753342
0.010352501452434808
0.01036616848083213
0.010376086386386305
0.0104374316544272
0.01052706103771925
0.01060180636588484
0.010631610564887524
0.010594847667962313
0.01052601182833314
0.010470103276893496
0.010452226379420608
0.010496100387535989
0.010532685518264771
0.010470847545657308
0.010393142888788134
0.010425591103266924
0.010512682860717177
0.010527587800752372
0.010487989203538746
0.010500444273930043
0.010555967357940971
0.010550813872832805
0.01050001627765596
0.010527329673059284
0.01060855650343001
0.010581054743379354
0.010434783136006445
0.010325779635459185
0.010320722386240959
0.010350802866742014
0.010382303332444281
0.010420214405748994
0.01042094945209101
0.010403760685585439
0.010442376169376075
0.010485288933850825
0.010469943622592837
0.010452095926739275
0.01044863001909107
0.01042327848263085
0.010385482476558537
0.010340371334459633
0.01029945015674457
0.010309504447504877
0.010394472272600978
0.01052763053914532
0.01059559770859778
0.010502032334916294
0.01036333130672574
0.010358944290783257
0.010448437391314656
0.010464346890803427
0.010377598647028207
0.010298952958546579
0.010284171900711953
0.010280074593611062
0.01026400052709505
0.010292373294942082
0.010366731921676546
0.010381920943036676
0.010245885567273945
0.010052073635160924
0.010047788419760763
0.010263261455111205
0.010422969893552363
0.01039086386328563
0.010322831177618355
0.010352310719899832
0.01043832607101649
0.010451747558545322
0.010328752531204372
0.010175041274633258
0.010085055690724402
0.009998657400719821
0.009927881637122483
0.00999811030458659
0.010162949177902192
0.010236308744642883
0.010195990353822708
0.01016874830238521
0.010180603489279747
0.010182496467605233
0.010223238423932343
0.01034545831149444
0.01046688730129972
0.010512157818302512
0.010484849642962217
0.010439770107623189
0.010444022931624204
0.010453145357314498
0.010383726304862648
0.01031087536830455
0.010329046174883843
0.010384621734265237
0.010370636321604253
0.010231559220701457
0.010070402259007096
0.010067055730614812
0.010156759948004038
0.010128412251360715
0.010021071755327285
0.01001108172815293
0.01009152944199741
0.010151294618844986
0.010153854412492365
0.010124391505960374
0.010082173994742333
0.010038080466911197
0.010003090954851359
0.009964457096066326
0.009965548540931195
0.010084923240356147
0.010196486529894173
0.010117016406729818
0.009954963016789407
0.00989563382230699
0.009929635361768305
0.009975877469405531
0.009973395583219826
0.009940901845693588
0.009971482600085436
0.010075444129761309
0.010235790128353984
0.010443934730719775
0.010544065074063837
0.010434690359979869
0.010300948959775269
0.010328474396374077
0.010445129566360265
0.010489337823819368
0.010461667170748114
0.01047048862092197
0.0104797741654329
0.010356994962785393
0.010155159991700202
0.010081487202551215
0.010183341233059764
0.010256333181168885
0.010156839927658439
0.010030167060904205
0.010026700119487942
0.010079801122192294
0.010137564830947667
0.010225883545354008
0.010299935156945139
0.01032276673009619
0.010312723757233471
0.01027443956816569
0.010245911227539182
0.010273455081041903
0.010315022410359233
0.010312197671737522
0.010258895487058908
0.010183576298877596
0.010148774541448802
0.010177372235339134
0.010232355010230095
0.010298051477875561
0.010385179703589528
0.010522837766911835
0.010667480968404561
0.010660524426493794
0.010504952589981258
0.010416639687027782
0.01047552216798067
0.010553223513998091
0.01055523358285427
0.010546030767727643
0.010613788568880409
0.010711905139032751
0.010790332122705876
0.010871005135122687
0.0108626730251126
0.010688566071912646
0.010519326727371664
0.010481300957035273
0.010456148525699973
0.010369684579782188
0.010298061571083962
0.010300107970833779
0.01032805311260745
0.010291696502827108
0.01023993324721232
0.010315196542069315
0.010466960077174008
0.010495610763318836
0.010401497876737267
0.010375120143871755
0.010429712096229195
0.010409720712341369
0.010346872415393591
0.010386694013141096
0.010468152307439596
0.010462983660399914
0.010408398522995412
0.010391500592231751
0.010446745057124644
0.010553958311211318
0.010631788996979594
0.010636700342874974
0.010619728367310018
0.010637959742452949
0.010699265913572162
0.010771724600344897
0.010818446814082562
0.010847254546824843
0.010896392171271146
0.010988802257925272
0.011088987172115594
0.01110134991351515
0.011037044625263661
0.011044757755007595
0.011127315380144864
0.011132283138576895
0.011022756940219551
0.010887641620356589
0.010816519202198832
0.01081178369699046
0.010777601308654993
0.010673492185305803
0.010545778956729918
0.010432883000466972
0.010405178044456988
0.010490102984476835
0.010567358480766415
0.01060077715665102
0.01070266229333356
0.010834395377896726
0.010814750355202706
0.010618616624269635
0.010447007121983915
0.010479647594038397
0.010621924460865557
0.010658356486819684
0.010590828624553978
0.010564260592218488
0.01056527249282226
0.010490020604338497
0.01040822773706168
0.010447877736296504
0.010533789990004152
0.010523397871293128
0.010439903333317489
0.01040772180305794
0.01049748367164284
0.010653378472197801
0.010751769109629095
0.010779456230811774
0.010839564374182374
0.010943212336860597
0.010999636254273354
0.0109990524337627
0.010982827667612582
0.010942975161597132
0.010900076690595596
0.01088807922322303
0.010834156689234077
0.010663901895750314
0.010490368325263262
0.010471189769450575
0.010532605380285531
0.010500723642762751
0.010399414000567049
0.010367420548573137
0.010439833805430681
0.010552868994418532
0.010606670442502946
0.010553825667593629
0.010496536225546152
0.010542382311541587
0.010654762405902147
0.010745672096963971
0.010728029848542065
0.01059121649712324
0.010514291753061115
0.01060974266845733
0.010702550255227834
0.01065704076550901
0.010638113364111633
0.010827257335186004
0.011075336297508329
0.011095089777372778
0.010934156200382858
0.010870813094079494
0.01092961418442428
0.010950616816990078
0.010953037631697953
0.01106091408059001
0.011225870118942112
0.011283670095726847
0.011226978476624936
0.011181444942485541
0.011163941372651608
0.011082218731753529
0.010921137169934808
0.01079539264086634
0.010775959233287722
0.010751878961455076
0.010617381234187633
0.010473564583808184
0.010422407968435436
0.010383970842231065
0.010326281376183032
0.010325982384383679
0.010326683062594384
0.010231527283322066
0.010145790642127395
0.010194367037620396
0.010265629668720067
0.010233380664139986
0.010216161701828241
0.010319103924557567
0.010420109720434993
0.010422348850406707
0.01039070419035852
0.010389210220891983
0.010427428644616156
0.01049762814072892
0.010569402715191245
0.010609967173077167
0.010563192097470165
0.010412706485949457
0.01034971181768924
0.010559277890715748
0.010855263979174197
0.010935043694917112
0.010842025496531278
0.010826084718573839
0.010929770041257144
0.0109711031219922
0.01088515016483143
0.010817821905948221
0.010803938515018673
0.010731593563687056
0.010642496817745269
0.010652530314400792
0.010709161101840437
0.0106906942371279
0.010609575370326639
0.010592272498179227
0.010643780480604619
0.010629329211078585
0.01057380557525903
0.010640064522158354
0.010813637149985879
0.01093030811753124
0.01092247401829809
0.01085504460381344
0.010801558264065534
0.010793712760787458
0.010854292071890086
0.010962055211421103
0.011031151849310845
0.01103445676388219
0.011048401349689811
0.01111464863177389
0.01117661683820188
0.011177854223642498
0.011155652382876724
0.011175940558314324
0.011191571068484335
0.011123488429002465
0.011050609822850674
0.011097529854159802
0.011196912438608706
0.011174134502653033
0.011027301012072712
0.010934705079998821
0.010946750540751964
0.010930803446099162
0.010899347704835236
0.010991189177148045
0.011114933078642935
0.01104954728623852
0.010822131724562496
0.010651071958709507
0.010627594359684736
0.010667657123412937
0.010679101371206343
0.010651843741070479
0.010618136085104197
0.010601685084402561
0.010630227329675107
0.010694431560114025
0.010712123033590615
0.010649046984035522
0.010562228930648416
0.01050703732529655
0.01049417715286836
0.010478304126299917
0.010449301153421402
0.010488519044592977
0.010590826168190688
0.01062880407087505
0.010556360362097622
0.010454079415649176
0.010401783417910338
0.010404647977557033
0.01042803461663425
0.010455088764429092
0.010459294815082103
0.010395311638712884
0.010308636142872274
0.010317559950053692
0.01042827958939597
0.010510533261112868
0.010474689181428402
0.010406806045211851
0.010425759428180754
0.010459369500167667
0.01041602371726185
0.010406806273385883
0.010502868148032576
0.010562009518034756
0.010496037739794701
0.010420226708520204
0.010434677067678422
0.010470872931182384
0.010458640810102225
0.010444518781732769
0.010437530481722206
0.010384853770956397
0.010320275265257806
0.01031773965107277
0.010359872372355312
0.010378411104902625
0.010346553712151945
0.010284633322153241
0.010231844775844365
0.010220220279879868
0.010269967573694885
0.01036700623575598
0.010423936434090137
0.010389607148244977
0.010349142549093812
0.010385522334836424
0.010478930773679167
0.010562538378871977
0.010584539349656552
0.010554545097984374
0.010477333983872086
0.010323426451068372
0.010175951165147126
0.010168213783763348
0.010262633855454624
0.01031871308805421
0.01028810061980039
0.010244268188253046
0.010256051649339498
0.010256197543349117
0.0101992914872244
0.010224031761754303
0.01035717734368518
0.010404968408402056
0.010322809405624866
0.01028393888613209
0.010396272758953273
0.01055325732799247
0.010583931710571051
0.01050807706778869
0.010442495688330382
0.010379586836788803
0.010309414095245302
0.010317653217352927
0.010417192573659122
0.010482800099998713
0.010397982886061072
0.010221346572507173
0.010136739304289221
0.010204955227673054
0.010318746326956897
0.010376093636732548
0.010360076364595443
0.010328315601218491
0.010341014647856354
0.01036699679447338
0.01035444533918053
0.010333793840836734
0.010330651430413127
0.010302559703122825
0.01023327691014856
0.010181299254763871
0.010231749450322241
0.010401930790394545
0.01056874874047935
0.010585018100682646
0.010464813015423714
0.010354596318211406
0.01034271736163646
0.010391706684604287
0.010490237758494914
0.010676291633863001
0.010824312751647086
0.010753950036596507
0.010562120494432748
0.010482521697413176
0.010555402915924788
0.010665664013940842
0.010748050746042282
0.010824285731650889
0.010865581082180142
0.010801468035206199
0.010706974496133625
0.010703090550377966
0.01073054883396253
0.010696886812802404
0.010641879881732166
0.010618510153144599
0.010633233308326454
0.010703393388539553
0.010881062704138458
0.011172842276282608
0.011391822702717037
0.011317701474763454
0.011058455107267946
0.010950997569598258
0.011105113786179573
0.011267750852275639
0.011196463915985078
0.01100783833535388
0.010948422697838396
0.01102267309324816
0.011085635414347053
0.011066621262580156
0.011000407193787396
0.010983513798564673
0.01104579382808879
0.0110804523085244
0.01101739084115252
0.010940005893353373
0.010932931280694901
0.010956715950742364
0.010917514895554632
0.01079883822472766
0.010700753049459309
0.010720430051442235
0.010839894791133701
0.010950297769159078
0.010960542964749038
0.010898507728707046
0.010836224525701255
0.010762286379467696
0.010690099936909973
0.010691672442480921
0.010722227427177131
0.010712430127896369
0.010703029746655374
0.01067661466775462
0.010564438197761775
0.010451438394375146
0.010494972423184663
0.010683629701379687
0.01084269747370854
0.010869420345406978
0.010829291406553239
0.01078121226746589
0.010707746862899513
0.010644824525807053
0.010650794571265578
0.01066206737421453
0.010501452111639083
0.010126218369696289
0.00984010937390849
0.009918479633051902
0.010160286817699671
0.010233435791451483
0.010165945768821984
0.010191436829045416
0.010337827992625535
0.010410257659386843
0.01035015208646655
0.010303680656943471
0.010319287818856538
0.010330442225094884
0.010338735594414174
0.010364415065851063
0.01040269750636071
0.010464417303446681
0.010516246242914348
0.010494494242593647
0.010408897006418555
0.010330325483810156
0.010324232904240489
0.01041449555195868
0.010569351648446173
0.010691155507229268
0.010652115463744848
0.010481484888587148
0.010384380966424942
0.010438631435390562
0.01054464465705678
0.010645494470372796
0.010712294545955956
0.010715033432934434
0.01071978581836447
0.010757148042321205
0.01075745426118374
0.010752611004281789
0.010823123906739056
0.010911114444024862
0.01091439247597009
0.010820990016218274
0.010696710688062012
0.010605090602766723
0.010555096284952015
0.010537814500275999
0.01052547617116943
0.010468740812502802
0.010368456218857318
0.010259266148786993
0.010198547502513975
0.010244185111951083
0.010302697787992657
0.010260686799883843
0.010244499444961547
0.010383155036251993
0.010542842543218285
0.010576010290533304
0.010571890857536346
0.010667065347079188
0.010793758856598288
0.010819515332113951
0.010776253319345414
0.010749643144663423
0.010728485577274113
0.010688485424034298
0.0106428015162237
0.010608539970126002
0.010622383926529437
0.010688828162383288
0.01074693497037515
0.010767293460667134
0.010743758934549987
0.010622369842603802
0.010385283383075148
0.010141744161956012
0.010043269642628729
0.010107621890492738
0.010214007045142352
0.010265794980805367
0.010230509578250349
0.0101377367018722
0.010102169497404247
0.010151208997704088
0.010163616670761258
0.01011377310846001
0.010093133258633315
0.010110679320059717
0.010095825204625725
0.009995772861875593
0.009844734913203866
0.009771630389150233
0.009833785810042173
0.009935532582458108
0.01000688603380695
0.010112015267368405
0.010297339733224362
0.010445517678745091
0.010458574085496365
0.010478899229783565
0.010640875108074398
0.010815202351659536
0.010866380829829722
0.010833541040774435
0.010750782415270806
0.010629647569730878
0.01055026424350217
0.010550478107761592
0.010553518226370216
0.010499908823985606
0.010451071429997683
0.010472188501153142
0.01051450837869197
0.010532351932488382
0.010567197471391409
0.010631292327307165
0.010664914005901664
0.010626823790371418
0.010551763521507383
0.010528530487790703
0.01054858478717506
0.010473539619706571
0.010332106521818787
0.010342905262950808
0.01051960739074275
0.010660925905685872
0.010690284515731037
0.010678405449725687
0.01066268671536818
0.010651576034724712
0.01069119276246056
0.010778187671676279
0.010809291517361999
0.010747233864385634
0.010707185282371938
0.010770096995402127
0.010860833157785237
0.010897532359231264
0.010922375931404531
0.010979629154317081
0.010985684082843363
0.01087564451387152
0.010755475854966789
0.010751545457169413
0.010820480943657458
0.010807770318351687
0.01065631173318252
0.0105047571612522
0.010485640806145967
0.010507993542123586
0.010461528801824898
0.010437090520281345
0.010494183334521949
0.0105144520313479
0.010444164886139333
0.010387464705854655
0.010396347118075936
0.010386382648721337
0.010340874562971294
0.010368964448571206
0.01043789591640234
0.010385999951977283
0.010257753911428153
0.010237146955914796
0.010312867728061973
0.010341616820078343
0.01030986882513389
0.010317039771471172
0.010409315375145525
0.010530158455949276
0.01064430518541485
0.010800586589612067
0.010939412319567054
0.010904671614989639
0.010764603230636566
0.010717523135244846
0.010743498713709413
0.01072367794578895
0.010676788601558655
0.010655027306638658
0.010629376487340778
0.010574023008812218
0.010533086915966123
0.010541233334224671
0.01053134378278628
0.01042196677532047
0.01026143218157813
0.010157718432601541
0.010120420844759791
0.010092439891304822
0.010092627427075057
0.01017941240919754
0.010299443677067756
0.010344478606712074
0.010330287753604353
0.010370754774194212
0.010496657202020287
0.010596376236062497
0.010571703247260303
0.010501612923108042
0.010492909757886082
0.010468250240664929
0.01037790345493704
0.010388823819812387
0.010561982891522348
0.010670829459559172
0.010579604329541326
0.010463462746702134
0.010474672520067542
0.010503746131435036
0.010455078845843672
0.010442552145104856
0.010501577062532306
0.010467477489728481
0.01030690074665472
0.01017894752556458
0.010139256415423006
0.010107132205739618
0.01004670198308304
0.010003318190574645
0.009992285766638815
0.009945004456676542
0.009854827506933362
0.009820028545800597
0.009847322967834771
0.00988046043086797
0.009960398422554135
0.010114957776386291
0.010258674693759531
0.010301461550407112
0.010272560990415514
0.010297364501748235
0.010408793385140598
0.01048979496350512
0.010483388267457485
0.01047098174924031
0.010503457786981016
0.010520023219287395
0.01046622171998024
0.01041251010959968
0.010425197733566165
0.010424826182425023
0.01034218770917505
0.010219164316076786
0.01010853612329811
0.010041452278383076
0.010012891690712422
0.009976429857779294
0.009932262527290731
0.009913941624108701
0.009923170343972743
0.009984399192035198
0.01008576967054978
0.010082625320646911
0.009933320072013885
0.009864985537715256
0.010040075222495943
0.010287718949839472
0.010357323528733104
0.010264558659400791
0.010179883325472474
0.010124890971928835
0.010076905435416847
0.010115275238640607
0.010223923528101295
0.010294614443555474
0.01033985897898674
0.010412246589548885
0.010443902215920389
0.010342177760321647
0.01017723642056808
0.010157621956896037
0.010344080589711667
0.01054569996194914
0.010584075059741736
0.01047472510719672
0.010353455850854516
0.010285540651530027
0.01022084079682827
0.010179392052814365
0.010193853320088238
0.010145886957179755
0.010008229347877205
0.00996196256717667
0.010063087353482842
0.01016663588117808
0.010187329603359102
0.010163058582693339
0.010149536186363549
0.010158249379601329
0.010188046947587282
0.01022418419830501
0.010192648996599019
0.010094370923470706
0.010046982860658318
0.01006757740629837
0.010083331721834838
0.010105440830811859
0.010148305275943131
0.01015043589984998
0.010093983383849264
0.010037409972865135
0.010039501800201833
0.010128999957814813
0.010270661623217166
0.010365396742708982
0.010332504243124277
0.010186217641457915
0.01003419559681788
0.00995551682310179
0.009944268837571144
0.009989375623408705
0.01005971698090434
0.010098322455305606
0.010119492781814187
0.01017140589421615
0.010237369816750289
0.010286133524496109
0.010350179271772503
0.01048257210291922
0.010636772094294429
0.01067466830369085
0.010579437967389822
0.010505541327875107
0.010550670954398812
0.010654568509198725
0.010692405942827464
0.010608367091044783
0.010482607015874237
0.010414395350962877
0.010433034908492117
0.01051586023531854
0.010563149997033179
0.010488385204225778
0.010362996046897024
0.010310238620731979
0.010348365714307875
0.010417736233212054
0.010463915460277348
0.010489650638774037
0.010496732576284558
0.010452008675783872
0.010431337484624237
0.010565659801941366
0.010776389145758004
0.010857231626287102
0.010773845571093262
0.010661532836966216
0.010608581406995655
0.010584673169068992
0.010555566539987921
0.010528692938387395
0.010492629543878139
0.010446338029578329
0.01040914398850873
0.010360067158471794
0.010325692642945796
0.010396780266892164
0.010539200692437588
0.010639140417333692
0.010681436196900904
0.010706824704539031
0.010746727485675366
0.01079814655240625
0.01078771730652079
0.010657749900128693
0.010464987056329846
0.010312374643981458
0.010227150211576372
0.010167223359458149
0.01012404212495312
0.010116373263299465
0.010074657637160271
0.009905811222270132
0.009681592246051878
0.009567854150664062
0.009629686861298978
0.009803674283903092
0.009954627258703113
0.01000343935796991
0.010000720161478967
0.010013930930290372
0.010063299764879048
0.01014854799490422
0.01024275845149532
0.010315293269231916
0.010360807506367564
0.010372265130281449
0.010337497806176543
0.010285495875868945
0.010278811648022383
0.010323587402235717
0.010346469413489103
0.01028434646083042
0.010148175137583166
0.010021925140172243
0.010014905850403011
0.010161762146744878
0.010389292864128947
0.01060170508455485
0.010725091150961817
0.010727463588118553
0.010667411857284606
0.010622678978834302
0.010597599074244499
0.010560580054298043
0.010482023782096804
0.010373603012412786
0.010317794024012982
0.010339807730633765
0.010367329891305416
0.010377741293050349
0.010364153005648405
0.01028516238089651
0.010204592708032579
0.010215605127159506
0.010256643914617598
0.010222845464013516
0.010141229906585067
0.010124859425704926
0.010201906573493034
0.01030553390039131
0.010430926277767866
0.01060234108241275
0.010755356373265386
0.010828211912885308
0.010798859298229218
0.010660319086164237
0.01051362109836191
0.010468803835101426
0.010497145031113177
0.010537793023977428
0.010549082404468208
0.010498139699921012
0.010427504836115986
0.010392685097176581
0.010385867373552174
0.010425821435637772
0.010551427067257464
0.010692696960177273
0.010751294204965234
0.010755521804094314
0.010758679748978466
0.0107264409144409
0.010639880052767694
0.01056244109524414
0.010529233380220831
0.010481926838401705
0.010401680923532695
0.010365860941819847
0.010414927783422172
0.010492416189517826
0.01051944435108453
0.010505883297882974
0.010549919041804969
0.010678679577540606
0.010799372133333237
0.010841114725917578
0.010831575256306679
0.010822292724624276
0.01080306738615036
0.01074603853514418
0.010705229612067341
0.010748914121650159
0.010835393848828971
0.01089330424554646
0.010933818565681576
0.011006603331770748
0.011110867846291513
0.01116178129799664
0.011100124351214618
0.010977921274024994
0.01084951012628153
0.010740601131692529
0.010698903955053539
0.01071856586728245
0.01075651370221749
0.010815621798392384
0.010867188139818608
0.010865717905107885
0.010836202569771558
0.010788113952148706
0.010724989215377718
0.010722052890341728
0.010774104332085699
0.010762634037528187
0.01067493372131139
0.010594204037915915
0.010523449061438442
0.010429886353667825
0.010359745970927179
0.01037603591568768
0.010439564245752991
0.010454377483110875
0.010435558028984816
0.010474193275440484
0.010545640108175576
0.010557794738560914
0.01048956036567688
0.010382989947684109
0.010310792971868068
0.010316662071272732
0.010388488934841006
0.010488958093337714
0.010539517893921584
0.010476161802653223
0.010361608853563666
0.010321248425170779
0.010352062382735313
0.01034328763373196
0.01030661458382383
0.010345171459484846
0.010413288418203593
0.010375839713960886
0.010234613311477006
0.01012431817362085
0.01014782999875024
0.010262102785054595
0.010355277697090059
0.010412144355941564
0.010470734653063118
0.010531116479542106
0.010617408838588744
0.010749133296776563
0.010861242816317826
0.010901206904090941
0.010911263751331716
0.010963050324935466
0.011096124406903982
0.011259736609645188
0.011356123506557196
0.011411709683015943
0.011485717718023807
0.011495719680096954
0.011437424807809293
0.01147739598993212
0.011607733683194964
0.011626019629184157
0.011520321785937995
0.011466923598200084
0.011478788077365607
0.011433368839789182
0.011373936652671546
0.011433766286354513
0.011565642710775138
0.011623769893776625
0.011610626617912203
0.011619041671510786
0.01163745136698708
0.011604295971337705
0.011546807130798697
0.011536657903343439
0.011555607938207686
0.011515546946320683
0.011416296029929072
0.011352729629725217
0.011377248500939458
0.011433922620490193
0.011437641894444824
0.011405913904309273
0.011386330421082676
0.011317269678693264
0.011198265601415187
0.011190512829925866
0.011338096740655602
0.011476608572993428
0.01148187271086499
0.011407273856457322
0.011351284815464168
0.011289703231304883
0.011185729401186109
0.011100948438979685
0.011015256049577147
0.010853705403860658
0.010705631321761756
0.01067481693578884
0.010707075216341764
0.010702949666883796
0.010572524163872004
0.01032177812885493
0.01010455639101565
0.009981453940272332
0.009887707051821053
0.009854376355651766
0.00989102055085823
0.00988222329178825
0.009838406464550644
0.009889086093753576
0.010007057974580675
0.010061199446208775
0.01006765220547095
0.01014187665656209
0.010258786694612354
0.010309530152007938
0.010321648330427707
0.010374205352272839
0.010431077203247697
0.010431752980221063
0.010393565520644188
0.010351204616017639
0.010297827520407737
0.010210533735807985
0.01010475039249286
0.010024233341682702
0.00999359751585871
0.009997891003731638
0.009963694498874248
0.00986795211210847
0.009828898108098656
0.009896389646455646
0.009982168411370366
0.010085080263670533
0.010238520544953644
0.010354923617560416
0.010384655429515988
0.01038469850551337
0.010391450836323202
0.01039553411770612
0.010378210078924895
0.01037274681031704
0.010403184252791107
0.01037957068765536
0.01029660705011338
0.010295477868057788
0.01036906242603436
0.010370451768394559
0.01026497095823288
0.010151879480108619
0.010148920265492052
0.010249515494797379
0.01033740906510502
0.010399687145836651
0.010483082286082208
0.010529277711175383
0.010511266665998846
0.010484452974051237
0.010453552671242506
0.010427612946368753
0.01043951136758551
0.010443756612949074
0.01037689026677981
0.0102582295704633
0.010156270468141883
0.010101848957128822
0.010072056206408888
0.010048544588498772
0.010020453843753784
0.009980836443137377
0.009978774832561613
0.01004837772808969
0.010135137306060643
0.010213197246193885
0.010296202842146157
0.010336205624043941
0.010307319911662489
0.010286059104837477
0.01035085334442556
0.010463639604859054
0.01051425586687401
0.010505906143225729
0.010523090776987374
0.010502986842766404
0.01037129948148504
0.010281928677577525
0.010342788440175355
0.010401192614808678
0.010335360111203045
0.01024728805758059
0.010270162944216281
0.010346087727230042
0.010371967966202647
0.010440660358872264
0.010626749112270772
0.010793795175850392
0.010861815880052745
0.010909758328925817
0.010953734640497714
0.01093673239229247
0.010903336447663605
0.010958636994473636
0.011056772652082145
0.011055951544549317
0.010998610358219594
0.011039280039258302
0.01114660982042551
0.011175588499754667
0.011096806204877794
0.0110033083637245
0.01100617418065667
0.011103332322090865
0.011189628296997399
0.01122287221485749
0.01122508364962414
0.011205083325039595
0.011190536031499505
0.01119910977780819
0.011202534006442874
0.011194060039706528
0.011188115337863564
0.011185450812336057
0.011169151670765131
0.01109538646414876
0.011008611794095487
0.011053358914796262
0.011201828417833895
0.01125015396391973
0.0111371512664482
0.010978210903704166
0.010865903778467327
0.010782876873854548
0.010685655118431897
0.0106469058804214
0.010717913506086916
0.010740228672511875
0.0106272992817685
0.01055593486642465
0.01063928399933502
0.010752279730513691
0.010768358577042818
0.010734890394378454
0.01071887676604092
0.010670759859494864
0.010607459854800255
0.010638963067904114
0.010721605136059225
0.01073441727552563
0.01071749154245481
0.010768065880984067
0.010840736031532287
0.010808410516474395
0.010690739662386477
0.010664373284671456
0.010759076599497349
0.010777579282876103
0.010646534094121307
0.010555156613700092
0.01062080894364044
0.010697620098944753
0.010634323332924396
0.010511804246343672
0.010467228589113801
0.010464578357059509
0.010441042536403983
0.010447721749078482
0.01048503918107599
0.010478736902587115
0.01046245725126937
0.010528028695844113
0.010638494261074811
0.0106851062271744
0.010700623015873134
0.010813062631059437
0.010950335240922869
0.010891391083132475
0.01066796361701563
0.010540146788116544
0.010611119351815433
0.010766699439845978
0.010871955517213792
0.01090721995336935
0.010926461613271385
0.01092034081928432
0.010872264094650745
0.0108557247556746
0.010883489612024278
0.010846205418929458
0.010728007941506803
0.010630066611338407
0.010576876727864146
0.010527263432741164
0.010500271948985755
0.01053877433296293
0.010580948600545526
0.010507966072764248
0.010357345128431917
0.01029406463028863
0.010345406669657678
0.01038011004216969
0.010339781662914903
0.0103230156050995
0.010371531299315393
0.01034619030309841
0.010216710907407105
0.010188729751389474
0.010335684886667878
0.010479175918735564
0.010523774740286172
0.01055579834850505
0.010630916161462665
0.010713472976349295
0.010774099507834763
0.010825788583606482
0.01088043774245307
0.01092129155760631
0.010931586497463286
0.010904969917610287
0.01084145775064826
0.010766107239760458
0.010725522311404348
0.010730179692618549
0.010677610621787608
0.010479318466968835
0.010298579595983029
0.010364616503939033
0.010603286637924612
0.01077389283105731
0.010804801345802844
0.010787977008149027
0.010782406581565738
0.010738636185415089
0.010662873648107052
0.010676943021826446
0.010773374699056149
0.010804307633079588
0.010774086439050734
0.010811036862432956
0.010896268519572913
0.010921647595241666
0.010902507598511874
0.010908469641581178
0.010900685312226415
0.010798373771831394
0.010667986143380404
0.010671010268852114
0.010785655779764057
0.010823241015896202
0.010743689346127213
0.010675018881447612
0.010668394034728407
0.010660573500208556
0.010649974970147014
0.010732918502762914
0.010878434833139182
0.010903998343273998
0.010762165943160653
0.0105858334293589
0.010496129137463868
0.010505924075841904
0.010539564741775394
0.01053390844259411
0.010487536946311594
0.01043900911230594
0.010448712720535696
0.010497836424037814
0.01048875208478421
0.010432652505114675
0.010421990402974188
0.010442837155424059
0.010429714666679501
0.010405229688622057
0.01043291496578604
0.010512143569067121
0.010567241343669593
0.010532091539353132
0.010443662093020976
0.010389413074590266
0.010390302371233702
0.010410220832563937
0.010446852357126772
0.010547303385101259
0.010677163163200021
0.010711551466956735
0.01065351086203009
0.010645758779719471
0.010747729879803956
0.010879454617388547
0.010934894224628806
0.010894308877177537
0.01083248894661665
0.010800805855542422
0.010816196189261973
0.010893830847926438
0.010938468244858087
0.01082709081005305
0.010644068992696702
0.010584061639383436
0.010676506855525077
0.010771691761910916
0.010766816935501992
0.010734578692354262
0.0107468521874398
0.010716238082386554
0.010604041418991983
0.010563509701751173
0.010684054624289275
0.010835251645185054
0.01086846463382244
0.010817546145990491
0.010797110055573284
0.0108003114676103
0.010812394539825618
0.010890401988290251
0.010941109172999858
0.010852769436314701
0.010761735159903765
0.01078721472993493
0.01083964157383889
0.01085434886161238
0.010872742030769586
0.010919656613841653
0.010995080075226725
0.011080491775646805
0.011126738800667226
0.011144219427369534
0.011194594115950167
0.011267067310400307
0.011296874452382326
0.01126367216464132
0.011198929888196289
0.011136513212695718
0.011103457934223116
0.011114236335270106
0.011131162391975521
0.011086880536749959
0.010952395712956786
0.01078329342417419
0.010714727020822466
0.01080249206162989
0.010930669815279544
0.01099484970793128
0.010987679124809802
0.010939389611594378
0.010944050610996783
0.011058221072889864
0.01117512454278767
0.011184178502298891
0.011115836286917329
0.011060426491312683
0.011064931172877551
0.011087743784300982
0.011080662133172154
0.01108249872457236
0.0111131930956617
0.011128345974721015
0.011145049529150129
0.011230139448307454
0.011360739450901746
0.011420930358581246
0.011375315627083183
0.011347276619635522
0.011374693126417696
0.011311776218935848
0.011188359074294567
0.011216068766079843
0.011363309193402529
0.011445725774392486
0.011438920018263162
0.011386129292659461
0.011289069042541088
0.011163793010637165
0.011077454439364373
0.011085727051831782
0.011113593545742333
0.011050314004532992
0.010942433667369187
0.010879658632911742
0.010806859196163714
0.010652886861935258
0.010518865706399084
0.010534313949756324
0.01061342481058091
0.0105927908513695
0.010527364760637283
0.010565519756637514
0.010667107375338674
0.01072159073781222
0.010724710300564766
0.010697794817388058
0.010643688808195294
0.010594070218503475
0.010631804117001592
0.010791035792790353
0.010936074862256647
0.010941552715376019
0.01087168522644788
0.010808585779741406
0.010765531547367573
0.010771882864646613
0.010812745052389801
0.010815581260249018
0.010762175247073173
0.010707863024435937
0.010710090380162001
0.01074776789639145
0.010727938921190798
0.010626188619062305
0.010546097531914711
0.010544517901726067
0.010530059393495321
0.010443414677865803
0.010390753783285618
0.010477245533838869
0.010577767887152732
0.010499552823603153
0.010349044217728079
0.010355978896841407
0.010480093294754625
0.010572182997129857
0.010636217254213988
0.010700069502927363
0.010690656024962664
0.010603832020424307
0.010587972919456661
0.010665561445057392
0.010651078410446643
0.010515134893357753
0.010472068600356578
0.010597050106152892
0.010695515568368136
0.01064688276965171
0.010596804325468839
0.010666823615320026
0.010720737962983548
0.010636389655992388
0.010545638864859938
0.010552073591388761
0.010548655712045728
0.010478402618318797
0.010428850962780416
0.010451457127928734
0.010471252454444767
0.010382930566556751
0.010223535476252437
0.010154323503375053
0.010258583393879235
0.010447433041408659
0.010570839215070009
0.010600519352592527
0.010632680812850594
0.010709433327428996
0.010770582053810358
0.01078363916836679
0.010782505003735423
0.010778953088447452
0.010760744344443083
0.010718941050581634
0.01063254315406084
0.01054141016677022
0.01054875839035958
0.010660713934339584
0.010742447297088802
0.010708260606043041
0.010670102825388312
0.010738173741847276
0.010797835867851973
0.010737666701897979
0.010658093257807194
0.010627528964541853
0.010564630893059075
0.010466568926349283
0.010426109405234456
0.010408674534410238
0.01029827970545739
0.0101559526193887
0.01017110784072429
0.010352123524062335
0.010499228131957352
0.010522896237671376
0.010554256890900433
0.010652538067661225
0.010681312461383641
0.01060005490668118
0.0105723972665146
0.010658863820135594
0.010701489835046232
0.010615335688926279
0.010527619747444988
0.010573011292144656
0.010718684201128781
0.01080801812466234
0.01076497005764395
0.010689890077337623
0.010664709592238069
0.010622146371752024
0.010522018917836249
0.010455907699652016
0.010461192759685219
0.010459870523773134
0.010461958306841553
0.010558885661885143
0.010690564094111323
0.01068986932747066
0.010573512851260602
0.010542190577834844
0.010651593985967338
0.010738643389195203
0.01069673511199653
0.010601094560697674
0.010551759945228696
0.010513331620022654
0.0104197505582124
0.010341143533587456
0.01035033380612731
0.01039033118635416
0.0103877596789971
0.010333278616890311
0.010272993529215456
0.010286126886494457
0.01040402305778116
0.010556772383861244
0.010648835147731007
0.010680011762306095
0.010745665254071356
0.010880630230531096
0.010965304425917565
0.01088952676858753
0.010727373100817204
0.01061535721179098
0.010553188370540739
0.01046401816420257
0.010370572353713215
0.010360441999509931
0.010427794875577092
0.010481300535611809
0.010486234207637607
0.010502077429555357
0.010566412271000445
0.01059135683812201
0.010478163650259376
0.010327880675904453
0.010300929909572005
0.01034941928461194
0.010362260765396059
0.010362276160158217
0.010381190995685756
0.010385131146758795
0.010387600543908774
0.010428125318139792
0.010434230235405266
0.010297594042494893
0.010111151761375368
0.010077664451673627
0.010146179557777942
0.01010568962432444
0.009991740779951215
0.010001384727656841
0.010166309024207294
0.010373417939990758
0.01053899921476841
0.010665205284021794
0.010743064433336258
0.010670500718988478
0.010447655683383345
0.010314434655010701
0.010427035731263459
0.010604900349862873
0.010614936212077737
0.010460609961301088
0.010276340544223786
0.010155537039972842
0.010148288658820092
0.010269292318262159
0.01041020978242159
0.01041692052502185
0.010334851727820933
0.010327117927372455
0.01040065126027912
0.010452677770517766
0.010444130948744714
0.01041282803285867
0.010403608586639166
0.010408678180538119
0.010401536375284196
0.01040262051858008
0.01042621981818229
0.010423807832412422
0.010353308687917888
0.010278043719008565
0.010303517840802669
0.010392720107920467
0.010432298970408737
0.010431521302089096
0.010470011979341507
0.01055008294992149
0.010572582958266139
0.010472064935602248
0.010324170640669763
0.010205517830327153
0.010107394075021148
0.010068568889982999
0.010149293434806169
0.010296147903427482
0.0104334368230775
0.010543143381364644
0.010598591724410654
0.01061495380476117
0.010633430439047515
0.010570563366636634
0.010366055914200843
0.010209908057004214
0.010330981062725186
0.010682426919229328
0.011006333711557091
0.01110618042293936
0.011005854955874384
0.010882108923979103
0.010869159861467779
0.010969515633769333
0.01110357831697911
0.011181800817139447
0.011148941540159284
0.01100815353449434
0.010859342119656503
0.010831081974320114
0.010875345859676599
0.010825955886393785
0.010708649004809558
0.01069324070122093
0.010782798412255943
0.010838711420074105
0.010833286973647773
0.010840054834261537
0.010836170320399106
0.010748105011880399
0.010644906386733054
0.01067188787739724
0.01083110700827092
0.010968076009303331
0.0109932716563344
0.010985337416641414
0.010984001709148287
0.010914352354593575
0.010795139628462493
0.010748933791182936
0.01080509731080383
0.010867781713604927
0.010853806426748634
0.010809617773629725
0.010849735685624182
0.010963576743379236
0.0110171053186059
0.010966292540542781
0.010893847970291972
0.01083930962253362
0.010756452302448451
0.01062769751995802
0.010525572001934052
0.010541612431406975
0.010640595885924996
0.010648019309155644
0.010451514632441103
0.010136447618715466
0.00988552886992693
0.009787984364666045
0.009774432452395558
0.009777604923583568
0.009832879849709571
0.009928851160220803
0.009976479555480183
0.009976383727043868
0.010007331990636885
0.010081444466486573
0.010139869758859277
0.010120898145250976
0.010048064896836876
0.010053465873934329
0.010171587448567151
0.010255327094346284
0.010245487387292087
0.010264182747341692
0.01034649921581149
0.010388125679455698
0.010389988352544606
0.01043885082937777
0.010487120677717031
0.010436763470061124
0.01034156711306423
0.010311896931380033
0.010320685720071197
0.010252945125102997
0.010139930611476302
0.010153390411287546
0.010265780291520058
0.010257681338116527
0.010138494316488505
0.010108367758803069
0.010195281361229718
0.0102878706343472
0.010318260192871093
0.010286227371543645
0.010233779363334179
0.010189091935753822
0.0101686297589913
0.010233911387622356
0.010380641799420118
0.010430811564438045
0.010276825558394194
0.01010476506780833
0.010125325568951666
0.010254215598106384
0.010324152507819236
0.010401430795900524
0.01057481990661472
0.010702405869960786
0.010667668567039072
0.010576539086177944
0.010527213476598263
0.010498452628962696
0.010483273193240166
0.010479680276475847
0.010446778093464672
0.010389872412197292
0.010377453113906086
0.010453208549879491
0.010556128001771867
0.010580933433957398
0.010544437179341913
0.010548846735619009
0.010596192507073283
0.010609364011324942
0.01058927652426064
0.010591002427972854
0.010569261815398932
0.010448295320384205
0.010328125460073351
0.010336115146055818
0.010374406827613711
0.010319400797598063
0.010262833763845266
0.010332900728099049
0.010445785373449326
0.010424203625880181
0.010324146174825728
0.010347890770062804
0.010451592272147536
0.010447774189524353
0.010373336346819997
0.010380687694996595
0.01046485780272633
0.010536110517568887
0.010598277267999947
0.010706495665945113
0.01079828356858343
0.010709235281683504
0.010464471355080605
0.01034795428160578
0.01046808029524982
0.010581974079832435
0.010519231781363486
0.010405411934480071
0.010377076724544167
0.010354949994944036
0.010231654876843094
0.0101266680797562
0.0102009738702327
0.010333437006920576
0.0103128981590271
0.010179727566428482
0.01008759071584791
0.01008247934281826
0.01014596180524677
0.010228834375739097
0.0102608327800408
0.010227944911457598
0.010188616863451898
0.010181375076062977
0.010169275710359216
0.01012016917578876
0.010064628729596735
0.01004657088778913
0.010071618184447288
0.010093579897657037
0.01009640660136938
0.010142565006390214
0.010213343296200036
0.010214602528139948
0.010209284741431474
0.01031046694610268
0.010433354154229165
0.010451219533570111
0.010447062067687512
0.010583947296254337
0.010791025869548321
0.010846996144391597
0.010760674620978534
0.010726316785439848
0.01077532909810543
0.01076534361578524
0.010625771707855164
0.010449537723325193
0.01033297169022262
0.010237923399545252
0.010136776152066887
0.010147899342700838
0.010336252148263156
0.010553597775287926
0.010648570009507238
0.01064885079395026
0.010641003544442355
0.010651556923985481
0.010685881725512445
0.010775833409279584
0.010936226649209856
0.011079966402612627
0.011090605785138905
0.010998309911228717
0.01094550792593509
0.010996320242993534
0.011079608537256718
0.011096048075705767
0.011033855956047773
0.010951179219409824
0.010882108267396688
0.01084787190426141
0.010870027737691999
0.010911933565512299
0.010917064314708114
0.010867275353521109
0.010776579417288303
0.010688602835871279
0.010633613001555204
0.010601696772500873
0.010579671184532345
0.01058203284163028
0.010661402703262865
0.010814520427957178
0.010903260144405067
0.010828154552727938
0.010692293490283191
0.010641258335672319
0.010624557030387222
0.010510440012440085
0.010388962416909635
0.01044426744338125
0.01060210278723389
0.010681052096188068
0.0107136758742854
0.010811644336208702
0.01094957216642797
0.011021522027440368
0.01097491486929357
0.010886646043509245
0.010863072052598
0.0108826911682263
0.010873577198944986
0.010841481466777624
0.010835515684448183
0.010886130686849356
0.010972480671480298
0.011022873208858072
0.010976666044443846
0.01084403736051172
0.010714176767505705
0.010675290320068597
0.0107114318292588
0.010772880436852574
0.010851830197498202
0.010892933015711606
0.010834284001030028
0.010709638227708637
0.010576621694490314
0.010501067140139639
0.01053149945102632
0.01057874086778611
0.010575863108970225
0.010617457889020443
0.010730300741270184
0.010833593909628689
0.010910328328609466
0.010957155171781778
0.01094126658514142
0.010905134617350995
0.010927035878412426
0.010979529391042887
0.010976990526542068
0.010906206481158733
0.010801410423591734
0.010713122431188821
0.010707151526585221
0.010762814758345484
0.010828744922764599
0.01093615171033889
0.01103148159570992
0.010973819145001472
0.0108230595337227
0.010755627984181046
0.010749596245586872
0.010704294582828879
0.010664834678173064
0.010705860229209066
0.010804793545976282
0.010883693234063685
0.010908065265975892
0.010915212845429779
0.01090891926549375
0.010852142162621021
0.0107630226155743
0.010677535911090672
0.010590051962062717
0.010483343699015678
0.010373552413657307
0.010315840640105307
0.010309100165031851
0.010291735772043467
0.010285301012918352
0.010319831990636885
0.010318609601818025
0.01026176304090768
0.010251756445504724
0.010366202001459896
0.01056225216947496
0.010671388255432249
0.010590631291270256
0.010459815906360746
0.010406576641835273
0.010354000343941152
0.010259263096377253
0.010193179054185748
0.010183785646222531
0.010213351417332888
0.010266387923620642
0.01029716610442847
0.010260616866871715
0.010177599862217904
0.01008183746598661
0.009991738037206233
0.009990606065839529
0.010114762214943767
0.010195284411311149
0.010120860594324767
0.010033707981929183
0.010022069406695665
0.010006177914328873
0.009991424926556646
0.010057235904969274
0.010152516434900463
0.010149263669736683
0.010050725438632072
0.009970925846137107
0.009916081628762185
0.009832511884160339
0.009797029732726514
0.009847069303505122
0.00984950308687985
0.009777335869148373
0.009794810987077653
0.009964110921137035
0.010141964480280876
0.010196071825921535
0.010185422203503549
0.010244750902056694
0.01033603427466005
0.010329826404340565
0.010251431874930859
0.010200657490640879
0.010208465498872102
0.010277996491640806
0.010380659680813552
0.010439702803269028
0.01039043577387929
0.01024399182293564
0.010125454431399703
0.010155115923844278
0.010256123538129032
0.010260653318837284
0.010166392270475626
0.010112752900458872
0.010159751959145069
0.010224491436965764
0.010232392172329128
0.01017192928120494
0.010051758917979896
0.009948817966505884
0.00993740204256028
0.009986447142437101
0.010053569609299302
0.010110014397650958
0.010102472566068173
0.01004306717775762
0.010006115059368312
0.010016006231307984
0.010070019741542638
0.010159262008965015
0.010196267771534621
0.010110652325674891
0.009985770760104061
0.009957809261977672
0.010035081361420452
0.010099911699071526
0.010113232876174152
0.010132821770384907
0.010118325888179243
0.010027352385222912
0.009965345044620336
0.0099656842648983
0.00988311304245144
0.009648940470069646
0.009398004394024611
0.009281440982595085
0.009261237573809922
0.00923113867174834
0.009251965722069145
0.00938882608897984
0.00951802834868431
0.009538562609814108
0.009523513158783317
0.009560321462340654
0.009608910223469137
0.009589634216390551
0.00955279883928597
0.009622296984307468
0.009781636125408113
0.009900480676442384
0.009940813160501421
0.00997239519841969
0.010054583195596933
0.01016068471595645
0.010222207345068455
0.010258689601905645
0.01031413558870554
0.010375865143723786
0.010469356765970588
0.010590338809415699
0.010643591131083667
0.01060367132537067
0.010519543183036148
0.010410451106727123
0.010325408023782075
0.010334676373749971
0.010396607406437396
0.010396263771690428
0.010272800982929766
0.010078298337757587
0.00998886532150209
0.010096541903913021
0.010241421381942927
0.010240587200969457
0.010113743785768747
0.010013176607899368
0.01000967213883996
0.010032900949008763
0.01007149309385568
0.010181136312894523
0.010287792580202222
0.010297439037822187
0.010280885356478394
0.010337293962948024
0.010415870118886233
0.010423283791169524
0.010432920749299229
0.010528549766167999
0.010575433159247041
0.010485537219792604
0.010399259803816676
0.01040324591100216
0.010416646413505077
0.010360217029228807
0.010284606157802046
0.010319505175575614
0.010425112270750105
0.010419128718785942
0.010325874625705183
0.010310255382210016
0.010362463565543293
0.010394140896387398
0.010399393769912422
0.010359726529568434
0.010242384024895728
0.010084405736997724
0.009964928906410932
0.009921833677217363
0.009907321683131158
0.009894100241363049
0.009945667181164027
0.010088054519146681
0.01028226369060576
0.010458831465803087
0.010500920130871236
0.010401994548738002
0.010310456440784037
0.010309996479190887
0.010395657476037741
0.010558530925773085
0.010702440990135073
0.010709177628159523
0.0106214964017272
0.010564414872787893
0.010574021004140377
0.010579848168417812
0.010535892294719816
0.010504742739722133
0.010492882737889887
0.010403333753347397
0.010266226711682975
0.010228116428479553
0.010320219299755991
0.010451225130818784
0.010552814975380898
0.010630869627930225
0.010690723033621907
0.010708846542984247
0.010728286518715323
0.010811763424426317
0.010904696881771087
0.010927501902915537
0.010890018809586764
0.010848185224458575
0.010822269539348782
0.0107414735481143
0.01060730152297765
0.010567831676453351
0.010569618162699045
0.010386028103530407
0.010133112482726574
0.010111204660497607
0.010241959132254124
0.010277268984355032
0.010254332069307566
0.010317063611000776
0.010409884355030954
0.010417478210292756
0.010392335769720375
0.010410445346496999
0.01038964511360973
0.010255657844245434
0.010089754173532129
0.01004210566636175
0.010180724682286382
0.010400178120471537
0.010564577877521514
0.010655742012895644
0.01065798906609416
0.010536005194298924
0.010355797330848873
0.010206734556704759
0.010110636670142413
0.010081208106130361
0.010123764965683221
0.010205144505016505
0.010258442051708698
0.01023337508086115
0.010191030162386596
0.010220697121694685
0.010289450739510358
0.010333917187526822
0.010360025730915368
0.010378947821445763
0.01039842039346695
0.010428863372653722
0.010466102058999241
0.010508888708427548
0.010511209554970265
0.010430490607395768
0.010353140332736075
0.010375926629640162
0.01045853185467422
0.010503258020617069
0.010486530121415854
0.010484654880128801
0.01052595323882997
0.010541852144524456
0.010583972111344337
0.01075939520727843
0.01092589889653027
0.0108963837986812
0.010790040967985987
0.01078384455293417
0.010816909032873809
0.010786071079783141
0.010722253676503897
0.010687675531953574
0.010678786979988218
0.01064139808062464
0.010566848795861006
0.010528480005450546
0.010550072398036719
0.01052340999711305
0.010353822512552142
0.010125367804430425
0.009973836722783744
0.009881151230074466
0.009785092566162348
0.009715442834421993
0.00972853613551706
0.009871634170413018
0.010105736353434622
0.010262926728464662
0.010262228068895637
0.010224384879693389
0.010273015578277409
0.010364356222562493
0.0103790932148695
0.010319728362374008
0.010307523841038346
0.010392362456768752
0.010483433222398163
0.010480723464861513
0.010399121013469993
0.010324203595519065
0.010251846807077527
0.010102488142438233
0.009942918145097792
0.009922796566970647
0.009978691549040377
0.009934273939579725
0.009798747873865067
0.00970516361296177
0.009703992679715157
0.00976643875706941
0.009865412707440555
0.009932363512925804
0.009864184968173505
0.009709328976459802
0.009660124140791594
0.009765948792919516
0.00987608294468373
0.009886721805669367
0.00984575494658202
0.009847377445548772
0.00993963931221515
0.010073194303549826
0.010156407640315591
0.010220606359653175
0.010364135769195855
0.010524532236158847
0.010559388427063823
0.010503835789859296
0.010510533973574638
0.010607243445701898
0.010712065938860179
0.01078414084855467
0.010818984834477305
0.010844818130135537
0.010901081361807882
0.010922982571646572
0.010886473269201814
0.010931688286364078
0.011047801356762648
0.011034048036672175
0.010896192346699536
0.01084074132144451
0.010947168646380305
0.011108029307797552
0.011172507139854133
0.011079890970140695
0.010903571057133377
0.01076517733745277
0.010732552316039801
0.01079194933641702
0.010900899558328092
0.011037545148283243
0.011138232285156846
0.01113107924349606
0.011097851595841347
0.01115399005357176
0.011231847968883813
0.011223694365471602
0.011166229411028326
0.011129970941692591
0.011089204233139754
0.011022901814430951
0.011002214904874564
0.011045883810147643
0.01104979753959924
0.010954959141090513
0.010838321945630013
0.010817479882389307
0.010909415618516504
0.0109794808505103
0.010934768826700747
0.01087659080978483
0.01087840375956148
0.010840681889094412
0.010717049101367592
0.010616638269275426
0.01062386185862124
0.010705180428922177
0.010778221730142833
0.010787822059355676
0.010730029861442746
0.01066005507018417
0.010665862900204957
0.01071804807987064
0.010666089416481554
0.010506613892503083
0.010347762145102024
0.0101899051386863
0.010089704962447286
0.01016698227263987
0.01030827415175736
0.010299043753184378
0.010129653075709939
0.009926632102578879
0.009794776747003197
0.009763545915484428
0.009785350584425033
0.00979756829328835
0.009751675142906606
0.009636085908859969
0.00949864398688078
0.00941481551155448
0.009459077189676464
0.009595841532573104
0.009648680877871811
0.009573305584490299
0.009549286006949842
0.009678625706583262
0.009835287681780755
0.009856973495334386
0.009778185533359646
0.009751621768809855
0.00979847636539489
0.009847731487825513
0.00988248996436596
0.009924968383274972
0.010003632339648903
0.01009800037369132
0.010138091803528369
0.010132560431957245
0.010129995015449821
0.010097320172935725
0.010035460954532028
0.010024576489813626
0.010071016638539732
0.010118771707639099
0.010115201668813825
0.010027904128655792
0.009934651786461473
0.009915479915216565
0.009918964854441582
0.009930299585685134
0.009998639398254454
0.010109738474711775
0.010241196765564382
0.010375288259238004
0.01048476084601134
0.010575229581445456
0.010612282576039434
0.010570382857695222
0.010568537171930075
0.01067836856469512
0.010800403109751642
0.010890453946776688
0.010948609337210655
0.010909310420975088
0.01080512979067862
0.01076034307014197
0.010820659124292434
0.010944968461990357
0.011061502327211202
0.011105801025405527
0.011044978643767536
0.010922436788678169
0.010864259875379503
0.010928533538244665
0.011002566181123257
0.010956915421411395
0.010849450021050871
0.010863768090493976
0.011021182080730796
0.011148477462120355
0.011172937196679413
0.011173383691348135
0.01118154517840594
0.01117221917025745
0.011145921614952385
0.011104822889901698
0.011039636670611799
0.010974519778974354
0.010976486983709037
0.011047341115772723
0.011055194339714945
0.010951160732656718
0.010874308263882995
0.010853695729747415
0.010784553815610706
0.010714149200357497
0.010739453602582216
0.010816814270801842
0.010842350614257156
0.01074414043687284
0.010598777644336223
0.010573739460669458
0.010632838434539736
0.010594224007800222
0.01044245998840779
0.010314306905493141
0.010283541027456522
0.01028004711959511
0.01020612342748791
0.010106285596266388
0.01008354286197573
0.010114510138519108
0.010170854809693992
0.010299516688100994
0.010458845966495574
0.01057100472971797
0.010641211038455367
0.01067828731611371
0.010673280996270478
0.010631309095770121
0.010571034913882614
0.010515941535122692
0.010447386093437672
0.010335246245376765
0.01023132803849876
0.01023447141982615
0.010325035182759165
0.010337374000810086
0.010214431383647025
0.010110787921585143
0.010122625194489955
0.010169213893823326
0.010191660686396063
0.01021545906085521
0.010234122960828245
0.010226711523719132
0.010213121250271797
0.010187823325395584
0.010103742545470595
0.00997512051369995
0.009911591745913028
0.009963549324311316
0.010033323685638607
0.010061292327009141
0.010117827393114566
0.010222622123546899
0.010280645787715911
0.010238206069916487
0.010200540814548732
0.01029972884338349
0.01043469870928675
0.010398099361918867
0.010272666248492896
0.010309132169932128
0.010475652134045959
0.010540006519295275
0.010478196861222387
0.010447369790636003
0.010462159155867994
0.010413361061364413
0.010338516193442046
0.01034138051327318
0.01034569576382637
0.010269162580370902
0.010198258939199149
0.010164352622814477
0.01010040202178061
0.010046549118123948
0.010109723238274455
0.010282121379859746
0.010441214721649885
0.010526792900636793
0.010609837863594294
0.010737309404648841
0.010846716612577438
0.010849118139594794
0.010745600918307901
0.010650731436908246
0.010623885160312057
0.010598165062256158
0.010544093875214457
0.010473348959349095
0.010360317039303481
0.010266203382052481
0.010291970749385655
0.010368991941213608
0.010368623030371964
0.01029998119454831
0.010265635722316802
0.010331414719112218
0.01044092882424593
0.01046847304329276
0.010414366843178868
0.010420401101000606
0.010515931495465338
0.01055753952357918
0.010489825094118714
0.010433927453123033
0.010454222187399864
0.010465680165216327
0.01044123555533588
0.010457773306407035
0.010492038996890187
0.01046493741683662
0.010440898342058063
0.01049331986811012
0.010529880058020353
0.010489363372325897
0.010515239117667078
0.01070780947804451
0.010867573409341276
0.010818154062144458
0.010760638089850545
0.010869015315547586
0.010986536708660424
0.01101176745723933
0.011032049423083662
0.011073028440587223
0.011049579363316298
0.010914637167006731
0.010744868200272322
0.010606271782889962
0.01047859906218946
0.010380528303794562
0.0103471962781623
0.01034871836192906
0.010371140162460506
0.010431371941231192
0.010525024943053723
0.010639668330550195
0.010733445035293698
0.010792231261730194
0.010871770433150232
0.010912866462022067
0.010820090980269014
0.010716345026157797
0.010738151827827096
0.01081556876655668
0.010823395480401813
0.010738173928111792
0.010643737949430942
0.01061506281606853
0.010623071482405067
0.010602238425053655
0.010528407925739884
0.010423677996732295
0.010352510372176766
0.01035934197716415
0.010389831997454167
0.010332546043209732
0.010167845082469285
0.010029258066788315
0.010023887078277767
0.01006709516979754
0.010047657727263869
0.010025024311617017
0.010086029432713986
0.010163432527333498
0.010126424310728908
0.009962170599028469
0.009837401467375457
0.009879602896980942
0.009935366427525879
0.009843294187448918
0.00970408430788666
0.009628496700897812
0.009590196013450623
0.009534589694812894
0.009458145601674914
0.009436734579503536
0.009505122560076415
0.009622419807128609
0.009785070680081845
0.00995763909071684
0.010053853690624236
0.010078972647897899
0.010057939635589718
0.009958441415801645
0.009817551742307841
0.009731684406287968
0.00974260133691132
0.009807259608060122
0.009833332947455347
0.009803685205988587
0.00976677339989692
0.00970456212759018
0.009616744117811321
0.009586390308104455
0.009646497522480786
0.009732939889654518
0.009761393470689654
0.009729657638818025
0.009705297746695579
0.009688902138732374
0.009664456364698709
0.009702916652895511
0.009813853679224849
0.009879585918970406
0.009839661829173564
0.009777514832094311
0.009786572377197444
0.009834857936948539
0.00983335990458727
0.00978121094405651
0.009725011573173105
0.009668316547758878
0.009617259977385401
0.009586577806621789
0.009580037221312523
0.009620647290721535
0.00965356727130711
0.009569935938343406
0.009442978352308274
0.009428058620542287
0.00953118700068444
0.009684433238580823
0.009807175537571312
0.00984714865218848
0.009864074238575994
0.009915437903255225
0.009975628540851177
0.010017884881235659
0.010020006578415633
0.009987439918331802
0.009992814431898296
0.010058514741249382
0.010145427999086678
0.010279829339124262
0.010471026026643813
0.010595800010487438
0.010540855708532035
0.010383842312730849
0.010305679249577225
0.010339350989088416
0.010381888598203659
0.01040590398479253
0.01045121779665351
0.010517487833276391
0.010580923734232783
0.010642507351003588
0.010747689339332282
0.010905254548415542
0.011009863689541816
0.011009615082293749
0.010992731559090316
0.010978893670253455
0.010897132172249257
0.010774935404770076
0.010740284565836191
0.010841350136324764
0.010927692898549139
0.01084000214934349
0.010676256404258311
0.010631810021586717
0.010684505146928132
0.010665113548748195
0.010558236567303538
0.010536465398035943
0.010654245391488076
0.010748654487542808
0.010762735158205033
0.01082865547388792
0.010964261046610772
0.011068028695881367
0.01110588678624481
0.011070941090583802
0.010977889415808023
0.010892862258478998
0.010849386602640152
0.010834972485899924
0.010832000467926263
0.010809936625882983
0.010738317351788283
0.010608143201097845
0.010449684495106339
0.0103532879287377
0.010357934441417456
0.010342436521314084
0.010208653290756048
0.010068104676902294
0.01007307057734579
0.010183829185552894
0.010238193990662694
0.010198886515572667
0.010180659894831478
0.010233851950615644
0.010292522595264017
0.010311686373315752
0.010292083746753633
0.010230135791935026
0.010115362708456815
0.009977504713460802
0.00990606362465769
0.00990094296168536
0.00986647688318044
0.009837509435601532
0.009897544723935425
0.009969219202175736
0.009937586332671344
0.009847414391115307
0.009870539074763656
0.010057876990176738
0.010218695630319416
0.010209838687442243
0.010164473094046117
0.010241374145261944
0.01035732557065785
0.01033800859004259
0.010204910184256732
0.010124575928784907
0.01009623555932194
0.009970342349261046
0.009798770002089442
0.00976540571078658
0.009823227813467384
0.00979905758984387
0.0096996934665367
0.009660443007014692
0.009713920005597175
0.009773277724161745
0.009830397022888064
0.009945704471319913
0.010045421100221575
0.010053701661527158
0.010050841649062931
0.010047867926768959
0.009991699839010834
0.00999155230820179
0.010159505349583924
0.010375937889330089
0.01042175738606602
0.010292464690282941
0.01022352259606123
0.010302196429111064
0.010339385401457547
0.010240433630533516
0.010134607004001737
0.01011235642246902
0.010121360183693468
0.010111733307130635
0.010127325877547264
0.01020898122806102
0.01030964408069849
0.010400706715881825
0.01048930780030787
0.010507133952341974
0.010416239514015616
0.01031329114921391
0.010308621693402529
0.010404353025369345
0.010472776251845062
0.010414331243373454
0.010341223189607262
0.010391836906783282
0.010488897133618592
0.01052024846430868
0.010530771906487643
0.01059844249393791
0.010688889524899423
0.010723771075718105
0.010759430727921427
0.010889356289990246
0.01099254760891199
0.010898081045597792
0.01069758434779942
0.010628669080324471
0.010750467055477202
0.010883911703713238
0.010891646202653647
0.010861470755189657
0.010859398464672267
0.01081629425752908
0.010777852567844092
0.010786417559720575
0.010705293836072088
0.010552214700728655
0.010504158362746239
0.0105249176453799
0.010448920307680964
0.01029069376643747
0.010235796747729183
0.010316256321966649
0.01031601260881871
0.010184726766310633
0.010137038882821798
0.010235435646027326
0.010345454355701804
0.01040591450408101
0.010456016468815506
0.010519173578359187
0.010550161460414528
0.010503933080472053
0.010406751884147525
0.010313941822387278
0.010292284251190722
0.010381652200594544
0.010495459432713688
0.010528159411624074
0.010506636672653257
0.01048419279512018
0.010471685831435025
0.010499740708619356
0.010553444563411176
0.010568737955763937
0.010566054279915988
0.010603517731651664
0.01067395214457065
0.01073058443609625
0.010729301050305366
0.01067204502876848
0.010586634930223226
0.010488328016363084
0.010423791231587529
0.010425499239936471
0.010443954356014728
0.01044348903466016
0.010445513520389796
0.010430177208036184
0.0103282340336591
0.010153004769235849
0.010031449175439775
0.010004153386689722
0.009970556716434658
0.009960605138912797
0.010097260535694659
0.0102638617483899
0.010290008932352067
0.010269739311188459
0.010332789747044444
0.010415578414686023
0.010404318911023438
0.010315374946221709
0.01028673033695668
0.010371916051954031
0.01044504993595183
0.010394397703930736
0.010241562044247985
0.010080274054780602
0.009993642903864383
0.009981232858262957
0.010011552348732949
0.010082669919356704
0.010149140022695064
0.010145592205226421
0.010067174583673478
0.009941401048563421
0.009845276270061732
0.009866830436512828
0.009945848383940756
0.009951269417069853
0.009893450625240803
0.009879326676018535
0.009938188907690347
0.009971332177519799
0.009899756857194006
0.009800432878546417
0.0097423475375399
0.009676700234413147
0.009613184393383562
0.00963852731976658
0.009781195712275804
0.009992241798900068
0.010154945347458123
0.010195668716914952
0.010178713952191174
0.010141060505993664
0.010066477982327342
0.010053796507418156
0.010191109874285757
0.010355899981223047
0.010374340610578656
0.010280669466592372
0.010227703559212386
0.01019983877427876
0.010091470936313272
0.00995984913315624
0.009883420043624937
0.009825999820604921
0.009803315955214203
0.009855311210267247
0.009932403173297643
0.010009013023227454
0.01009129345882684
0.010129652190953494
0.01011181881185621
0.010131025286391378
0.01025156800635159
0.010373841538093984
0.010360150495544077
0.010263250265270472
0.010220076013356448
0.010217419173568488
0.010216573011130095
0.010266926670446992
0.010342430588789284
0.010362673155032098
0.010345324464142323
0.010358134666457772
0.01039968793746084
0.01039879544172436
0.010341202267445624
0.010293746311217546
0.010282837273553013
0.010305562438443303
0.010348438811488449
0.01034073329064995
0.010273919254541398
0.01022064346820116
0.0101816599490121
0.01012116227298975
0.010042698723264038
0.009959434769116341
0.009921294203959406
0.009980959556996823
0.010107826753519476
0.010245690592564643
0.01033733214251697
0.010315518225543201
0.010218210183084012
0.010162005187012255
0.010199722778052091
0.010298889465630054
0.01037538045551628
0.010428146519698202
0.01054676788393408
0.010692821238189936
0.01075456639751792
0.010725667891092599
0.010650060186162592
0.01059333123266697
0.010612368751317262
0.010649799350649119
0.01063130903057754
0.01057713171467185
0.010508629581891001
0.01043098196387291
0.010376489385962487
0.010378717985004187
0.010463179126381873
0.01057624262291938
0.010604129224084317
0.01055386932566762
0.010513273323886097
0.010497934799641371
0.010483716302551328
0.010480284956283867
0.010514655211009085
0.01056440533604473
0.010610929168760776
0.01071226755157113
0.010838105310685932
0.010845241541974247
0.010759144918993116
0.010741338077932596
0.010816010176204144
0.01090619205031544
0.010953996195457876
0.01094192559365183
0.010935809928923845
0.010983575391583145
0.011002047252841294
0.010921626393683255
0.010789606049656867
0.010664832671172917
0.010559647846966981
0.010465528136119246
0.010375568107701839
0.010308787366375327
0.010305513711646199
0.010370646049268543
0.010415975763462483
0.010371341444551945
0.010340178469195962
0.010407760455273092
0.010474893217906355
0.01047867389395833
0.010463175014592707
0.01044885367155075
0.010422122166492045
0.010347022856585682
0.010239504491910339
0.010204950142651796
0.010253768493421377
0.010285327802412212
0.01030680798459798
0.010387214757502079
0.010494313491508365
0.010548044913448393
0.010508158048614859
0.01041159454267472
0.010331039461307227
0.010281426850706338
0.010249231872148813
0.010255414689891041
0.010338463415391743
0.010477991905063391
0.010561575796455145
0.01051867179106921
0.010394057524390519
0.010255174217745662
0.010176339112222195
0.010193337486125529
0.010200889399275184
0.01011289811693132
0.01002352625131607
0.010026678452268243
0.01008239439688623
0.010128982337191702
0.01015979140996933
0.010182775221765042
0.0101795165380463
0.010172465392388403
0.010269626211374998
0.010481215538457036
0.010633602128364146
0.010627540913410484
0.010577257382683456
0.010589532875455917
0.010603782567195595
0.010550581626594066
0.010507236649282277
0.010530180716887116
0.010488166706636548
0.010295790703967213
0.010106133013032377
0.010066854730248452
0.010117313936352729
0.010115949213504791
0.010038597248494626
0.010001351153478026
0.01004744615405798
0.010069633452221751
0.010061622010543942
0.010140635445713997
0.010277801072224974
0.010328940339386463
0.010261639724485577
0.010184967345558106
0.0102160226367414
0.01033726437482983
0.010447254963219165
0.010529934368096293
0.010605250573717058
0.010619764281436801
0.0105535105522722
0.010482807606458665
0.010455210763029753
0.010435868329368532
0.010418764110654592
0.010460387710481881
0.01053751758299768
0.010554439784027637
0.010531701911240816
0.01056273738387972
0.010646994318813085
0.010731846163980662
0.010797546803951263
0.010853533851914107
0.01087621454615146
0.010809650234878064
0.010732371350750327
0.010774817178025841
0.010830407170578838
0.01074184799566865
0.010597957856953144
0.01055362755432725
0.010618209806270897
0.010696482206694781
0.010711953765712679
0.010660733333788813
0.010550196077674627
0.010446178209967912
0.010510803768411278
0.010759262652136385
0.010983199924230575
0.011049682418815791
0.011038026884198188
0.011077003846876323
0.011169402645900845
0.011201353422366082
0.01114184488542378
0.011063243462704122
0.010964355263859034
0.01082642408553511
0.010712213227525353
0.01067653558216989
0.010747320828959345
0.010905310888774692
0.011041720928624273
0.011113715511746704
0.011172339087352157
0.011175192161463201
0.011081995675340295
0.010992102837190033
0.010973454327322543
0.01099183295853436
0.011029657223261893
0.011115683768875896
0.01121112436056137
0.011187890646979212
0.01106042332481593
0.0110203695576638
0.01109349339734763
0.011090674549341201
0.010956268217414617
0.010823104735463858
0.010770129328593612
0.010756176509894431
0.010747405546717347
0.01077271169051528
0.010782726746983827
0.010678014387376606
0.010549928480759262
0.010537191075272859
0.010579996067099274
0.010582703487016261
0.010538636310957371
0.010480893282219768
0.0104667346784845
0.010529425204731524
0.010667983433231712
0.010814039278775453
0.010797194931656122
0.010570365334860981
0.010331595977768303
0.010257558939047158
0.01033110181801021
0.010435075019486248
0.010504215373657644
0.010557841937988997
0.010571909691207112
0.010526457419618964
0.010527063705958427
0.010628666067495941
0.010759300636127591
0.010857726540416479
0.010858583995141089
0.010730706010945142
0.010542813744395972
0.010335437450557948
0.010160983465611935
0.010153678841888905
0.010289052198641003
0.01038692582398653
0.010397276184521615
0.010380138587206602
0.010359645602293313
0.010320374160073698
0.010266318791545928
0.010248264805413783
0.01025303655769676
0.01019390081986785
0.010104097882285714
0.010102361589670181
0.01015643207821995
0.010141623942181467
0.010084268315695226
0.010118177970871329
0.010244896397925913
0.010358051378279925
0.010454413276165723
0.01055735590402037
0.010575346448458731
0.01050082428380847
0.010480024958960712
0.010566078536212444
0.01070452674292028
0.010859779920428992
0.010984885720536113
0.011036994000896812
0.011001622979529202
0.010909949983470143
0.010896810437552631
0.011036917008459568
0.011194526576437056
0.011216688565909863
0.01111963198054582
0.011040480248630047
0.011050552437081933
0.011079100938513876
0.01111760021187365
0.011239020451903343
0.011340838093310594
0.011255093114450575
0.01103005385491997
0.010831342400051654
0.010747042265720666
0.010744951502420007
0.01074210858438164
0.010725895059294999
0.010702481106854976
0.010636219503358007
0.010565058984793723
0.010563818891532718
0.010605779439210893
0.010624043373391033
0.010605607447214425
0.010588702643290163
0.010620782501064241
0.010702482121996582
0.010821732054464519
0.010962215615436435
0.011024228180758655
0.010954949194565416
0.010885236789472402
0.010925455396063625
0.011005830448120833
0.011025278023444116
0.010996157149784268
0.010970953716896475
0.010951637872494757
0.010954567836597562
0.011011157105676829
0.011060008839704096
0.011027324548922478
0.010955526307225228
0.010877338228747249
0.010742632038891316
0.010558250043541193
0.010416350048035383
0.010396812646649777
0.010471791815944017
0.010502039017155766
0.010420498973689973
0.01033233289141208
0.010367494164966047
0.01051661369856447
0.010616406393237411
0.01056382428854704
0.01047083045821637
0.010435328651219607
0.010416036671958864
0.010427853665314615
0.010529512991197407
0.010671249162405728
0.010756130772642791
0.010755330063402653
0.01071650450117886
0.010696751298382878
0.010704514826647938
0.010740190451033414
0.010815627668052911
0.010862630694173276
0.01078515003900975
0.01065353350713849
0.010624889447353781
0.010691308709792792
0.010706690237857402
0.010609855484217405
0.01049553940538317
0.010444193156436085
0.010415979363024234
0.010407315222546459
0.010475115948356688
0.010574351702816785
0.010604890440590679
0.010542023582383991
0.010441769249737262
0.010376235754229128
0.010372361191548407
0.010455783419311047
0.010631028125062584
0.01076515878085047
0.010735032316297292
0.01061950727365911
0.010563188851810991
0.010610539382323623
0.010692361709661782
0.010731059089303017
0.01075117320753634
0.010747671388089656
0.010650502531789244
0.010536879641003907
0.01053157493006438
0.010566887487657368
0.010514838434755803
0.010400340696796774
0.010346124772913754
0.010388776478357613
0.01044356452766806
0.01046854511834681
0.010512291388586163
0.01055070954374969
0.010505635258741677
0.010423331167548894
0.010413963249884545
0.010471768085844815
0.01051353592891246
0.010531657431274653
0.010567540056072175
0.010588625348173081
0.010535848927684128
0.010463025853969157
0.010481658154167234
0.010565894548781216
0.010586381661705674
0.01053232528269291
0.010525634121149778
0.010609699510969222
0.010675159711390735
0.010671290918253362
0.010694980625994504
0.01077099101152271
0.010821751933544874
0.01083900707308203
0.010850785621441901
0.010840288903564215
0.01077874707058072
0.010698953135870397
0.01067640024702996
0.010646029631607235
0.010482136555947364
0.010300062242895364
0.010292811314575373
0.010419347696006298
0.0105156219471246
0.01048781665507704
0.010405901740305125
0.010407956698909402
0.01044374778866768
0.010427876017056406
0.01043428409844637
0.010446435865014791
0.010389203731901943
0.010363085381686687
0.010448660189285874
0.010538243888877332
0.010519453836604954
0.010430330936796963
0.010395080647431314
0.010431789876893163
0.01042323665227741
0.01034643626306206
0.010292717418633402
0.010265326024964452
0.010219387649558485
0.01018394117243588
0.01018716550897807
0.01019125137012452
0.010178877115249634
0.01019676675554365
0.010269717043265701
0.010368268736638129
0.010467239306308329
0.010550407012924552
0.010594762619584799
0.010616355142556131
0.010643088282085955
0.010663332608528435
0.010696056480519474
0.010744147673249245
0.010706205894239247
0.010572246420197188
0.010495122955180704
0.010527331549674272
0.010560130309313536
0.01053684512153268
0.010530398404225707
0.010572079285047949
0.010581637378782033
0.010570279504172504
0.010638313065283001
0.010746970139443875
0.010783659764565528
0.010733297863043844
0.010661634039133788
0.010656928438693284
0.010710139120928943
0.010710254623554648
0.010649731229059399
0.010591268562711776
0.010547192730009557
0.010574064711108803
0.010685910061001778
0.010747821158729494
0.010689016054384411
0.010596792907454073
0.010578425247222184
0.010669023930095136
0.010809363750740885
0.01092063108459115
0.010962789496406913
0.010896641062572598
0.010760760526172817
0.010706243454478681
0.010785089898854494
0.010885258731432259
0.010936393165029585
0.010988705158233643
0.011067675570957362
0.01107926435302943
0.010975493709556758
0.010893548578023911
0.010911690001375974
0.010919447410851718
0.010885503152385354
0.010871499567292631
0.010849106898531318
0.010800105500966311
0.0107741312449798
0.010803183265961707
0.010896572591736913
0.010986709520220756
0.010945487790741027
0.010790515118278563
0.010712202205322683
0.010796517985872923
0.010885145422071219
0.0108572066295892
0.010810055709443987
0.010774627034552396
0.01063444654457271
0.010448819939047099
0.010442032311111689
0.010655844192951918
0.010868408684618771
0.010885998569428922
0.010806661671958864
0.010804121950641274
0.010830198316834867
0.010798207605257631
0.01075865138322115
0.01075286143925041
0.010749076176434755
0.010715415165759624
0.010646992288529873
0.010566421197727322
0.010486044161953033
0.010398130528628827
0.010321155502460898
0.010247500450350343
0.010160025358200073
0.010159662691876292
0.010321757411584259
0.01049443259369582
0.010494818785227835
0.01036574663594365
0.010282974294386803
0.010300191729329526
0.010330919614061714
0.01038256918080151
0.010507380678318442
0.010558302537538112
0.010404221140779555
0.010185014782473445
0.010083143594674765
0.01012878438923508
0.01024990308098495
0.01034822491928935
0.010373648493550719
0.010309470277279615
0.01017730518244207
0.01011282881256193
0.010218368084169925
0.010374871077947318
0.01040434419643134
0.01030312264803797
0.010195428114384413
0.010149209713563322
0.010130249038338661
0.010153949405066668
0.010305512924678623
0.010518531566485762
0.010592852933332324
0.010479065016843378
0.010354367936961352
0.010375340953469276
0.010439922586083412
0.01040533340536058
0.010389216463081538
0.010523188854567706
0.010683199702762068
0.010717327576130628
0.010669242339208723
0.010650902846828103
0.010689470460638404
0.010749677261337638
0.010805270909331739
0.010829056170769036
0.010777703253552318
0.01070720567367971
0.010759522593580186
0.010932326978072525
0.01108016112819314
0.01113025149796158
0.011131940139457584
0.0111603332310915
0.011194340507499874
0.01115640406962484
0.011084477347321809
0.011024120342917741
0.010920110237784685
0.01083012028131634
0.010896782046183945
0.011064942157827318
0.011126075419597328
0.010993773797526956
0.01079708505421877
0.01069081862922758
0.010676259738393128
0.010710962489247322
0.010804154085926712
0.010902090705931186
0.010899003194645047
0.010792934685014188
0.010714427912607788
0.010793597414158284
0.010988046689890325
0.011128063006326556
0.01116063839290291
0.011137226070277393
0.01104185557924211
0.01088196769822389
0.010759664103388786
0.010725234542042017
0.010704479478299618
0.010619961083866656
0.010571920839138329
0.010690862764604389
0.010837159282527865
0.010840805782936513
0.010818810602650046
0.01089111083187163
0.010955273122526706
0.010918917297385634
0.010853848638944327
0.010871107704006136
0.010939904516562819
0.010953898932784796
0.010947389504872262
0.010992894968949259
0.011016507744789123
0.010937075945548713
0.010783321801573037
0.010626615802757443
0.010533138522878288
0.01050811619963497
0.010518166683614254
0.010547342724166811
0.010540959909558296
0.010476586446166038
0.010431401776149868
0.010403436273336411
0.010312529811635614
0.010217550229281187
0.010245916047133506
0.010394183625467122
0.010571172568015754
0.010704190018586815
0.010748914894647896
0.010696147088892757
0.010589781068265438
0.010483784694224596
0.010420804019086063
0.0104654099047184
0.010581631464883685
0.010597332362085581
0.010475026834756136
0.010336691588163376
0.01023798919748515
0.010208379849791527
0.010311725540086627
0.010486131189391018
0.01057376500684768
0.010563185065984726
0.010568903484381735
0.010612698323093354
0.010593788321129978
0.010470903008244931
0.010362811204977333
0.010343084367923439
0.010334155643358827
0.010334772365167737
0.010428574015386403
0.010602423599921166
0.010754508022218943
0.01077887846622616
0.010710113882087171
0.010700885681435466
0.010745587679557501
0.010705665345303714
0.010581445368006825
0.010482320482842623
0.010428277347236871
0.010365024814382196
0.010303862085565925
0.010313425022177398
0.010371458125300706
0.010395744177512824
0.01042807552497834
0.010539923175238074
0.01066308562643826
0.010736596891656519
0.010807395065203309
0.0108966410998255
0.010965699586085976
0.010976210152730346
0.010897907712496817
0.010754118845798076
0.010644273851066827
0.010652559497393667
0.010777572821825742
0.010928007778711618
0.010964899281971157
0.010848712786100804
0.01072884070686996
0.010750675704330206
0.010848560510203243
0.010895808287896215
0.010899188644252718
0.010875887917354703
0.010762080466374755
0.010571857397444547
0.010433592763729394
0.010400509866885841
0.010396568132564425
0.010378860239870846
0.010404475037939847
0.010481893569231033
0.010517042642459274
0.01050152930431068
0.010506490357220172
0.010470840716734528
0.010319801424629986
0.010136529998853804
0.010036703292280435
0.01008718046359718
0.010247693983837963
0.010345441759563983
0.010303279268555343
0.010238655302673578
0.010247519565746188
0.010325397322885692
0.010491564376279712
0.01075333206448704
0.01098374039400369
0.011020149467512966
0.010883826524950563
0.010761452997103333
0.010720026227645577
0.010657758149318398
0.010557856503874063
0.010493905949406326
0.010442457282915712
0.01031939777545631
0.010147877298295497
0.010056520481593906
0.01009200864005834
0.010161648974753917
0.010173718729056418
0.010091545628383755
0.009929782031103968
0.00981001221574843
0.009862317084334792
0.010033576614223421
0.010158400861546396
0.01017321954946965
0.010169046032242477
0.01024830074980855
0.010367509005591273
0.010457300734706222
0.010575616513378919
0.010744591881521047
0.010841432139277457
0.010780275473371148
0.010677346638403832
0.01070944472681731
0.010815404378809035
0.010799713768064975
0.010696652680635452
0.010659256535582244
0.01067848039790988
0.010710537298582495
0.010785999787040056
0.010890526599250733
0.0109453337918967
0.01088246081955731
0.010733742122538388
0.010627477429807186
0.01061779768206179
0.010645382227376104
0.010661346055567265
0.010645632511004805
0.010569706694222986
0.010414604260586203
0.010230253236368298
0.010146699501201511
0.010212074350565672
0.01028869635425508
0.010293472078628838
0.010338596482761205
0.010467719840817154
0.010576122454367579
0.010636168806813657
0.010713950167410075
0.01080620222724974
0.01083336040843278
0.010787364793941379
0.010758274886757135
0.01079534774646163
0.01087309562601149
0.010952833136543631
0.010978326494805514
0.010902973366901278
0.010758731262758375
0.010631704134866596
0.010566753102466464
0.010510859256610274
0.010390669093467295
0.010226675728335976
0.010086505860090255
0.010013891113922
0.010044013634324073
0.010161033663898707
0.010281187612563372
0.010340379290282727
0.010331931761465967
0.010318399700336158
0.010393944112583995
0.010520803602412343
0.010568944322876632
0.010545905074104666
0.010543055841699242
0.010559139093384146
0.01055369034409523
0.010533336130902172
0.010522269420325756
0.010526915667578579
0.010558630274608731
0.010634387168101967
0.010696760835126043
0.010667829792946577
0.01060301560908556
0.010614120699465275
0.010711479908786714
0.01080973185133189
0.010810323646292091
0.010748427519574761
0.010785948657430709
0.010893370467238128
0.010884708804078401
0.01080278365407139
0.010773194632492959
0.010742823453620076
0.010677511915564536
0.010634459001012146
0.010620494494214655
0.010600384860299527
0.010575007079169155
0.010589241860434412
0.010638161753304303
0.010639079082757234
0.010600894205272198
0.010634523946791888
0.010726186987012625
0.010759002203121782
0.010723540163598954
0.01069847155828029
0.01072404697071761
0.010794966011308133
0.010878647165372967
0.010916851982474328
0.010878100977279245
0.010821094159036876
0.01084351793397218
0.010930418819189072
0.010965568870306015
0.010903014834038913
0.010799211082048715
0.010728287841193378
0.010733986594714225
0.010800022445619107
0.010862894374877214
0.01089730674866587
0.010940907713957131
0.010992013635113835
0.010983654190786183
0.010902465996332466
0.010791912889108062
0.010696020363830029
0.01070372351910919
0.010815446372143924
0.010841474537737667
0.010692364815622569
0.010520690800622106
0.010467101861722767
0.01051319259684533
0.010550864371471107
0.010500922235660255
0.010439544720575213
0.010473536821082234
0.0105225771619007
0.010511547550559044
0.010529825547710061
0.01060730278491974
0.010661786310374738
0.0106630241824314
0.010643481235019863
0.010595723413862288
0.010478740124963224
0.010365225523710251
0.010403432357124985
0.010555620538070798
0.010629635420627892
0.010578294694423675
0.010514381802640855
0.010520871467888356
0.010602226480841637
0.010712476940825581
0.010783417513594032
0.010760677233338355
0.010663200742565096
0.010608482132665813
0.01063700710888952
0.010623973086476326
0.01053731385152787
0.010494274254888296
0.010527519262395799
0.010591217372566462
0.01066218108870089
0.01072158585768193
0.010742508959956466
0.010675607258453965
0.010496687581762672
0.01028031786903739
0.010156699065119028
0.010203153835609555
0.010349832414649427
0.010430971845053136
0.01036865629721433
0.01023218538146466
0.010146299097687005
0.010171907972544431
0.01025369650684297
0.010312292883172631
0.010347912707366048
0.010401922189630567
0.010469060335308313
0.010493271555751561
0.01041856363415718
0.010273211603052914
0.0101804676419124
0.010165827525779604
0.010105615118518471
0.00997269201092422
0.009893360584974288
0.009938528640195727
0.010049470099620521
0.010178514420986176
0.010337007367052137
0.010433690948411822
0.01032818887848407
0.010100437933579088
0.009974519694224
0.010037997905164957
0.010187935288995505
0.010256641586311161
0.010204843622632324
0.010154919056221843
0.010192929478362202
0.010303535340353847
0.010420601638033987
0.010436128447763622
0.010357822817750275
0.01033994575496763
0.01039743042550981
0.010400475836358964
0.010335936462506651
0.010294545916840434
0.010305811888538302
0.010267481342889368
0.010106575470417737
0.00999132202938199
0.010100830737501383
0.010341629413887858
0.010506132189184426
0.010506874709390103
0.010454918839968741
0.01052547298837453
0.010693106655962766
0.01081795832142234
0.010904764789156616
0.01098761772736907
0.011030140640214086
0.01108098017051816
0.011199871902354061
0.011287042936310172
0.011225417591631412
0.011110715405084192
0.011160774743184448
0.011362586277537048
0.011474326509051025
0.011454475009813905
0.011495675398036838
0.011631196872331202
0.011709738271310926
0.011668991101905703
0.011561161959543825
0.011426416803151368
0.011295476816594601
0.011263388409279287
0.011390526997856795
0.011550597259774803
0.011591830030083657
0.011525582922622561
0.011456936178728939
0.011478880271315575
0.011549179297871888
0.011540639880113304
0.011475226408801973
0.011422548280097543
0.011321811159141361
0.011173531655222177
0.011095049548894167
0.011089280201122164
0.011077578170225024
0.011107798381708563
0.011260826694779099
0.011417091195471584
0.011401478899642825
0.011315550152212382
