0.010479532345198096
0.010526753540616482
0.010534760234877467
0.010568358548916877
0.010605879400391132
0.010580631664488464
0.010479193099308759
0.010353401158936322
0.01027318043867126
0.010263409579638392
0.010284743327647448
0.010311437910422683
0.010354366775136441
0.01037683735601604
0.010335444661322982
0.010282139813061803
0.010285291092004626
0.010337276430800558
0.010402590369340032
0.010453575456049293
0.010467970911413431
0.010444613036233931
0.010405237544327975
0.010380800736602396
0.010378778479062021
0.010374393912497908
0.01036707452731207
0.010380971564445644
0.0104018864617683
0.01040181444492191
0.010391182207968086
0.010391655575949699
0.010402305680327118
0.01041071434970945
0.010414164140820503
0.010402946295216679
0.010357336851302534
0.010309576445724816
0.010310343855526299
0.01031643941765651
0.010259427076671273
0.010176148975733667
0.010144842190202326
0.010180812918115408
0.010252972706221044
0.010325379180721938
0.010385694995056838
0.010447228860575706
0.010494237875100225
0.010486876235809177
0.010434038650710136
0.010374561976641416
0.01032041973201558
0.010272832012269646
0.010223874140065163
0.010168961570598186
0.010154553123284131
0.010205682795494796
0.010256564936134964
0.010256505785509944
0.010233023087494075
0.01021145144943148
0.010191104328259825
0.010186782486271114
0.010205062036402524
0.010236334090586751
0.010290048345923423
0.010353787853382528
0.010383800705894827
0.010373908635228872
0.010340616493485867
0.010304117726627737
0.010300154769793153
0.010308810009155423
0.010269526522606612
0.010194971358869225
0.01013723483774811
0.010107911163941026
0.010097868731245399
0.010099948670249432
0.010116125415079296
0.010159118068404496
0.010220755692571401
0.010248178944457322
0.0101962926867418
0.010109531122725456
0.010078653711825609
0.010113331070169807
0.01013361252611503
0.010091613954864442
0.010050496407784522
0.010091339950449765
0.010184431527741254
0.010229769912548363
0.010169645040296018
0.01005685752024874
0.0100404470320791
0.010112010692246258
0.010229425569996238
0.010204655667766929
0.010070655741728843
0.010005034154746682
0.010056881429627539
0.010139128076843917
0.010163732608780264
0.010116161487530917
0.010060845236293971
0.01006799640832469
0.010113651524297893
0.010104454092215746
0.010020174933597446
0.009955494799651205
0.00997525017010048
0.010028241106774659
0.010051243999041616
0.010062627361621708
0.010122368766460568
0.01023230514023453
0.010314617978874594
0.01031125724548474
0.010257789778988809
0.010236167702823878
0.010274717391002924
0.010314205300528557
0.010298902539070696
0.010263757822103798
0.010263871550559998
0.010289759587030857
0.0103080477216281
0.010285413872916252
0.010206723224837334
0.010133506713900715
0.010129026093054563
0.010159582742489874
0.01018138813553378
0.01020879423711449
0.010233254174236208
0.010205344362184406
0.0101317157340236
0.010083134474698455
0.01008166094776243
0.010090186735615134
0.010093664587475359
0.010070006621535867
0.009986357183661311
0.00988883693004027
0.009839025847613812
0.009806491578929126
0.009762920527718962
0.00975188918877393
0.009785793640185147
0.009815415688790382
0.00981621156912297
0.009822239133063704
0.009877434286754578
0.009952860169578344
0.00995858632028103
0.009884388069622219
0.009834543217439205
0.00987775563262403
0.009948774136137217
0.009956713465508074
0.009923580996692181
0.00992715620668605
0.00997290264815092
0.009991938651073723
0.009939035817515105
0.009866921089123935
0.009847119299229235
0.009859539554454386
0.00986881575314328
0.009896985897794365
0.0099426100240089
0.009978655248414726
0.010007042270153761
0.01002003080677241
0.010008233508560806
0.009996216362342238
0.010000853349920362
0.010014204375911504
0.010028160479851066
0.010028021100442857
0.009983199208509177
0.009899252962786704
0.009835694092325866
0.009812034708447754
0.00979314647614956
0.009782492672093213
0.00981391963781789
0.009873637533746659
0.009900415244046598
0.009865955621935428
0.009815684836357832
0.00978977520018816
0.00977518646977842
0.009760453281924129
0.009753595760557801
0.009760026268195362
0.009773857763502748
0.009779643120709806
0.009774152617901564
0.009764775156509132
0.009735748979728669
0.009669939631130546
0.009620407619513572
0.00966812850208953
0.009771562099922448
0.009787902454845607
0.009698723198380322
0.00965302214724943
0.009715703772380948
0.00976404883665964
0.009708269925322383
0.009623569063842296
0.009598080806899816
0.009597576691303402
0.009543348534498364
0.009456855580210685
0.009448251659050584
0.00953997762640938
0.009614056497812272
0.009592683422379195
0.009521424043923617
0.009447995605878532
0.009373288853093981
0.00930723103461787
0.0092831458337605
0.009309890915174037
0.009345299259293824
0.009384042690508068
0.009473537825979293
0.009577478668652474
0.009609057847410441
0.009576078201644123
0.009523917939513921
0.009457879846449942
0.009405105344485491
0.009412105632945896
0.00948331184219569
0.009585493030026555
0.009667102734092624
0.009677732975687832
0.009615449449047447
0.009554024545941502
0.009561904268339276
0.009595610103569924
0.009580393291544169
0.009544129266869277
0.009538681199774145
0.009538271331693977
0.00951731633860618
0.009509928477928042
0.009540078076533974
0.009564703761134297
0.009531673658639193
0.009466411981265991
0.009439720022492111
0.009470517234876751
0.009514035880565644
0.009537615100853145
0.009554560186807066
0.009560316666029394
0.009522866324987262
0.009455996206961572
0.0094069804251194
0.009407785714138299
0.009468382245395333
0.009542242840398103
0.009552934330422432
0.009506714949384331
0.009474295841064304
0.009463041773997247
0.009425322427414357
0.009363101760391146
0.009337610106449575
0.009382542432285845
0.00945317824371159
0.009499671140220016
0.009532099065836519
0.009559337068349123
0.009557256719563156
0.009526628085877746
0.00950031854910776
0.009508226073812694
0.009562192021403461
0.00963519151788205
0.009672104241326451
0.00965292717097327
0.009628094725776463
0.00965172954602167
0.009688007961958647
0.00965977957006544
0.009578919194173068
0.009542016214691102
0.009593658132944256
0.009662904310971498
0.009667278521228582
0.009621942390222103
0.009600768703967333
0.009628266969230026
0.00965677150990814
0.009646138485986739
0.009623754324857146
0.009633430377580226
0.009649727253708988
0.009616830993909389
0.009563607627060265
0.009571884854231029
0.009632346855942159
0.009661046674009412
0.009651249279268087
0.009664693283848464
0.00971310202497989
0.009763361332006752
0.009793043662793934
0.00980594202177599
0.009821086348965764
0.009813466586638241
0.009734910738188773
0.00965460406150669
0.009698667726479471
0.00982119696214795
0.009886196630541235
0.009898458528332411
0.009931881942320616
0.00998304013395682
0.009999846587888897
0.009960419381968677
0.009907794003374874
0.009883309612050653
0.00986154317157343
0.009818493670318276
0.009774614952038973
0.009762318932916968
0.009809755000751465
0.009888008488342166
0.009914324090350419
0.009879199424758553
0.009848275855183601
0.009823761028237642
0.009765854424331337
0.009705948408227414
0.009695854873862118
0.009723211601376534
0.009746976271271706
0.009756854644510895
0.009775554933585227
0.009819034053944051
0.00988493847195059
0.00995479259174317
0.009978887811303138
0.009939251441974193
0.009905432478990405
0.009929875051602722
0.009967726427130402
0.009970918365288526
0.009962785793468355
0.00996478034183383
0.009936827309429646
0.009862197425682097
0.00981879982398823
0.009868343642447144
0.009946232114452868
0.00995918117230758
0.009913192661479116
0.009865245525725186
0.009819133358541876
0.009759363774210215
0.009737411991227417
0.009793803603388369
0.009856288721784949
0.00986427110619843
0.009879149361513555
0.009938624943606556
0.009959724098443985
0.009897646212484687
0.009841648708097638
0.009870494862552733
0.0099499076558277
0.010017613212112338
0.010061971417162568
0.010092636502813548
0.010108158451039344
0.010102248571347444
0.010067842949647457
0.010017514897044747
0.010004074957687408
0.010052688617724926
0.010076868231408298
0.009993572875391692
0.009882130161859095
0.009861857020296157
0.0099155633430928
0.009942078872118145
0.009888639978598804
0.009819679909851402
0.009829723099246622
0.009882975632790477
0.009881573875900359
0.009834250938147306
0.009811270295176654
0.009833918560761958
0.009876583570148796
0.009907042048871518
0.009923876062966883
0.009951884783804417
0.009985349837224931
0.009996297464240342
0.009993040107656271
0.009993938957341015
0.009972352124750615
0.009917704320978373
0.009891030136495829
0.00991375767160207
0.009916469436138869
0.009871876484248787
0.009842390734702349
0.009880971149541437
0.009954405687749386
0.009966716221533715
0.009896805866155774
0.009851551118772476
0.00989024693146348
0.009940868967678398
0.009950383540708572
0.009953986688051373
0.00998291130643338
0.01000945845618844
0.009991569078993052
0.009941659779287874
0.00992091192631051
0.009952593143098057
0.010003320365212858
0.010041060608346015
0.010045158474240453
0.010023906033020467
0.010019592717289924
0.010032192203216255
0.010031943581998349
0.010043615077156573
0.010093720953445882
0.0101464663608931
0.010174853659700603
0.010197454651352017
0.010228239502757787
0.010251881587319076
0.01024316440569237
0.010202301221434028
0.010151112533640117
0.010118649473879486
0.010139450863935053
0.010185228295158595
0.010173990477342158
0.010123108373954892
0.010136847889516503
0.010218468788079917
0.010259696643333881
0.010227050168905407
0.010214067357592284
0.010264185406267643
0.010293804246466608
0.010255690081976354
0.010218387655913829
0.01023212145548314
0.010250283868517727
0.010226156695280224
0.010201394576579332
0.010232921263668687
0.010285387949552386
0.010297503599431365
0.010291119816247373
0.01029771419474855
0.010279527145903557
0.01023224177537486
0.010225265752524137
0.010264479173347354
0.010265667301137
0.010185643970035017
0.01006526508834213
0.009970135141629725
0.009946422278881073
0.00999306476674974
0.010069592713844031
0.010147158943582327
0.010214268162380904
0.010258086104877294
0.010276203504763543
0.010265039943624288
0.010230759452097117
0.010216632247902454
0.010252815845888108
0.010319187387358398
0.010367757261265069
0.010372582182753831
0.010379554878454655
0.010419520137365907
0.010431586587801576
0.010402887358795852
0.010408804784528911
0.010450064043980092
0.010455544374417513
0.01042202185606584
0.010396626372821629
0.010386847462505101
0.010374631914310158
0.010366273724939675
0.010385583024471998
0.010422564200125635
0.01042340514715761
0.010370703486260027
0.010329557275399566
0.010332463309168816
0.010316333808004856
0.01028682679636404
0.01033026455435902
0.010396473000291735
0.010355770159512757
0.01022513436852023
0.010124799001496286
0.010114534050226212
0.010153316766954959
0.01016427414957434
0.010119842067360878
0.010049621232319624
0.009990363409742712
0.009962651606183499
0.009971406783442945
0.010006256948690862
0.010049877488054335
0.010091976630501449
0.010118690689560027
0.010102651671040803
0.010040992263238877
0.009977822813671083
0.009963855028618128
0.01000184936914593
0.010039062052965165
0.010033983087632805
0.010001086320262403
0.00996933677000925
0.00994266328169033
0.009908893378451467
0.009868566682562231
0.009837957078125327
0.009825690125580877
0.009824644075706601
0.009827509329188616
0.00985211183782667
0.009905083028133959
0.009926223822403699
0.009877214727457612
0.009830829245038331
0.009853744553402067
0.009897345637436956
0.00988821751670912
0.00983404996106401
0.00979278169805184
0.009793237133417279
0.009813243092503398
0.009812044645659625
0.009781633112579584
0.009769184298347682
0.009805299625732004
0.00984414387261495
0.009855490426998586
0.009892718703486025
0.009983573181089014
0.010060547566972673
0.01005001600831747
0.009946208039764315
0.00981495171552524
0.009764766534790397
0.009836268930230289
0.009922304244246333
0.009922143956646323
0.009899295929353685
0.00994874237338081
0.010054224126506597
0.010142264026217162
0.010154106025584041
0.010084409075789154
0.009980335121508688
0.00989112892653793
0.009840451166965067
0.00982753399759531
0.009832547139376402
0.00982758214464411
0.009821887814905495
0.0098623449052684
0.009923900885041803
0.009914990200195461
0.009831332690082491
0.009760143561288714
0.009747680821456016
0.00976113805314526
0.009763534786179662
0.009764429777860642
0.00976584555581212
0.00974049678305164
0.00971507020527497
0.009754025971051305
0.00983073960058391
0.009856220567598939
0.009827659807633608
0.009810657752677799
0.009818829281721264
0.00981773593928665
0.009806836256757379
0.009824717501178384
0.009888464668765664
0.009975001625716686
0.010048218378797174
0.010087421736679971
0.010089988489635288
0.010076284194365143
0.010103735013399274
0.010184910797979682
0.010249136725906282
0.010257442719303072
0.01022328646387905
0.010161248270887881
0.010106011310126633
0.010085187125951052
0.01009141557617113
0.010118114803917706
0.010146925700828433
0.01015028076712042
0.010147719397209584
0.01016916275722906
0.010186328592244536
0.01016774809686467
0.01015849424060434
0.010217375024221837
0.01030587483663112
0.010344683134462684
0.010326679809950293
0.010284182666800916
0.010244123523589223
0.010235819218214601
0.010246424796059727
0.010234631018247455
0.010216313810087741
0.01022466559894383
0.010243241193238646
0.010260205508675426
0.010300345001742244
0.010367232465650886
0.010412673056125641
0.010403640477452427
0.010381837161257863
0.010399581417441368
0.010435847772751004
0.010434115384705366
0.010393256321549416
0.01036325944121927
0.010371399086434394
0.01039882651064545
0.010403100606054068
0.010361453602090478
0.010317992044147104
0.010327827488072216
0.010355384915601461
0.010335644171573222
0.010301499806810171
0.010318782101385295
0.010352417163085192
0.01033567933831364
0.010296751104760915
0.010304866242222488
0.010366516020148993
0.010429355127271264
0.010443332749418914
0.010416978916618974
0.010416484435554594
0.010469003175385296
0.010517064672894776
0.010513225609902293
0.010466103416401893
0.010413906082976609
0.010406964777503162
0.010440910472534598
0.010474769019056111
0.010516948986332864
0.010550222441088409
0.010509175807237625
0.010421689369250088
0.010383459667209535
0.010402716668322683
0.01042186732403934
0.010433492783922702
0.010468879351392388
0.010530717307701706
0.010592462096828967
0.01062382142757997
0.010615377558860929
0.01058444397058338
0.01054298184113577
0.010492069940082728
0.010454680384136737
0.010464651864022017
0.010506699711550027
0.010520956709515304
0.01048890080070123
0.010449701503384859
0.010434661891777068
0.010445154891349374
0.01046377285849303
0.010475198344793171
0.01049158681416884
0.010503604742698371
0.010456901709549129
0.010354060293175281
0.010274530481547117
0.01025936622172594
0.010263923988677561
0.010245453463867307
0.010255071085412055
0.01033860796596855
0.010417170247528702
0.01043251996859908
0.010446510470937937
0.010489692424889653
0.01051874423166737
0.01052482150727883
0.010542867635376752
0.010591135709546506
0.010636296113952995
0.010624010511673988
0.010566799626685679
0.010543533484451473
0.010579893204849214
0.010599439137149603
0.010544151447247714
0.010475005481857806
0.010462299159262329
0.01047679899726063
0.010488767535425722
0.010522559410892427
0.010571611372288316
0.010617993327323348
0.010676952542271466
0.010726678997743875
0.010714315688237547
0.010642552231438458
0.010558090310078115
0.010483763597439974
0.010407314579933881
0.010330051695927978
0.010295711697544903
0.010326081002131105
0.01035701542859897
0.010327000312972814
0.010280497707426547
0.010283247146289795
0.010316257188096643
0.010337685758713633
0.010364489804487675
0.010419832591433078
0.010458731981925666
0.010427143608685583
0.010356942361686378
0.010317732472904026
0.010314696326386184
0.01030755921266973
0.0102880256366916
0.010270614253822714
0.010253790977876633
0.01024555427255109
0.01025444898288697
0.010255564905237406
0.010245160250924527
0.010252944531384856
0.010264462814666331
0.010236678877845407
0.010177439365070312
0.010126674207858741
0.010091817572247237
0.010063286044169218
0.010045413172338157
0.010032576515804977
0.010029790413100273
0.010068516633473336
0.010119660582859069
0.010121693143155426
0.010130663407035173
0.010235747953411192
0.010368480454199016
0.010404358895029872
0.01035007937811315
0.010295839568134397
0.010293800744693726
0.01031641110777855
0.010301179441157729
0.010248425067402422
0.010218411546666174
0.010251009424682706
0.01033078774344176
0.01038102686405182
0.010328689680900425
0.010210979315452277
0.010130768436938524
0.010121869379654527
0.010140607422217727
0.010144286218564957
0.010128642190247774
0.010105001605115831
0.01008663120213896
0.01008497592061758
0.010076436162926257
0.010051025245338678
0.010063162355218083
0.010138950527179986
0.010220258121844381
0.010239638346247375
0.010210275826975703
0.010188845710363239
0.010153404558077455
0.010069092926569283
0.010014568860642612
0.010052196758333593
0.010103439793456346
0.010096998845692724
0.010077824289910496
0.010089090382680297
0.01010170931229368
0.010078683798201381
0.010015869394410402
0.009953190730884671
0.009947141839656979
0.009990463282447308
0.01002194251632318
0.010020193059463054
0.010012867124751211
0.010009770800825208
0.009986774537246675
0.009949107931461185
0.00993995095603168
0.009956936093512923
0.009938069921918213
0.009841964242514222
0.009715847754850983
0.00966473868349567
0.009734518839977682
0.009864068161696195
0.009963721153326333
0.01000063085462898
0.010012008075136691
0.010053080720826984
0.010119271338917315
0.010159405055455864
0.010167898079380393
0.010187348702456802
0.010231578326784074
0.010259157279506326
0.010241002112161368
0.010205394241493195
0.010167915106285364
0.010121116554364562
0.010111043744254858
0.010184152496512978
0.010283079112414271
0.01031068742275238
0.010263823394197971
0.010216288098599762
0.010213393738958985
0.010252437330782413
0.010296765915118158
0.010282992424909026
0.01021176612470299
0.010184498990420253
0.010239955119322986
0.010281744871754199
0.010249961158260703
0.010199694754555821
0.010188453944865615
0.010209854408167303
0.010218667399603873
0.010175221466924995
0.010096921394579112
0.010057133988011628
0.010080052902922035
0.010087378672324121
0.010040593503508716
0.010014665487688035
0.010021674404852092
0.0099650797736831
0.00984218269586563
0.009761625768151134
0.009773113126866519
0.009842242968734354
0.009913275104481726
0.009954552534036338
0.009985451193060726
0.010023791787680238
0.010037224593106657
0.009990632086992263
0.009918316507246346
0.009908543962519617
0.00998601668747142
0.010072675868868827
0.010118603419978172
0.010163178921211512
0.01023854966275394
0.010319818514399231
0.010359529212582857
0.010345702713821084
0.010331334855873137
0.010373140648007394
0.010461116225924343
0.010524840313009917
0.010518772285431624
0.010487257440108805
0.010479608071036636
0.01046913253609091
0.01042922351276502
0.01039407598087564
0.010390212477650493
0.010383869700599463
0.010348967520985752
0.010313874334096909
0.010301242738496513
0.010297632259316743
0.010285472213290632
0.010251046905759722
0.010190863676834852
0.010142588769085706
0.010152541506104172
0.010201386783737689
0.010220289076678456
0.010168852298520506
0.010088963347952814
0.010081854283344
0.010167051570024342
0.010233841508161277
0.010224279202520847
0.010204828912392258
0.010229650295805186
0.010291102442424744
0.010372956627979874
0.010475489587988704
0.010578016033396125
0.010623406297527253
0.010591565615031868
0.010531844343058766
0.010493529415689408
0.01047510486561805
0.010440838178619743
0.010355772487819194
0.010234873003792017
0.01014581192517653
0.010135977775789798
0.010184505239594728
0.010226175088901073
0.010229989727959037
0.01021714233327657
0.010194073661696166
0.01016497683012858
0.010163989150896668
0.010193421836011112
0.010207693970296533
0.010184066877700388
0.010149733005091548
0.010147390540223568
0.010197447577957064
0.010254687608685344
0.0102359567489475
0.010149296836461872
0.010094736062455922
0.010111786751076579
0.010133140664547681
0.010097596619743854
0.010045846761204302
0.010043240524828434
0.010065189921297133
0.010051687890663743
0.010008345141541213
0.009999618099536747
0.010070587610825896
0.010183191944379359
0.010248313443735241
0.010236009042710065
0.010204419882502407
0.010202881814911961
0.010223087093327194
0.01024900633841753
0.010287805458065123
0.010333510225173086
0.010340777379460632
0.010286764746997506
0.010207850525621325
0.010138571851421148
0.010087735699489713
0.010065801746677608
0.010079043747391552
0.010121814045123755
0.010174718897324055
0.010207909243181348
0.010228614078368992
0.010270082100760192
0.010298036974854768
0.010251200222410262
0.010176402372308076
0.010168148295488209
0.010210071874316782
0.010214939350262284
0.010158795183524489
0.010075323407072574
0.009980307447258384
0.009880135534331203
0.009811769591178745
0.00979670777451247
0.009796653545927257
0.009785045399330556
0.009798440120648592
0.009861672872211784
0.00993339366512373
0.00997686687624082
0.010012924447655678
0.01004589486401528
0.010031640608794988
0.009980227013584227
0.009979138942435383
0.010060318717733026
0.010142662504222244
0.010140739232301712
0.01007864749059081
0.010061938748694956
0.010121681415475904
0.010177946072071791
0.010198892923071981
0.010233954733703286
0.010274008403066547
0.01025124262087047
0.010166930279228836
0.010097937432583422
0.010087941766250878
0.01008910468313843
0.010047596369404346
0.009993418236263096
0.009957230922300369
0.009914769583847374
0.009869360462762416
0.009851254944223911
0.009852203761693091
0.00984905455261469
0.009846358236391097
0.009854218298569322
0.0098700086097233
0.00989839583169669
0.00993499621981755
0.009940314877312631
0.00989042900968343
0.009821088674943895
0.009787739736493677
0.009805913597811014
0.009832707417663187
0.009824397664051503
0.009808903003577143
0.009840328856371343
0.009894263281021267
0.009903047264087946
0.009884863335173577
0.009909269728232174
0.00995914706028998
0.009977384298108518
0.009973678376991302
0.009969582885969431
0.009960900135338306
0.009957865099422633
0.009980535928625613
0.010029056568164378
0.01005181935383007
0.010003584497608244
0.009952420669142157
0.00999434849480167
0.010095619834028185
0.010146934730000794
0.010129296064842492
0.010121987927705049
0.010168616557493806
0.010225916816852986
0.010238143249880522
0.010209382558241487
0.010186917090322822
0.010192904218565673
0.010206495015881955
0.010220216996967792
0.010262569701299072
0.010311512099578977
0.010296632046811282
0.010236325268633663
0.010208844935987145
0.010215018312446773
0.010204976683016866
0.010172827679198235
0.010159397069364785
0.0101857266202569
0.010209115860052407
0.01018691859440878
0.010155694067943841
0.0101648715371266
0.010172967053949832
0.010106010742019863
0.009992564097046852
0.009939188596326858
0.009977427655830979
0.010034718704409896
0.010051159444265068
0.010047287049237639
0.010069200459402055
0.010112324755173176
0.010133873058948665
0.010109818025957793
0.01004842383088544
0.009982812227681279
0.009956314398441463
0.00998017165577039
0.010014165686443447
0.010016986620612442
0.010008050540927798
0.01003734180238098
0.01008434203453362
0.010080899149179458
0.010058590597473084
0.010113611617125571
0.01021577320061624
0.010229301052168011
0.010118329019751399
0.01000098837306723
0.009973661908879876
0.00997878204099834
0.00992747112410143
0.009857584820128978
0.009863402999471874
0.009927197599317879
0.009944206352811307
0.009901077437680214
0.009857478092890233
0.009809186726342886
0.009758358446415514
0.009761081791948527
0.009804644195828587
0.009827927527949214
0.009836496009957046
0.009867430462036282
0.00992258038604632
0.009984685941599309
0.010028130640275777
0.010024646462406963
0.009991486463695765
0.00998409633524716
0.0100228157825768
0.010078925208654254
0.010108859764877708
0.010101591052953154
0.01010767242871225
0.010156908163335174
0.010179009202402086
0.010112506772857159
0.010024339256342501
0.010008519638795406
0.010048216332215816
0.010060218044091017
0.01001381545793265
0.009956287823151798
0.009938888028264046
0.009958405166398733
0.009982188313733787
0.009987617884762585
0.009961300266440957
0.009912139459047467
0.009903478734195233
0.009988823079038412
0.010101702059619128
0.010121150808408856
0.010050274739041925
0.01000939401332289
0.010032132072374224
0.010013931815046817
0.009905280233360826
0.009789313334040343
0.00974661766551435
0.009769560692366213
0.009804372705984861
0.009826614032499492
0.009855928330216557
0.009894127515144647
0.009924071747809649
0.009974648202769458
0.010063060868997126
0.010116445876192301
0.010083189520519226
0.010023656736593693
0.010002710821572692
0.010001631898339837
0.009973862185142934
0.009912323213648051
0.009850973642896861
0.009829058493487537
0.009843762039672584
0.009847722332924604
0.009823200881946832
0.009814443371724338
0.009850667796563357
0.009905076997820289
0.0099416503473185
0.009949967465363443
0.00994886618340388
0.009958046837709844
0.009970536432228982
0.009969118058215827
0.00994573579635471
0.009933564260136337
0.009984925396274776
0.010053609581664204
0.010028563337400556
0.009921996160410345
0.009862413750961424
0.009896088507957757
0.009929146731738002
0.009884331293869763
0.009818132903892546
0.009819189282134176
0.009864263834897429
0.009869261507410555
0.00981158677721396
0.00975252649281174
0.009781942965928466
0.00988793023629114
0.009941902898717672
0.00990473069716245
0.009876462721731514
0.009900487218983471
0.009920195951126516
0.00992005095584318
0.009935415766667574
0.009964154798071832
0.009991703177802265
0.01002855661790818
0.010068494467996061
0.010087336006108671
0.010073760063387454
0.010025761688593775
0.00995913401246071
0.00990491163218394
0.009875937381293625
0.009865850957576186
0.00986272634472698
0.00986315387999639
0.009885239484719931
0.009929383294656874
0.009948528124950826
0.009924417764414101
0.0099099184689112
0.009930474008433521
0.009950049177277834
0.009944455563090742
0.009921275812666863
0.009904754275921732
0.009923869129270315
0.009979101184289902
0.010019740981515497
0.009995020930655301
0.009928035400807857
0.009875577543862164
0.0098487250180915
0.009834435114171355
0.009839250769000501
0.009866232431959361
0.009883569101803005
0.009869993319734932
0.00985027545131743
0.009834220467600971
0.0098088272777386
0.009790254421532155
0.00979121339507401
0.009791637628804892
0.009789458101149649
0.009817182917613536
0.009890070986002683
0.009975013085640966
0.010023500057868659
0.01001677280990407
0.00997665231814608
0.009942432085517794
0.009927611206658185
0.009917015442624688
0.00988995069405064
0.009828479452989996
0.00976153407478705
0.009748770757578313
0.009780160647351295
0.009802980769891292
0.009813280410598963
0.009822586353402584
0.009812973521184177
0.00978423496009782
0.00977176745655015
0.009780840971507132
0.009784853721503168
0.009795373592060059
0.009830774671863765
0.00985522995935753
0.00984482150990516
0.009841002316679805
0.009870231035165489
0.009890889006201178
0.009877343089319765
0.009878236309159547
0.009915896852035075
0.009932185562793166
0.009912994110491126
0.00990838725818321
0.009909839918836951
0.009885696598794312
0.009867456296924502
0.009874722126405687
0.00987032639561221
0.009840748575516044
0.009834048186894507
0.009882653127424418
0.009924585542175918
0.009883813804481178
0.009795329731423408
0.0097543068183586
0.009796725374180824
0.009864350815769285
0.009868372748605907
0.009808679982088507
0.00977101021911949
0.00979489270132035
0.0098400541767478
0.009869694476947188
0.009881730116903782
0.009877552238758653
0.009869326308835297
0.009879038585349918
0.009892542094457895
0.009875450530089439
0.00983014727011323
0.009796550059691071
0.009807093534618616
0.009847475863061846
0.009882692582905292
0.009913740083575248
0.00994880479760468
0.009964307716581971
0.009955110943410546
0.009940252136439086
0.009928390653803944
0.009931827511172742
0.009937260299921036
0.009893838092684746
0.009797061739955098
0.009702460260596126
0.009641847112216056
0.009609193981159479
0.00960439401678741
0.009626648591365665
0.009656724915839732
0.009675416776444764
0.009688168927095831
0.0097201666678302
0.009776061736047267
0.009829151530284434
0.009863012891728432
0.009876806093379854
0.009863275389652698
0.009851479213684797
0.009904175181873143
0.009993274672888219
0.010008930230978876
0.00994165658717975
0.009891839113552124
0.009906114533077926
0.009934780923649668
0.009921270229388029
0.009871116077993064
0.009823390129022301
0.00978078685235232
0.00973576525459066
0.009725458612665534
0.009765746518969536
0.009795723771676422
0.009768280710559338
0.009715402820147575
0.009667600651737303
0.009625817304477096
0.009623488797806203
0.00966512953164056
0.009687683871015906
0.009679489359259606
0.00968779346672818
0.009710121566895396
0.009708279778715223
0.009696507526095957
0.009713583758566529
0.009743863679468633
0.009754642555490136
0.009740800228901208
0.009691275665536523
0.009610506566241383
0.009548945832066238
0.0095211925287731
0.009483496444299817
0.009452076589222997
0.009495156689081342
0.00958046774379909
0.009593677159864455
0.009520444073714315
0.00946124917594716
0.009453300894238055
0.009436912753153592
0.00939632427180186
0.009363115972373635
0.009342707104515284
0.009351082707289606
0.00940194837981835
0.009456056682392956
0.009467210157308727
0.00942522611701861
0.009372026312630623
0.009375234593171626
0.009430362104903906
0.009458524216897786
0.00942845101468265
0.009399053680244834
0.00941794332349673
0.00945101611316204
0.009456278511788697
0.0094498450611718
0.009457436096854508
0.009475660943426192
0.009489902222994714
0.009490159628912807
0.009484457650687545
0.009482744960114359
0.009471086715348066
0.009445939394645393
0.0094339313916862
0.009440427804365754
0.00943974728230387
0.009430255116894841
0.009429213693365454
0.009425672285724431
0.009406251257751137
0.009394316878169775
0.009424005828332156
0.009494528125505894
0.009543733629398048
0.009521796824410558
0.009501897264271975
0.009569839304313064
0.009660293587949127
0.00966894774697721
0.009613930261693895
0.009574708198197186
0.009578720985446125
0.009573122961446643
0.009518360297661274
0.00945094290887937
0.009414167085196823
0.009403394954279064
0.009402934391982854
0.009392963841091841
0.009353308996651322
0.009308169244322926
0.009300935140345246
0.00931615563808009
0.009307373957708477
0.009290216241497546
0.009306427361443638
0.009331097223330288
0.009304981015156954
0.009231553431600332
0.009190531692001968
0.00921856567496434
0.009253598642535507
0.009277992022689432
0.009346678387373686
0.00942559806862846
0.00942880249582231
0.009393296032212674
0.00941386989550665
0.009471144299022854
0.009476042673923076
0.00943043187027797
0.009413090862799435
0.009428965258412064
0.009421881092712282
0.00941036508185789
0.009437829698435962
0.00945145524572581
0.009414800670929252
0.009418187327682973
0.009504453269764781
0.009570257419254631
0.009552196692675352
0.009517749527003617
0.00953608907526359
0.009592391359619796
0.009624797515571118
0.009601932598743588
0.009576069947797805
0.00960458221146837
0.009633597938809545
0.00957900968613103
0.009469659815076739
0.009407268010545523
0.009437024781946093
0.009511837924364955
0.009568200875073672
0.009602553888689726
0.009646821822971106
0.009699991766829043
0.009734698054380715
0.009742288102861494
0.009729791961144657
0.00971181227825582
0.009719498483464121
0.009757892538327723
0.009775427200365812
0.009744936276692897
0.009709496919531374
0.009705138900317252
0.00972150708315894
0.00973345345351845
0.00972340487409383
0.009701945127453655
0.009694269981700927
0.009692697222344577
0.00967256175354123
0.009631480465177446
0.009578816534485668
0.009534673087764532
0.009524741526693106
0.009543460439890622
0.009574753670021892
0.009629665843676775
0.009697507014498114
0.009730248120613396
0.009729898895602673
0.009755790797062219
0.009810776032973081
0.009833557566162198
0.009814221276901663
0.009799449038691819
0.009802159247919917
0.00979407506994903
0.009767941713798791
0.009746872358955444
0.00972268037730828
0.009660787468310445
0.009594037348870188
0.009602633614558726
0.00967600297415629
0.0097265690471977
0.0097295801830478
0.009746785887982697
0.009792858972214163
0.00981709499610588
0.009823202902916819
0.009874344919808209
0.00997258375864476
0.010070340470410883
0.01015652040950954
0.01021689861547202
0.010214738701470195
0.010163682990241795
0.010104025667533278
0.010029507896397262
0.00994121597148478
0.009900958493817598
0.009943791686091573
0.010017061925027519
0.010062837125733495
0.010100796481128781
0.010171549911610782
0.010229911839123815
0.010203294376842677
0.01012301298091188
0.010047813516575844
0.00995277778012678
0.00983126818202436
0.009747757331933827
0.009729662635363638
0.00975258853752166
0.009796404470689595
0.009841497309971602
0.009876553907524795
0.009912372729741038
0.009957334331702442
0.010008999351412059
0.010039893828798085
0.009997651299927383
0.009899877526331693
0.00984568933956325
0.009859327671583741
0.00985911333700642
0.009807684661354869
0.009758988320827484
0.009769838936626911
0.009844628139398992
0.009923661558423192
0.00993341682711616
0.009894763671327382
0.009901602827012539
0.009971603830344976
0.010020658529829234
0.010004133628681302
0.009976631237659603
0.00998564953217283
0.010003460342995823
0.009990527729969471
0.009974709018133581
0.00999863826436922
0.010022755817044527
0.009998236380051822
0.009948524441570043
0.009897946694400162
0.009862737276125699
0.00987973580835387
0.009925435159821062
0.009936165735125542
0.00992199447704479
0.009927316666580737
0.009948099514003843
0.009964269462507218
0.009982425728812814
0.010009766835719348
0.010025583615060896
0.010010024327784776
0.009989805119112134
0.010022160599473863
0.010120610576122999
0.010224285880103707
0.010285450106021016
0.010326407055836172
0.010347731553483754
0.010321250951383263
0.010287448400631546
0.010296415297780186
0.0103188271750696
0.010308650690130889
0.01026169583434239
0.010204465438146144
0.010166997781489044
0.010139523055404425
0.010099409120157362
0.010070207426324487
0.010068889833055436
0.010084639117121697
0.010142047186382114
0.010239664241671562
0.010297597558237613
0.01028572135604918
0.010253951323684306
0.01022291692905128
0.01019712171284482
0.01019921499537304
0.010212508451659233
0.010183090849313885
0.010097474802751093
0.010024241078644991
0.01003086674027145
0.010075902200769633
0.010092799647245555
0.010093484180979431
0.010088705944363029
0.010073325019329787
0.010094748709816486
0.010166650135070086
0.010210074449423701
0.010188128564041108
0.01016521081328392
0.010178934009745717
0.01018148381728679
0.010137606074567884
0.010075561723206193
0.010028857858851553
0.01001194649375975
0.010043201027438045
0.010120775795076042
0.010200393616687507
0.010247898241505026
0.01027395446319133
0.010287784105166793
0.010277858681511133
0.010255656121298671
0.010243656437378377
0.010209870007820428
0.010111229217145593
0.010002329149283468
0.009984919077251107
0.010057333505246789
0.010124129061587155
0.01014035071944818
0.01013698254711926
0.010137021611444651
0.010146247013472021
0.010167957674711943
0.010176077818032354
0.010143627340439706
0.010102090807631612
0.010102621295955032
0.010130891362205147
0.010130657015834004
0.010094616252463311
0.01006157984258607
0.010042689943220466
0.010020773650612682
0.009997534763533622
0.009986029213760048
0.009983262855093926
0.009972621372435242
0.009941704338416457
0.009897635616362095
0.009859888271894306
0.009844616691116243
0.009864241669420152
0.0099013025383465
0.009904366813134401
0.009867924177087843
0.009847420214209706
0.009869933256413787
0.009900853361468762
0.009917486214544625
0.009944700258783997
0.009966127437073737
0.009927802179008722
0.009860745426267385
0.009854929125867783
0.009921591265592724
0.009964375905692578
0.009912001572083683
0.00983080003876239
0.009810537982266396
0.009820800335146486
0.009799404295627027
0.009769345973618329
0.00977327490458265
0.00978197367861867
0.00974565656390041
0.009701165710575879
0.00972599329194054
0.009792111527640373
0.009812120259739458
0.009804348691832275
0.009837179868482053
0.00987795190187171
0.009857100476510823
0.009791857965756207
0.009739407473243773
0.009715793675277383
0.009713385587092489
0.009726099371910095
0.009758043612819164
0.009821412048768251
0.00988085925579071
0.009878761481959373
0.009849056547973306
0.0098683385620825
0.009917964159976691
0.009909543241374195
0.009805818519089371
0.009682761186268181
0.009641230662818998
0.009668049330357462
0.009703928022645414
0.009752914551645517
0.009813341952394694
0.009848736638668925
0.009853268687147648
0.009841910565737634
0.009800447744783013
0.009718933312688022
0.009653056084644049
0.00965993967372924
0.00971334904897958
0.009765525967814027
0.009804369076155126
0.00982241856167093
0.009817385887727141
0.009806849230080843
0.00980675569968298
0.009815387544222176
0.00981776492204517
0.009798468016088009
0.00974579888395965
0.009661584724672139
0.009603458438068629
0.00965166235808283
0.009770153281278908
0.00982407497242093
0.009787346478551626
0.009763264670036733
0.009796724594198168
0.009834845578297972
0.009838301900308578
0.009828983582556248
0.009849559706635773
0.009908462322782726
0.009973690169863403
0.010010864823125304
0.010002045792061836
0.00995256828609854
0.009905867830384522
0.009901788006536662
0.00991959851467982
0.009917704646941274
0.009902396905235946
0.009900589152239262
0.009894957053475081
0.00986119154607877
0.00982909025857225
0.009837360202800483
0.009884094318840653
0.009945562838111073
0.01000026399968192
0.010034661702811719
0.010043332688510417
0.010026036237832159
0.009986853564623744
0.009937790019903333
0.009881216143257916
0.009806807225104422
0.009720543764997274
0.009647944618482143
0.00962544657755643
0.0096677614771761
0.009733479681890457
0.009759472399018705
0.00972153780516237
0.00966329700080678
0.009638500870205463
0.009638585809152573
0.009630367376375943
0.009613581241574139
0.00961182574974373
0.009624934704042971
0.009617167806718499
0.00959760220721364
0.009628409501165152
0.009691456940490752
0.00969928596401587
0.009660357944667339
0.009652609778568149
0.009673610001336784
0.009675658149644733
0.009669261397793888
0.009683658319991082
0.009701265392359347
0.009698939388617872
0.00969867552863434
0.009725138791836799
0.009758991398848593
0.009764651444274932
0.009726594446692615
0.009664197135716677
0.009626259857323021
0.009639207276050001
0.009679680301342159
0.00970799068454653
0.009706723883282394
0.009703785472083837
0.009714813057798892
0.009704434175509959
0.009678165244404227
0.009675863054580987
0.009675401442218573
0.009645125002134592
0.009613690888509155
0.009601938521955162
0.009583789745811373
0.009560594644863158
0.009560252341907471
0.009555217924062163
0.009507774577941745
0.009445462867151946
0.00940186033025384
0.009374714940786361
0.009362249101977796
0.009363435972481966
0.009365959116257727
0.009361971854232251
0.00936216204892844
0.009399048960767686
0.009489781062584371
0.009611231852322816
0.009737035986036062
0.009821360902860761
0.009795775837264955
0.009688613605685532
0.009625943703576922
0.009644210890401154
0.009641908640041948
0.009556145961396397
0.009466168661601842
0.009480895935557782
0.009590514090377837
0.009675768709275872
0.009665906592272223
0.009617859271820635
0.009590604838449509
0.009565457694698125
0.009543426202144474
0.009557040098588914
0.009581112849991769
0.009580139636527747
0.009587269488256424
0.009631235308479518
0.009676729168277234
0.009694821669254452
0.009697457812726497
0.00970343964640051
0.009721082074102015
0.009742171328980476
0.009761828645132482
0.009780789008364082
0.009778169104829431
0.009749983050860465
0.009750470488797873
0.009818925892468543
0.009911442247685046
0.009988478685263544
0.010073553724214434
0.01015333274845034
0.01017766036791727
0.010171868107281625
0.010198332963045686
0.01023860320681706
0.010225943902041764
0.010174985663034021
0.010176685946062207
0.010249456388410181
0.010291121506597847
0.01022873684996739
0.010123256316874177
0.01006440157070756
0.010065505714155733
0.01009822693420574
0.010127968359738589
0.010108098380733281
0.01002405385253951
0.009919598614796996
0.009843265188392252
0.009792149325367063
0.009788464668672532
0.009810641349758953
0.009805983011610807
0.009775934147182853
0.00976375404978171
0.009771264602895825
0.009775365150999278
0.009776013433001935
0.009788194557186216
0.009824802789371461
0.00987145550083369
0.009887101545464247
0.009870493945199996
0.00986971907550469
0.00988889240892604
0.009877656348980962
0.00982395933708176
0.00976694054203108
0.009751202389597893
0.009790115940850228
0.009827470765449106
0.009806178931612522
0.00976968269329518
0.009784114556387067
0.009845850341953337
0.00994131474988535
0.010062893023714423
0.010153045540209859
0.010162286802660674
0.010128727951087057
0.010105124653782695
0.010080144270323216
0.010039165148045868
0.010012417370453476
0.010020660182926805
0.010034666038118303
0.010011533626820892
0.009967113952152431
0.009958643247373403
0.009971968873869627
0.009948074936401098
0.009897922496311367
0.009865595586597919
0.009869141103699804
0.009907575543038546
0.009946633849758656
0.009955578066874296
0.00995926208095625
0.009997646419797092
0.010064517112914473
0.010099811188410968
0.010038410262204707
0.009884366656187922
0.009744491851888597
0.009725072770379484
0.009776595546863973
0.009786720746196806
0.009785059969872237
0.009842939332593233
0.009905838780105114
0.009913951901253312
0.00990063655655831
0.009880780833773315
0.009830068442970514
0.009778194969985634
0.009775763077195734
0.009801593641750515
0.009797217331361026
0.009764188481494785
0.00974835301283747
0.009736534329131246
0.009683227431960404
0.009627946745604276
0.009635290789883583
0.009673699182458221
0.009686328049283474
0.009678551899269224
0.009666023815516383
0.009657026219647378
0.00967636686982587
0.009711598013527691
0.009700914020650089
0.009626353727653622
0.00955855703447014
0.00956840397324413
0.009622751944698393
0.009621852105483412
0.009541474506258965
0.009473873730748893
0.009493670812807976
0.009575035544112325
0.009662313456647097
0.009703269344754517
0.009662490002810956
0.009588372269645333
0.009574052263051271
0.009643716551363469
0.009759038011543453
0.009867992359213531
0.00993957436643541
0.009936196440830826
0.009888220061548054
0.009875319059938192
0.009954132279381156
0.010078170816414059
0.010150112947449087
0.01014678434934467
0.010110603356733918
0.010061390153132378
0.009997162111103535
0.009947539488784969
0.00995800579432398
0.010005220393650234
0.009994692490436137
0.009904295480810106
0.009838613579049707
0.009883955004625022
0.009998485720716417
0.010071189440786839
0.010052147726528347
0.010009014341048896
0.010025933058932424
0.01007102190516889
0.010050059799104928
0.009947577393613755
0.009828704986721276
0.009762665084563195
0.00977564309258014
0.009843581868335605
0.009919182448647916
0.009964453768916429
0.009987302687950433
0.01002103494014591
0.010053370269015432
0.010046750828623772
0.010027667228132486
0.010074670123867691
0.010174898519180716
0.01020275276619941
0.010113269984722138
0.010005821431986988
0.009966318416409194
0.009973131977021694
0.00996223695576191
0.009926331886090338
0.009904715460725128
0.009892909843474627
0.009861829238943756
0.009839980122633278
0.009865138558670878
0.009916897136718035
0.009964755377732218
0.010012946468777954
0.010062237144447863
0.010069272350519895
0.010023885886184872
0.01001411176752299
0.010082129137590528
0.010129840313456952
0.010080174738541246
0.009988493020646274
0.00993409430142492
0.009920203015208245
0.009920800407417118
0.009939783969894051
0.009982848656363785
0.01003178393933922
0.010066803130321204
0.01007937463466078
0.01006757809780538
0.010050788875669242
0.010070012267678976
0.01011856643948704
0.010129689439199865
0.010086765792220832
0.010049215778708457
0.01005235525779426
0.01006077228114009
0.010022698566317559
0.009951629377901554
0.009914371934719383
0.009932388002052903
0.009960015611723065
0.009952911222353578
0.009926474750973285
0.009930607266724109
0.009974150229245424
0.010018465095199644
0.010030741840600967
0.010016327672638
0.010001394199207425
0.010011372184380888
0.010059134606271981
0.010099889328703284
0.010064938287250698
0.009981777165085077
0.009939796621911228
0.009945027022622526
0.009940291503444314
0.009918993413448334
0.00991450904868543
0.009941540681757033
0.00997512289788574
0.009957742593251169
0.0098817465826869
0.009815613836981357
0.0097884958749637
0.009772455329075455
0.009772588843479752
0.009801671258173883
0.00983371534384787
0.009845645423047245
0.009846213762648404
0.009859976680018008
0.009895235253497957
0.009925990593619644
0.009905710923485458
0.009826019378378988
0.009752940842881799
0.009739160868339241
0.009751451327465474
0.00974401593208313
0.009728585509583354
0.009744294686242938
0.009792649378068745
0.009806168866343796
0.009740855977870524
0.009687867113389075
0.009731151550076901
0.009786471985280513
0.009772818484343589
0.00975118778180331
0.009786618598736823
0.009854834293946624
0.00989921425934881
0.009896901692263782
0.009857619139365852
0.009798750909976662
0.009761667754501104
0.009790070094168187
0.009858339526690543
0.009890922140330076
0.009875835622660816
0.00987829306628555
0.009915501978248357
0.009929293179884552
0.009905404523015022
0.009890952096320689
0.009897982920520007
0.009910625396296382
0.009938521455042064
0.009984654732979834
0.01001370465848595
0.009981699101626874
0.009906224156729877
0.009864487377926707
0.009871927532367408
0.009879916049540043
0.00990328132174909
0.009982782178558408
0.010073507390916347
0.010121625419706105
0.010157839525491
0.010201351251453161
0.01020002698060125
0.010139884315431119
0.01008677133359015
0.010087536638602615
0.010103838397189974
0.010082806879654526
0.010051770992577076
0.010050209164619446
0.01003689863719046
0.009975761882960796
0.009915627809241413
0.009917675987817348
0.0099778569675982
0.010046154055744409
0.010089540230110288
0.01010307161603123
0.01010217388626188
0.010122067709453404
0.010155943124555051
0.010153091573156416
0.010105912457220256
0.010048528076149523
0.010009882161393762
0.010004342063330113
0.01001631970051676
0.010018790257163346
0.010006285337731242
0.009967742306180298
0.009910108204931021
0.009901494551450014
0.009966295072808861
0.010026579988189042
0.010024381829425692
0.009977783737704159
0.009926104405894875
0.009905993612483144
0.009918116540648043
0.009916675947606564
0.009892741246148943
0.009895688663236797
0.009942860570736229
0.009991047894582153
0.010011039576493203
0.010028591779991984
0.010076668299734592
0.01014511238783598
0.010191946811974049
0.010198464412242174
0.010180786098353566
0.01015184509102255
0.0101262022042647
0.010122513226233422
0.010137409181334078
0.01015870453324169
0.010174086019396782
0.010180424400605261
0.010206543314270676
0.01025091739371419
0.010258380575105547
0.010223815101198852
0.01019679473247379
0.010213737939484418
0.010271829999983311
0.010284093865193427
0.010183555153198541
0.010074555627070367
0.010073628253303468
0.010125537924468518
0.010112110292539
0.010012592254206538
0.009924199455417693
0.009938080525025726
0.010019831932149828
0.010087429112754762
0.010125162196345627
0.010144347525201738
0.010143412132747472
0.010136967697180808
0.010123078697361051
0.010069352090358735
0.010003633345477284
0.010008073030039668
0.010079323528334499
0.010123115517199039
0.010108469603583217
0.010090119293890894
0.010088151940144598
0.010078169060871006
0.010062351590022445
0.010059347082860768
0.010076036397367715
0.010101383812725543
0.010095368684269489
0.010040040332823992
0.009977272837422788
0.009947568466886878
0.009949804041534662
0.00995497306343168
0.009930682256817818
0.009890926340594887
0.009885904947295784
0.009922767388634384
0.00996510545257479
0.009991412120871245
0.010016803331673145
0.010059704664163291
0.010093603814020753
0.010090051009319723
0.010085659278556704
0.010127071556635201
0.0101867248211056
0.01018920976202935
0.010109312580898405
0.009991768673062324
0.009880564422346652
0.009807198233902454
0.009786648275330663
0.00976765006314963
0.009709852668456732
0.009675790946930647
0.009726918237283826
0.009829228166490794
0.00991284042596817
0.009948029187507928
0.009968566969037055
0.01002045275643468
0.01008722696453333
0.01011368039995432
0.010084237474948167
0.010047711851075291
0.01005380718037486
0.010072551043704152
0.010059761554002762
0.010061761746183038
0.010121495528146625
0.010184453972615302
0.010215560523793101
0.01024803303182125
0.010268492246977986
0.010242225546389818
0.010203121560625732
0.0101807782612741
0.01015357261057943
0.010107429041527212
0.010044923187233507
0.009973249812610448
0.009920976408757269
0.009920785878784954
0.009973851600661873
0.010048579145222902
0.010100306440144778
0.010101783787831664
0.010067309029400348
0.010039610620588064
0.01004851309582591
0.010070303892716766
0.010052368151955307
0.01000425949227065
0.009992373385466635
0.010031578643247486
0.010078251394443214
0.010089030535891653
0.01005049766972661
0.010023851529695094
0.010067237881012261
0.010117388120852411
0.01010171849746257
0.010054064192809164
0.0100394773716107
0.010074955630116164
0.010118773044086992
0.010115871480666101
0.010068669100292027
0.01001868658233434
0.009975188854150474
0.009939610180445015
0.009932923065498471
0.009949116013012826
0.009986606584861875
0.010065609933808445
0.010138466372154653
0.010125200040638447
0.010049788178876043
0.009989506993442775
0.009926541903987528
0.009812015988864005
0.009706760263070465
0.00969182739034295
0.009729776475578546
0.009750966764986515
0.009767916905693709
0.009807754778303207
0.009852581112645566
0.00988623483106494
0.009910969934426249
0.009939057105220854
0.009980565356090664
0.010007390300743282
0.009979512481950224
0.009908272768370807
0.00984760859515518
0.00983226453885436
0.009834137335419655
0.009813984758220613
0.00980003094766289
0.00981998587027192
0.00982323156669736
0.009780783466994762
0.009748726859688759
0.009746694853529334
0.009715733942575753
0.009661323619075119
0.009668458760716021
0.009744192585349082
0.009824931668117643
0.009887906592339277
0.009909737729467452
0.009868629318661988
0.0098456567293033
0.009922292279079557
0.01002371784299612
0.01002381179947406
0.009921800652518869
0.009813526426441968
0.009739838442765176
0.00966158963739872
0.009567003585398198
0.009500523880124092
0.009486600328236817
0.009504445716738702
0.009545305869542062
0.009642948573455214
0.009810373396612703
0.009970357837155462
0.010022375900298357
0.009970192639157176
0.009921179423108696
0.00995820973534137
0.010038080937229098
0.010044711674563587
0.00994434512220323
0.009860978154465556
0.009818281033076345
0.009839395396411418
0.009836132093332707
0.00979712285567075
0.009764788169413806
0.009663848453201354
0.009564620284363628
0.009425471080467105
0.009359008609317243
0.009374640602618455
0.009633732573129238
0.009920804342254997
0.009990750905126333
0.009904258786700666
0.009867349485866726
0.009952435912564396
0.010052013057284058
0.010129018239676952
0.01020517451222986
0.01028249586932361
0.010372013743035495
0.010455068480223418
0.010488950400613248
0.01048239913303405
0.010437637707218528
0.010507398149929941
0.010534371053799986
0.01045159786939621
0.010381186865270137
0.010464072446338832
0.01058538912795484
0.010539567330852151
0.0106036188127473
0.010837935688905419
0.011033842200413346
0.011031137774698435
0.010922216759063304
0.010919729131273925
0.011082170917652547
0.01129334747325629
0.011438856706954539
0.011505365073680877
0.011568018202669918
0.011771432883106172
0.012177603980526329
0.012569862548261881
0.01265136381611228
0.0127073460444808
0.012939341273158789
0.01321704562753439
0.013530919160693884
0.013749710684642195
0.01368054726626724
0.013667840342968703
0.013556423373520374
0.013585226912982761
0.013556996290571988
0.013763815867714585
0.013953149965964258
0.013872794532217085
0.01406415095552802
0.01442179698497057
0.014696274884045124
0.01466227687895298
0.01477465377189219
0.015130932638421656
0.015570617527700961
0.015994085068814456
0.01654608859680593
0.017483052159659566
0.018654022892005743
0.01967141011264175
0.020559414317831398
0.021473185806535185
0.022146261194720865
0.02222793862223625
0.02262364267371595
0.023355627548880875
0.02415760768111795
0.02479153925552964
0.025202192738652228
0.025601757182739673
0.02621452644467354
0.02703016558662057
0.027712450502440332
0.02767854086589068
0.02855846766848117
0.030027682976797223
0.031198060419410468
0.03142216167412698
0.031577910985797646
0.03196258597075939
0.03236941806972027
0.032723309681750835
0.0327648652670905
0.03344549309462309
0.03415268224664032
0.034108860967680815
0.0346114486316219
0.03489467336796224
0.03658813965506852
0.03870633587241173
0.04008055953774601
0.04036326365079731
0.04085458530578762
0.04196594327222556
0.04335124303586781
0.044864175827242433
0.046287909192033114
0.04724892211146653
0.046963562313467266
0.04788803189527244
0.049732663347385825
0.051311814426444474
0.05173062610439956
0.0518665824085474
0.05200494972988963
0.052163441251032054
0.05235625074245036
0.05235925481654704
0.053223572126589715
0.05424308842048049
0.05491615062579513
0.05562319171614945
0.05645239663310349
0.05640370761509985
0.05688612333498895
0.05715819680131972
0.0588656249223277
0.05997753692790866
0.06046851114369929
0.06234429446049035
0.06380641595926136
0.06439680783543736
0.06479807053692639
0.06549946397542954
0.06610131562687456
0.06618828220292926
0.06716445489320905
0.06814008378889412
0.06816641051322221
0.0684286938328296
0.06839364855084568
0.06838791070040315
0.06802637659013272
0.06757474748883396
0.06766137409023941
0.06828372623305767
0.0687474155286327
0.06869053660426289
0.06863693385384977
0.06917884936090558
0.06956729729194194
0.07097165275830776
0.07431049624923616
0.07684716936200857
0.0768417518073693
0.07818568831309676
0.07900995569769292
0.07916907045524567
0.07885958096943796
0.07841466894373297
0.07836167636793107
0.07877664905972778
0.07912947356700897
0.07975252652075142
0.08094720643479376
0.08201790709979832
0.0820659916009754
0.08113318624440581
0.08036050563678146
0.08073266623541712
0.08223462563473731
0.08301819602958858
0.08254108650609851
0.08383346644230187
0.08430782136507332
0.08361650224309415
0.08322879577986896
0.08421257170848548
0.08584242953918875
0.08633684937376529
0.0869138985266909
0.08897739496082067
0.09122963562607765
0.09301979131065309
0.09249223044607788
0.09197312301024795
0.09318954222369939
0.09559428568929434
0.09664687475189566
0.09622698840685188
0.0963364283181727
0.09627941558137536
0.09662838323973119
0.09674411126412451
0.09690856005530804
0.09751316590700299
0.09712468049488962
0.09797874075360596
0.09761662440374494
0.09555687340442091
0.09506685926113277
0.09511080482974649
0.09564311232417821
0.09652907464653254
0.0972297040745616
0.09735407372470944
0.0966972766816616
0.09580438982695341
0.09584749696776271
0.09498245277442038
0.09399457921739668
0.09363506297115237
0.09405037523247302
0.09431516263633967
0.09438859578687697
0.09413230100646615
0.09379835708998144
0.09391981224995107
0.0935771642671898
0.09278867008164525
0.09237356139346957
0.09246199487708509
0.09187899952288717
0.09285628854762763
0.09399182094726712
0.09510215380694717
0.09398024308029562
0.09314709654077888
0.09396353076212108
0.09412169962655753
0.09462214797269553
0.09577078701462596
0.09689621642697603
0.09707885315641761
0.09657947923522442
0.09720118660014122
0.09663075310643762
0.09555452609434724
0.09536448226310312
0.0951944137411192
0.09542342621367425
0.09527998053934425
0.09563557290937752
0.09655279735103249
0.0971545395348221
0.09643423731904477
0.09640282327774913
0.09619489520322531
0.09659729598555714
0.09632520307786763
0.09609240613412112
0.09503549712710083
0.09208838942926377
0.09034122219309211
0.09189680276904255
0.09159694429021328
0.09056127528659999
0.09161739279981702
0.09359232198446989
0.09550704885274172
0.09602362566161901
0.09593681344296784
0.09589667096268385
0.09504901313688606
0.09357436770573259
0.09260335106868296
0.09320398219395429
0.09438750363420695
0.09461128325667233
0.09328405352775007
0.09178225880488754
0.09046428931411356
0.09102379883173853
0.0906396870687604
0.09018057357519865
0.09030586815439165
0.08983509567566215
0.08840956660918892
0.08676274251192809
0.08680118596646935
0.08802010632585734
0.08823414943180978
0.08708501514513045
0.08528271732851862
0.08550163383595645
0.08477608697488904
0.082286139074713
0.079907304989174
0.07937471156008541
0.07945960108656436
0.07964987287763506
0.07998418169096112
0.08026422342751176
0.08071447379421443
0.08014946180395782
0.08063812141306698
0.08287809104193002
0.08351296431850642
0.08238528800662608
0.0841140698082745
0.08508403716608882
0.08567087770439684
0.08477460685186088
0.08288037169724703
0.08102612449321896
0.07939218177460133
0.07924487721640616
0.07976356976199896
0.07986136425286532
0.07990774610545487
0.08023693279828877
0.08022223366890102
0.0793939253455028
0.07954754583071917
0.07955986537504942
0.08007648381404579
0.0817321514710784
0.08300879452377558
0.08243772092740982
0.08383500662632287
0.08543166962917895
0.08586091054603458
0.08680395713075996
0.08724091133102775
0.08650521964300424
0.08536947717424483
0.08618283690419049
0.08746745261829346
0.08681286295875906
0.08484713316895068
0.08299434556160122
0.08278797652572394
0.08375677139498293
0.08461938938125968
0.08493864093907177
0.08636597804259509
0.08760908921714872
0.08758931373711676
0.08822414666879923
0.08824362984392792
0.08900793220847845
0.08910194305703044
0.0902981069078669
0.09186956089921296
0.09301151784136891
0.09380384163465351
0.09310353497974574
0.09309774219058455
0.09266765194479376
0.09365534180775285
0.09530695188324899
0.0952583260787651
0.09709323228802531
0.096379324789159
0.09833765950985253
0.10168946244288236
0.10422966009471565
0.10339843573048711
0.1041003019362688
0.10555354809388519
0.10677276545204223
0.10655192434322089
0.1071740797860548
0.1071845771605149
0.10754192273132503
0.10698067504912614
0.10615328442305326
0.10492795488797128
0.10466443797573448
0.10510300842579454
0.10520609797444194
0.10623640678822995
0.10658864709082991
0.10623758972156792
0.10639149703085422
0.10647549304645508
0.10664061433635652
0.10645219916012139
0.10699306909926236
0.10724251043051482
0.1053360613109544
0.1047666418273002
0.10555534738115967
0.10623102198820561
0.10629714014008641
0.10597826471086591
0.10708068637643009
0.1069602379295975
0.10741213073488325
0.10887529655825347
0.10909844377078116
0.10886654593516142
0.10813148393761367
0.10723034956492483
0.10791697696782648
0.10882827640511096
0.10859544273465872
0.10684029194060712
0.10957535820547491
0.1115216262685135
0.11163760957308114
0.11072046010289341
0.11155147382989526
0.11245908016804605
0.1122447186941281
0.11413793415296823
0.11607903655152768
0.11670283957384527
0.11696539714932441
0.11753007120452821
0.11711436167825014
0.11700660754926502
0.11810108211822808
0.11808784843422472
0.11830099800601601
0.11883486022241413
0.1181729821395129
0.1166850948240608
0.11741427784785628
0.1161019812291488
0.11473421252332627
0.1153699621744454
0.11672293022740632
0.1168131331447512
0.1161037606280297
0.11654316448606551
0.1166018782602623
0.11637831190600992
0.1161489484179765
0.11647450713440775
0.11702295394614338
0.11548910912126303
0.11415526201482862
0.11309460947755724
0.11291995687875897
0.11073361817281693
0.10905069778207689
0.10921049965545535
0.10930957428645342
0.10939369116909801
0.10863855174276978
0.108877497529611
0.10733087475411594
0.10503949471749366
0.10375294535886496
0.10414335028268397
0.10504584847018122
0.10500828700140119
0.10517815263010562
0.10448939685244113
0.1039421101892367
0.1050622449722141
0.1041552794771269
0.10461029624100775
0.10155633155722171
0.09855045413132757
0.0982258210144937
0.10023167782463133
0.09975399718619883
0.09772195918951183
0.09587642607744783
0.09578873155172914
0.09521840021945537
0.0959930189885199
0.09572372211143375
0.09839432205073535
0.10196806944906711
0.10440221922937781
0.10526981859933585
0.10884050006978213
0.11124356192536652
0.11029699224978685
0.11011350248474627
0.10965236888732761
0.11003705440089107
0.11150859379209578
0.11318557326681912
0.11382719437126071
0.11411394901573658
0.11546315724030137
0.11690651197452098
0.11489295058883726
0.11233336815610528
0.1120794021524489
0.11234130623284727
0.11274182787165046
0.11226847939193249
0.11262303756549955
0.11151167076546699
0.11029317708685994
0.10924852072261274
0.10934754107613116
0.10976319671142847
0.10929540810640902
0.10824976860545575
0.10657343171536922
0.10555327791254968
0.10700825321022421
0.10566460583824665
0.10334679982159287
0.10245290908962489
0.10272464193403721
0.1031507708132267
0.1049281826382503
0.10685705951415002
0.1049963823100552
0.10341844128444791
0.10265631468500942
0.10249691338278354
0.10234301671385765
0.10235279033426195
0.1014411217905581
0.10039866460952908
0.09980569674633444
0.09931727845687419
0.09902865027543158
0.09905893930699676
0.09908417779486627
0.0991779911518097
0.0987107324367389
0.10018180629238486
0.10074403885286301
0.09904712499119342
0.09850370530039072
0.10025775568559765
0.10137445660308003
0.10055842055007816
0.09946472838055342
0.09970767509192228
0.10039934434928
0.10066003337968141
0.10055393466725945
0.10018886381294578
0.10141394993290305
0.1036109364591539
0.105640574330464
0.10584754399955272
0.10732051688246429
0.10926831882447004
0.11017941513098777
0.11169887718744576
0.1151849195547402
0.1173085565213114
0.11866321008186788
0.12060940193012357
0.11988942302763463
0.11983856508973986
0.11986009252723306
0.12051993297412991
0.12039242345374078
0.11931076894048602
0.1187462520878762
0.11894794781692326
0.11995829310268163
0.1203205229761079
0.11902691304218024
0.11749974959064274
0.11547018117737025
0.11341145758517086
0.11299757192842662
0.11458184538874776
0.11622856089379638
0.1158615575125441
0.11651159716770053
0.11797639813739806
0.11576760491821915
0.11186152861453592
0.11027102677617222
0.10947901842184365
0.10667950292117893
0.10583209373056889
0.10663641161285341
0.10663786804303527
0.10805799080524593
0.10770819594152271
0.10600458832457661
0.10513170136604458
0.10671976932324469
0.10771332133561373
0.10572993187233806
0.10506961844861508
0.10675591252278537
0.10885338641237467
0.1101056565111503
0.1103309338260442
0.11040002396795899
0.11017398193478584
0.11027232689782977
0.11016270268242806
0.11034782517235726
0.11149728333111852
0.1121652908809483
0.11266246155370027
0.11299551295116544
0.11318428431171924
0.11425201513338834
0.11549292787909508
0.11571264700498432
0.1144282235018909
0.11454850235953927
0.11416797204408795
0.11479274985846132
0.1150529718073085
0.11365642937365919
0.11220151519868522
0.11285394023638219
0.1133471925323829
0.11351068526040763
0.1139534892840311
0.11367541329935194
0.11355583406519144
0.11479361908044666
0.11516394100151955
0.11592935864813626
0.11652563859242945
0.11644778665155173
0.11695121811237186
0.11762549557723105
0.11671417612116784
0.11681031028274447
0.11535415383521468
0.11416455833241343
0.11471943651326001
0.11378789572976529
0.11310362712480128
0.11267122353427111
0.11234005636069924
0.11258647594135254
0.11293402229435742
0.1131660024030134
0.1131636164104566
0.11355741837061942
0.11259890850633383
0.11106535885483027
0.10971846130676567
0.1087246650038287
0.1089257045276463
0.10787561680190265
0.10645865644793957
0.1061923712072894
0.10477177185937762
0.10225072530563921
0.10108795993495732
0.09988133249338717
0.09718934781849384
0.09738251901697367
0.09789015950169415
0.09843089329078794
0.09870050644036382
0.10075381992850453
0.10269841399043798
0.10259175512474031
0.10155151219107211
0.10008064860943705
0.10060144732706248
0.10313009633682668
0.10448666437063366
0.10465100327041
0.10709593647159636
0.1087526091048494
0.10798418257385492
0.1068687181174755
0.108447843673639
0.10943176814820617
0.11005943296477198
0.10988152658101172
0.11168345764745027
0.1125765568157658
0.11205726278014481
0.11111939001828432
0.1093893024045974
0.11000503534916789
0.11007062443997712
0.10902871863450855
0.10926903510931879
0.10957413038238883
0.10996217851061374
0.10833680681884289
0.10667852200567722
0.10697611356619746
0.10579721240792424
0.10370781617239118
0.10197000310290605
0.10140029710717499
0.10144314066506922
0.10172467153519392
0.10145323576405645
0.10079419443849474
0.10128816745709628
0.1011549248220399
0.1013298358162865
0.10404630289413035
0.1068014752306044
0.10685887937434017
0.10819464696571231
0.10764761633239686
0.10573832449968905
0.10453218574170023
0.1043410358717665
0.10325977253727615
0.10273401451297104
0.10235449640080332
0.10160253908019513
0.10061779067851603
0.10052618014626205
0.10042828320059925
0.09916317311115563
0.0995188518986106
0.09972617956344038
0.09941562817897648
0.09901264912448823
0.09877728615887463
0.10039399705827236
0.10185270059853792
0.10196534967049957
0.10249059467110783
0.10240093464963138
0.10183071844745427
0.1025806669704616
0.10297768742311746
0.10360778972040861
0.10360550972167402
0.10401231522671878
0.10517712742090225
0.10523791681043804
0.10727275690529496
0.10909771359991283
0.10925585536286235
0.11069272458087653
0.11199599740095437
0.11284044635947793
0.11351205579936505
0.11396292388439179
0.11390125453006476
0.11418268746230752
0.11478667208924889
0.11532919263932855
0.11480248224921524
0.11386824355460703
0.11345272835809737
0.11427222572732716
0.11469999232795089
0.11450976258609444
0.11481672190129757
0.11596307263243943
0.11615799048915505
0.1155680947052315
0.11548131939489395
0.11416064901277423
0.1116053383750841
0.11036938075907528
0.11081396031659096
0.11099189238622785
0.11154173971153795
0.11170445107389242
0.10985597969964146
0.10861044221557677
0.10976634199731052
0.10910510815214365
0.10730298665352166
0.10645464865025132
0.10598697779234499
0.1042693112185225
0.10183317366987467
0.10005582162179052
0.10041735995095223
0.09907250273507089
0.09828740222845227
0.09967094546649605
0.09940756551921368
0.10099900799337774
0.10322827193886042
0.10498986285179854
0.10465764776803553
0.10592786950524896
0.10731041951570659
0.10647437017876654
0.1059747388958931
0.1060755412420258
0.10583558646496385
0.10585082747973501
0.10672488309908658
0.10719861678779125
0.10634720588568598
0.10621747746597976
0.10588852454908192
0.10689501160290092
0.10858774597290903
0.10862335468642413
0.10877652012277395
0.10863002841360866
0.10589979486074298
0.10321919669862836
0.10305985362734646
0.10170712201856076
0.10103559069801121
0.10064692381303758
0.10064742123708129
0.10157101650256664
0.10190954950638115
0.10169096637982875
0.10202648604288697
0.10287476151250302
0.10500114516355097
0.10633207545615733
0.10634101077914238
0.10828772617504001
0.10869011413305998
0.10792246657423675
0.10846573967952282
0.10821347672957927
0.1090041175018996
0.10929328341502696
0.10736007578205317
0.1082459051348269
0.10895260847639293
0.10840660931076855
0.1083290637936443
0.10771711247507483
0.10760747923515737
0.10656972086522729
0.10529853853862732
0.10395966710522771
0.10367223488166928
0.10267838466446846
0.10020715143997222
0.09969254452735185
0.09978539729490876
0.09754386110696942
0.09632807662710548
0.09595632655546069
0.09534065667074174
0.0948753329878673
0.09518977134022862
0.09473034054972232
0.09339052042923868
0.09363431495148689
0.09402886720374226
0.09431975880637765
0.09458768610842526
0.09377661153208465
0.09228290559258312
0.09179664514027536
0.09149998151697218
0.09087328725028783
0.09057904836256057
0.08983002396300435
0.09073279363568872
0.09276526920031757
0.09369329210370779
0.09318834627047182
0.09297377960290759
0.09303508614655584
0.0929292962141335
0.09238834515679628
0.09195725850760937
0.09187070718966424
0.09176554101519287
0.09103591011837125
0.09037877565249801
0.0909299233974889
0.09214939454570413
0.09387403635773808
0.09499293325003237
0.09453575193416328
0.09492956408765167
0.09474487588740885
0.09451522713061422
0.09372055468149483
0.09373908088542521
0.09187175686936826
0.0882641629409045
0.08588225294370204
0.08590803858824074
0.08385667607653886
0.083210464194417
0.08447306902613491
0.084950189050287
0.08562629747204482
0.08697704718448222
0.08785166442394257
0.08702928753569722
0.08656175132840872
0.0875755885709077
0.08815876641310752
0.08935167439281941
0.08968416049145161
0.08874836850911379
0.0884642137400806
0.08883693113457411
0.08844600175507367
0.08739234520122409
0.08667092455551029
0.08638274332508444
0.08684899376239627
0.08764726787805557
0.08794047071132809
0.08765327885281295
0.08667678150814026
0.0864345359057188
0.0870769894728437
0.08639063006732613
0.08505036598537118
0.08340883712749929
0.082472959975712
0.08237395494710655
0.08034530241973697
0.07903051328379661
0.0791300537995994
0.07848788821138442
0.07912771231960505
0.07793224214110524
0.07558550319634377
0.07575914334971458
0.07421175211668014
0.07266414095181972
0.07257539832033216
0.07338163130916656
0.07423579873517155
0.07490075576584786
0.07527382937259972
0.07545101920608431
0.07560995757114142
0.0750733083160594
0.07479983602650464
0.07424259533174336
0.07378295352682471
0.07398140599019826
0.0736231213575229
0.07321852524299174
0.07274152433499693
0.07294655591715127
0.07373024890199303
0.07341643007472158
0.07335395058616996
0.07471170404925942
0.07395114396233111
0.07434229544363916
0.0748963052034378
0.07437575552612544
0.07433916844893247
0.07481591507792473
0.07543770165648311
0.07585733885411174
0.07576068326830863
0.07540650931652636
0.07563255616463721
0.07432237213011832
0.0724164703860879
0.07177095051854848
0.07155224711168558
0.07075733141507953
0.07014775721821934
0.07100947421044111
0.07161574645433574
0.07151037315372377
0.07272669763304293
0.07218153692316263
0.07133472977206111
0.07163392099086195
0.07112545226700603
0.07024529418442399
0.06864845401141792
0.06745777174830436
0.0672969673667103
0.06660191882401705
0.06690585803706199
0.06669805442914367
0.06621329348534345
0.06604409464169293
0.0655263460148126
0.06528861249331384
0.0657478986447677
0.06619427275843918
0.06621113031636923
0.06505270874593407
0.06368469792883844
0.06353833809960634
0.062492687813937665
0.06169222192838788
0.061540155918337405
0.061474339202977714
0.06117191408295184
0.0604271024139598
0.05917275615502149
0.057546136626042424
0.05623712592292577
0.055516764773055914
0.055212505282834175
0.05468704894185066
0.05497300670947879
0.05569296132773161
0.05574373736511916
0.057120132511481646
0.05738816596101969
0.05672774896025658
0.05777573466300964
0.058121487814933065
0.058845000127330425
0.05890867669600994
0.058696350692771376
0.059495166731067
0.059864031160250304
0.05926186353433877
0.058660540701821445
0.058597288015298545
0.05842458579689264
0.05909051093272865
0.060104115596041084
0.06064735452644527
0.060180681589990855
0.06020152665209025
0.0606155462982133
0.06026659347116947
0.0606784983118996
0.06082429221831262
0.060386272063478824
0.05949745000340045
0.0589699279749766
0.05868370913900435
0.05859116374980658
0.05841558003798127
0.058065191195346415
0.05811891716439277
0.058484971495345234
0.05828720571473241
0.057316416171379385
0.05638233013916761
0.05637282970361412
0.05538533082697541
0.05497183011844754
0.054917351128533486
0.054280129396356645
0.0539548275526613
0.053355316719971596
0.052384037831798194
0.05172297081910074
0.05236832471564412
0.053013523761183026
0.05313019340392202
0.053050772096030416
0.05253080140799284
0.05196663115173578
0.05143274987116456
0.051744335349649194
0.05175769353751093
0.052079863725230095
0.052798839178867636
0.05289261987898499
0.05236657918430865
0.05217770549003035
0.052010711031034586
0.05246287539135665
0.05187865188810974
0.051060572750866416
0.05072321645449847
0.0493829281302169
0.04931427249219269
0.049928263444453475
0.05044650185853243
0.05125886714551598
0.051533749043010176
0.051372173111885786
0.052293188581243155
0.05378712865989655
0.05451867529656738
0.054027666575275364
0.0539852071646601
0.05448031734675169
0.05500372731592506
0.05520709446631372
0.054982559690251946
0.05422215340659022
0.053685129098594186
0.0538044290849939
0.053901065718382594
0.05352841361425817
0.053582085156813265
0.05456387694459409
0.054364063432440164
0.0538272882020101
0.05404794386122376
0.054130439008586106
0.054343632613308726
0.05521440690383315
0.05587855614256114
0.0558687750948593
0.05619226460345089
0.05668701046146452
0.056938119675032796
0.056767027131281796
0.056565476795658466
0.056473284279927614
0.05519181838259101
0.0543646131735295
0.05421070722863078
0.052960903346538545
0.05242042234633118
0.05177310392726213
0.05116601321846247
0.05111331711988896
0.050967879183590414
0.05083247559145093
0.05073797149118036
0.05167128599714488
0.05245114477351308
0.05266360817011446
0.05274703020229936
0.05255818014033139
0.05201955582946539
0.052496171765960754
0.052502634171396494
0.05216249784454703
0.05203798464965075
0.05187363544944674
0.05201213207095862
0.05198248625732958
0.05222657506354153
0.052727667591534556
0.053023336599580945
0.052830250090919434
0.053221310549415646
0.053549484522081914
0.05344906322658062
0.05314762998372316
0.05319934215396643
0.05343971074093133
0.053769972608424726
0.0538493755273521
0.054237435101531443
0.054456214541569355
0.0541634317021817
0.05452010445762426
0.05582199057098478
0.05651892006397247
0.05584449088666588
0.05666278052143753
0.05595904133748263
0.05471712666098028
0.05431411763187498
0.05446558040566742
0.054564272589050236
0.05428751694504172
0.054158465713262556
0.053669375171884894
0.05389579541049898
0.05408905707299709
0.05406765186693519
0.05427615482825786
0.054435366811230776
0.05441126503515989
0.05436261727940291
0.05402668196707964
0.05320605820976198
0.05254927969072014
0.05252276373095811
0.05205726814456284
0.051471931976266205
0.050946292290464046
0.05005636029411107
0.049308792231604455
0.04891076651401818
0.04929889086168259
0.04880495477002114
0.047726949737407265
0.046655352818779645
0.04659754015505314
0.04613746829330921
0.04571578541304916
0.04596062279772013
0.04651816167868674
0.046553017776459454
0.046815014942549166
0.04692945478018373
0.04703582483809441
0.04781977921258658
0.048960063476115465
0.04919492260087281
0.047891154512763025
0.047246589311398565
0.04711392571218312
0.0467937472043559
0.046842144182883204
0.04637550752609968
0.0450446300348267
0.044721124125644565
0.04499260838609189
0.04490126920398325
0.044527789559215304
0.0437142883008346
0.04280958133749664
0.0423200923204422
0.042639271561056374
0.043248836048878726
0.043341175871901214
0.04313931047450751
0.04323623602744192
0.04361324077937752
0.0434731526626274
0.04388110399246216
0.04413318587932736
0.0435464694397524
0.04317428995855153
0.04334273342508823
0.042618914903141555
0.042658051890321076
0.04306125725153834
0.04362957641016692
0.04588875344954431
0.048416889854706824
0.04797369229141623
0.049805843392387035
0.051862760498188436
0.052323634042404595
0.05209340984933078
0.051650080769322815
0.051598650263622405
0.05173562151379883
0.05125030603259802
0.050463324962183836
0.050325389080680905
0.05041062595322728
0.050156808309257034
0.05017771719023585
0.05117802901659161
0.05201345309615135
0.051926428144797684
0.05153328882995993
0.051588801965117455
0.0511296622781083
0.05046477341093123
0.05002835616003722
0.0498258608719334
0.04875846413895488
0.04783696881495416
0.04784759100526571
0.047347965152002874
0.046517201657406984
0.046079624281264844
0.046205825735814866
0.04618317358661443
0.045924458047375084
0.04651569348294288
0.047111085201613605
0.04734747728332877
0.047044922630302605
0.046536495140753684
0.04626591691747308
0.04591784242540598
0.04586461582221091
0.046047871215268966
0.046884732344187795
0.04819205618929118
0.04997672919649631
0.05110172504093498
0.051466832286678255
0.052939495067112145
0.05361748034600169
0.05318866423331201
0.05325743341818452
0.05331777253188193
0.053324742871336636
0.05291134650819004
0.05255344056058675
0.05225130144506693
0.05244592058937997
0.05294216253329068
0.05385774040594697
0.05469390510581434
0.054728957354091105
0.05406552671920508
0.05450434203725308
0.05501111922319978
0.05559283651877195
0.056179692642763256
0.05608322360087186
0.05522786295507103
0.054558375384658575
0.054682423342019316
0.05442537028808147
0.05449342257343233
0.055452957637608054
0.05692340596113354
0.058269478073343636
0.05850287442095578
0.05934391438029706
0.059897039504721764
0.05957088435068727
0.059806784577667714
0.06009964862372726
0.060654331180267036
0.061501376824453474
0.06172787745483219
0.061014625057578084
0.06088333652354777
0.061287896963767706
0.061921087289229036
0.061641284464858476
0.06280296703334898
0.06406083730515093
0.06470353383570909
0.06480294247623533
0.06514032227918505
0.06602161606773733
0.06650492109358311
0.06527708922978491
0.06525799454655498
0.06434358801692724
0.06108568930532783
0.05896074024960399
0.059033004194498064
0.056430474873632196
0.05453346875030547
0.054108308195136484
0.0546886073006317
0.05535305702127516
0.05540268474258483
0.05541441198904067
0.055718741780146956
0.05550970080308616
0.057176040480844674
0.059022622965276245
0.05893425215966999
0.06057789893820882
0.06122834051493555
0.06016765596810728
0.06073148877825588
0.061137851527892056
0.061108198002912104
0.061422342914156616
0.06152240862604231
0.06155652041547
0.06120369001291692
0.0609019970940426
0.0611123479437083
0.06117804338224232
0.06102729920297861
0.061262229629792275
0.06155762272886932
0.06237648740410805
0.06325011810753495
0.06402344849426299
0.06333762770984322
0.0629368876107037
0.06277658516075463
0.06309984798077493
0.06384909455664456
0.06454913708847015
0.06508000766392798
0.06500839587766677
0.0653005562722683
0.0649138956097886
0.06414111576508731
0.06299237399362027
0.06177933435887098
0.06166654333472252
0.060095876855775714
0.05916367747820914
0.05978741989471018
0.060013845125213267
0.06022767982445657
0.060919870608486235
0.061812555622309445
0.062068283925764266
0.062079711589030924
0.06245246442966163
0.06247851476073265
0.061654798341915014
0.0610768351284787
0.06073710092809051
0.06074821361340582
0.06019545097369701
0.0592892156727612
0.05841204084455967
0.05766604272648692
0.0580337770935148
0.05960076336283237
0.060631194291636346
0.06122109837830067
0.06287071187514812
0.06368902595713735
0.06317047243472189
0.06223044275771827
0.061559873460792
0.06143121195025742
0.06116965986322612
0.0609561371197924
0.0611424741987139
0.06161944604944438
0.06204791160766035
0.0614879684895277
0.06130077112000436
0.06212521059438586
0.063962232619524
0.06517341708298773
0.06542206109967083
0.06465350112412124
0.06462844141293317
0.0634516732674092
0.06203855074942112
0.061573816719464956
0.06196910294238478
0.06164933974854648
0.0616262653330341
0.061438951981253924
0.06153526328969747
0.06092506030574441
0.061386990738101305
0.06295990580227226
0.06346317538525909
0.06336538897361606
0.06448516793549061
0.06484589034691453
0.0649019624805078
0.06518721302505583
0.06590919658541679
0.06624838001094759
0.06609394410159439
0.06531733978539705
0.06603058169595898
0.06508236261550338
0.06337122745346278
0.06323177118785679
0.062239980194717645
0.06269173868000508
0.06485415276139975
0.06438366752117872
0.065241889487952
0.06679635246284306
0.06724423517938703
0.06701292303856463
0.06715077667497099
0.0674818140687421
0.06828534619417041
0.0689672306831926
0.06931917189620435
0.0697425944916904
0.0707397461682558
0.07147147477604449
0.07074366995133459
0.07086312018800527
0.07160483646206557
0.0733000372024253
0.07525674096308649
0.07722109975293279
0.07764962695538997
0.07751801852602512
0.07790405991952866
0.07791138756554573
0.07856666517909616
0.07954643343575299
0.08003691457211971
0.07943081334233285
0.07901479532010854
0.07956868522334844
0.08018766038585454
0.08145053416024893
0.08241375006269663
0.08217874506954104
0.08205075888428837
0.08209291105158627
0.08200580949429423
0.0825631648581475
0.08344396325293929
0.08360223338473588
0.08376253666821867
0.08454544103704392
0.08588503997772932
0.08588342267554254
0.08595985233318061
0.086145413024351
0.08616902112029493
0.08743955039419234
0.09012156305834651
0.09182644215412437
0.09077509107533842
0.08958928217180073
0.08864069782197476
0.08799864540342242
0.08658483678940683
0.0854999788152054
0.08526019519660621
0.08542618164792656
0.08694800085853785
0.08890759225469083
0.08853271470870823
0.09090092530474067
0.09385024825576693
0.09378376986365765
0.0936020277487114
0.093933509089984
0.09443709994666279
0.09328612759243697
0.09255818287376315
0.09253876132890582
0.09243585841264576
0.09240244642831386
0.09244493051432073
0.09315650667063892
0.09372123218607158
0.09297093879897148
0.09305404315702617
0.09311111540999263
0.09221357726491988
0.09173588674049825
0.09181533390656113
0.09186351648531854
0.09220787426922471
0.09275263460818678
0.09266820730641484
0.09362912942655384
0.0944308596663177
0.09455620922148228
0.09478690506424754
0.0954019810538739
0.09573047061916441
0.09546312027610838
0.09608018025755882
0.09646519386675209
0.09694467201828956
0.09803848979063332
0.09782860847655683
0.10023255109321326
0.10339542977511883
0.10414122307207435
0.10276331733446568
0.10256646830122917
0.10149814219679683
0.10027337496634572
0.10022387620061636
0.10065743002574891
0.10057795668952167
0.10030167317017913
0.09955863378942013
0.09894248467870057
0.09940718102734536
0.09985453017521649
0.09912834570277482
0.0981516785826534
0.09810533010400832
0.0972204384021461
0.09588518434669822
0.0944862731685862
0.09272735950537025
0.09063084433786571
0.0899933180725202
0.08929034728556871
0.08841125669889152
0.08900469806976616
0.08839848153758795
0.08932205050252379
0.09072987054008991
0.09089179429691285
0.09155126035679131
0.09142929963301867
0.09057042555883527
0.08963837139308453
0.0893064128793776
0.08929649419151246
0.08962167263031005
0.09061974693089724
0.09128411762416362
0.09020365033298731
0.08929587250109762
0.08925576997455209
0.08870460121892393
0.08762432885821908
0.08617663443088532
0.08632706988602877
0.08643648765981198
0.08603598602581769
0.08689112562686205
0.0867258968995884
0.08440545776858926
0.0826847122842446
0.08264066220726818
0.08231622601393611
0.08205313286744058
0.08285464187152684
0.08328821090981364
0.08365478108637035
0.0844678383693099
0.08420906027313321
0.08188443639315665
0.07984516699798405
0.07953618682920932
0.0770412370748818
0.07477042736951262
0.07437541813123971
0.07418734792154283
0.0741831782925874
0.07370890562422573
0.07520847050473094
0.07547880251426249
0.07418915540911257
0.07417721634730697
0.07431268743705005
0.0747151410812512
0.07434373817406595
0.07475638890173286
0.07549730330705642
0.07536595774348825
0.07622614230960607
0.07623922984115779
0.07662634143605829
0.07737325490918011
0.07778965536970645
0.07709350551944226
0.0769838333921507
0.07874690456315875
0.07860723661258817
0.0786557805351913
0.08119534169789404
0.08176237934269011
0.08211192124523223
0.08239067946095019
0.08196431313175707
0.0828108415240422
0.08354038595221937
0.08244764493778348
0.08083350745029748
0.08046614767983556
0.07842468421906233
0.07530403723474592
0.07301361854188144
0.07233456129208207
0.07216109658125788
0.07217503632418812
0.0730115378415212
0.07340480654034763
0.07410526564344763
0.07721405695658178
0.07890589660499245
0.08098063632845878
0.08433884333819151
0.08441405172925442
0.08526705255731941
0.08697043215855955
0.0880780951026827
0.0886862133583054
0.08874882808420807
0.08858743051066995
0.08869060599710793
0.08878642975352705
0.08909867794718593
0.08903509876690804
0.08899240630678833
0.08886996662709862
0.08839852576609701
0.08873891718219966
0.08669752799905836
0.08490575611125678
0.08468460078816861
0.08399766573216766
0.08376706977840513
0.08461097128689289
0.08512991616036743
0.08484335771296174
0.08514064302202314
0.08577198558486998
0.08496588790789246
0.08365041426382959
0.08403967063408345
0.08371357375290245
0.08437269494868815
0.08461347804404795
0.08529166139662266
0.08731725237332284
0.08823888081591576
0.08794468809850514
0.0879730487987399
0.08722432089038193
0.08618992049712687
0.08591055070515723
0.08646957759279758
0.08807754558045416
0.08907830670010299
0.08955529804807157
0.08902864194940775
0.0890191627619788
0.0891737249167636
0.08818634670693427
0.08785065027885139
0.08771142832003534
0.08790833236183972
0.08789868347812443
0.08812443293631077
0.08810300895012915
0.08780785297974944
0.08806956862099469
0.0887379190325737
0.08870232310611754
0.08685701538808643
0.08613181320019066
0.08682360666338354
0.08652922805398702
0.08650242374278605
0.08611764581408352
0.08644809996709228
0.0854099582368508
0.08549065125640481
0.08613020980730653
0.08574735844973475
0.08609118906315416
0.0863872707542032
0.08564280861523002
0.08676704189740121
0.08840163584332913
0.08709654675330966
0.08510770264081657
0.08419438899029047
0.08326274635735899
0.08113168491516262
0.08053989318199456
0.07870338577777147
0.07696205239742994
0.07769624236039817
0.07654773025307804
0.07565889408346266
0.07553947051521391
0.07539456164930015
0.07584360637236387
0.0761127279093489
0.07552331031765788
0.07488931584171951
0.07491457790136337
0.0750936424266547
0.07480595337226986
0.07386098005343228
0.07361332297325135
0.07344007708132266
0.07081153513863683
0.06916533075273038
0.06724160000216216
0.06440871878992765
0.06460057659540325
0.06351982767228037
0.06134904772043228
0.0610188032919541
0.06193926254753023
0.06387961686588824
0.06649237814825028
0.06712246444541961
0.06804705361369998
0.06990135479252785
0.06994383907876908
0.07199625369161368
0.07421710657887161
0.0753012109408155
0.07497013102751225
0.07696711570490151
0.08007148963399231
0.08262309657409787
0.08308891349472106
0.08317256883252412
0.08325821410864592
0.08371411013882607
0.08378142503090202
0.08358542510308326
0.08310904399957508
0.08273889927659184
0.08288179461844265
0.0825642928155139
0.08262427927460521
0.08206559163983912
0.08171331106219441
0.08079915143083781
0.07938490926288068
0.07869339549448341
0.07855435125995427
0.07850715303327888
0.0784326198650524
0.07862129639368504
0.07898734328337013
0.07861142800655216
0.0780066541256383
0.07661063569132238
0.07811038232408464
0.07977814126294107
0.07936429596040398
0.08005820628721266
0.08164402632508427
0.0825231241248548
0.08295997309498489
0.0831508377706632
0.08382911768741906
0.08345004162751138
0.0830298486398533
0.08398166315630079
0.08417024911381304
0.0832355320872739
0.08246723393909633
0.08298128259833902
0.08379395252559334
0.08428268367890268
0.08413005693815649
0.08561702211853117
0.08745527823455632
0.08796363595873118
0.08802892130333931
0.08756903002038598
0.08772602210752665
0.08901925286278128
0.08971881242934615
0.08902726009022445
0.09018514297902584
0.08968370085582138
0.08753817521035671
0.08693924347870052
0.08626904443372041
0.08627584983594716
0.08525124969426542
0.08460809560958296
0.0848316357890144
0.0850012736627832
0.08462404961232096
0.08417807166464626
0.08422398231923581
0.08459724350832402
0.0845850423630327
0.08445485590025782
0.08465593401808291
0.08507153320591897
0.08457344863098115
0.08617622195277364
0.08821934479288757
0.0894633532455191
0.09016886099707336
0.08997732202056795
0.08942659244406968
0.08921835392247886
0.0895752733014524
0.09005902922712267
0.08981365986634046
0.08920732212718577
0.08813852362334729
0.08824395517352969
0.08904222111217677
0.08857163986656814
0.08739983707200735
0.08564425163436681
0.08371003094129265
0.08318139073438942
0.08179463192354888
0.07959437345154584
0.0797990099946037
0.0784858555207029
0.07658895632252097
0.07513717199210078
0.07509574002586306
0.07286439471878112
0.06941472462844103
0.06699377990793437
0.06638990819919854
0.06682870498858393
0.0671029603201896
0.0673618107009679
0.06805541180539876
0.06788730676751584
0.06755404858384281
0.06773191140033305
0.06799845137633383
0.06849471437744796
0.06916274772956968
0.0689295663125813
0.06972151300404221
0.07115879674907774
0.07150284106843173
0.07090198952704668
0.07102609662804753
0.07136030573397875
0.07161170066334308
0.07188333530444652
0.07215877307578922
0.07188900769688189
0.07101995449513197
0.07099405733402818
0.06927741358522325
0.0673676578886807
0.06731186157092452
0.06686284992378205
0.0660526663577184
0.06483531390316784
0.06583961089141667
0.06790253027342259
0.06878914359491319
0.06833512456156314
0.06863859262317419
0.06762382386252284
0.06727033184841275
0.06740459410008043
0.06798218674957753
0.06759764377959072
0.06640992910601198
0.06560452635865659
0.06600095370784402
0.06467403636779637
0.06286679815035313
0.06221587136853486
0.062149622929282486
0.061960582928732036
0.06086360769812018
0.05902216178830713
0.05785427095368505
0.057664872691966594
0.056434899284504354
0.055615367540158334
0.055629613944329324
0.0555190563108772
0.055451197461225094
0.05527913996484131
0.055528183123096826
0.05555774776265025
0.05556191116571427
0.05546706434339285
0.055655957013368604
0.05593981478828937
0.05535695611964911
0.05517637137323618
0.05546684738714248
0.05542319611646235
0.05493903482332826
0.05434067262802273
0.054834380405955015
0.053364033177495
0.05143656823784113
0.050304444897919895
0.0498105973796919
0.04967497429344803
0.0497011855430901
0.04927015230525285
0.04863908474333584
0.048465325026772914
0.04895770420320332
0.04886146776843816
0.0489701521769166
0.048663298222236334
0.04851878385990858
0.04879350393079221
0.04880162901710719
0.048194834180176255
0.04756989134009928
0.04737707681022584
0.0474858016287908
0.047521336609497665
0.04729980973061174
0.04659860518760979
0.04566973575390875
0.04547774587757886
0.045987449684180316
0.046619141888804734
0.046728562689386306
0.04656972068361938
0.046614790335297585
0.04590592342428863
0.044639208456501364
0.043356119091622534
0.042672945181839166
0.042505289297550916
0.04251832315698266
0.04236046501901001
0.04194315746426582
0.041567639652639626
0.04139860623981804
0.04146508011501283
0.04064834896940738
0.03910524895880371
0.038193857413716614
0.03819982883986086
0.03797548793721944
0.037681699451059106
0.03758691256400198
0.03767733974847943
0.037424646262079475
0.03778968438971788
0.03931864347308874
0.04110059308353811
0.0410340203018859
0.04238445660565048
0.04342061423230916
0.042726021646521985
0.042672298895195124
0.04301228287629783
0.04173752216156572
0.0394168607192114
0.03790853815153241
0.038387725264765325
0.037962604770436885
0.03794146055355668
0.03767746208701283
0.03812393241561949
0.03837728604208678
0.03872891132719815
0.038452467997558415
0.038419088986702266
0.03838998306542635
0.03823947214987129
0.0381163272773847
0.037609785697422925
0.03755427605006844
0.0373279900290072
0.03743366072885692
0.03789510100148618
0.038179455371573565
0.03814793167170137
0.03833618073258549
0.03879277714993805
0.0393569241091609
0.03941001453902573
0.03987664331682026
0.040398020017892125
0.040439434782601896
0.03999008338432759
0.03957509488798678
0.039962974395602945
0.040267462604679165
0.040228467136621475
0.04214785449206829
0.04303158956579864
0.043720069918781516
0.0457439390104264
0.04635291973128915
0.04647809032350778
0.046919579147361216
0.047137140627019104
0.04723464645911008
0.047249937010928986
0.04707260227296502
0.04726031030062586
0.047219088668935004
0.04696480629034341
0.046751037198118864
0.04671235634014011
0.04667792826890946
0.04690630678087473
0.04701562574133277
0.04670449575409293
0.04591248310171068
0.04522030259482562
0.044921776195988056
0.045280259638093415
0.04544401589315385
0.045110104233026506
0.0449995290953666
0.045042904168367384
0.045110742417164146
0.04516476356424391
0.04519460161216557
0.04519585619214922
0.04475208883173764
0.04409490892197937
0.04417153879068792
0.044896572683937847
0.04521804525516927
0.04518360852729529
0.04519933328032494
0.04496671232860536
0.04456402515526861
0.04507529984228313
0.04536757193505764
0.04511369528714568
0.04482618146110326
0.04450866122264415
0.04450169631280005
0.044703435925766824
0.044773385673761365
0.04521373045165092
0.04583110979758203
0.046655238587409255
0.047632418656721714
0.048119163420051334
0.04824420958291739
0.04824335132259876
0.047893270342610775
0.047469385638833045
0.046026255870237946
0.04451606973540038
0.044617804819718006
0.04408590765669942
0.04373801748733967
0.044118142914958296
0.0434198037488386
0.043248272370547056
0.04333633608650416
0.04390382453333586
0.0442327431961894
0.04398557429201901
0.043636807766743
0.04402548278681934
0.04465636431705207
0.04477075005881488
0.04437866642605513
0.043916055439040064
0.04434207030106336
0.04478056996129453
0.045479982290416957
0.046737826317548754
0.04786026616115123
0.048081926805898546
0.048429441568441686
0.04934480043128133
0.04984694046434015
0.04984821195714176
0.04947379663120955
0.04985540776513517
0.04995318139903247
0.049307005726732314
0.049087888337671755
0.04939024347811937
0.04895992571953684
0.04853442154824734
0.04843384998384863
0.0484503318509087
0.04830973458476365
0.04773964249528945
0.04760888103861362
0.04791168040130287
0.046945113805122674
0.046638202681206165
0.04623871980700642
0.04419571273494512
0.04379710580222309
0.043484538472257556
0.04255924080498517
0.04229336813092232
0.042180966534651816
0.04186511836014688
0.041968883811496195
0.04203652987256646
0.04191435493994504
0.041886546737514435
0.04178448636084795
0.04164903711061925
0.041355632301419976
0.041200640653260054
0.04086739033460617
0.041018099668435754
0.04131023459136486
0.04172566319350153
0.042525905752554535
0.04292215735185891
0.04320236016996205
0.04373999495059252
0.044410061254166064
0.045042894831858575
0.0449015235574916
0.045388261075131595
0.046496889689005914
0.047135250265710055
0.04765493683516979
0.04855049453675747
0.04929091969504953
0.04881548415403813
0.049350828174501656
0.050871449653059245
0.051818301463499666
0.052174646528437736
0.052176401601172984
0.05150649889372289
0.05087937450036407
0.05116800261195749
0.05180739926639944
0.051872849529609084
0.051390122575685385
0.051189728998579084
0.051101432875730095
0.05090816597919911
0.050430005635134875
0.04940587586257607
0.048511743200942876
0.04831273936200887
0.048150058882310984
0.04758646226022392
0.047494198442436755
0.04759977796114981
0.0473422267800197
0.04728508017957211
0.047542476006783546
0.047078941762447354
0.0463799880631268
0.046132897841744125
0.04646387457847595
0.047170665632002055
0.048283425429835915
0.048634836184792224
0.048196122464723885
0.04913057676050812
0.05046230941545218
0.05082438753917813
0.050100905783474446
0.049854611651971935
0.05019322284962982
0.050609163381159304
0.050373254087753595
0.05029991365969181
0.049986654822714624
0.048867953387089075
0.04819765361957252
0.04891466195229441
0.04895088670309633
0.04805923561099917
0.0471914083044976
0.047245122930034994
0.04801387363113463
0.04801362910773605
0.04765563320368529
0.047686835285276175
0.04743654099293053
0.04717787586152553
0.04727706973906606
0.04737747061531991
0.04730688198003918
0.047835307759232816
0.04819035443011671
0.048118521790020165
0.04770868488121778
0.04720645408611745
0.04628277658019215
0.04571129503659904
0.04582244111225009
0.04646489241160452
0.04664572831708938
0.046894083390943704
0.04729209253098816
0.047122082626447084
0.04696777809411287
0.046922157043591144
0.046784801706671715
0.04648113151546568
0.04633629847317934
0.046590839819982646
0.04755854195915163
0.04830286365468055
0.048298289868980646
0.04853027540724725
0.04880409989971667
0.04834230494685471
0.048155800607055425
0.047676310120150445
0.04695568712428212
0.04648519962560385
0.04622530039399862
0.04586207596119493
0.045296222059987484
0.045019692787900564
0.04560869699344039
0.045395582518540326
0.044358774656429886
0.04348597312346101
0.04306063246447593
0.04246110489591956
0.041619646539911626
0.0413833038136363
0.04072287163231522
0.03967224980704486
0.03873936235439032
0.038752263602800666
0.038904259996488694
0.03902762664481998
0.03900675287935883
0.0386233135079965
0.03807879412081092
0.03776240250095725
0.03773065413348377
0.037704564756713806
0.03785832504741848
0.03766863252967596
0.037672220985405146
0.0378728315513581
0.03781067708041519
0.037524570757523176
0.037558682258240876
0.037640461353585127
0.03784673778805882
0.0379786549275741
0.03800067596603185
0.03776077489368618
0.03755405017640442
0.037343238578177985
0.037635603216476736
0.038563924445770684
0.03898451563902199
0.03851976943667978
0.03770165112800896
0.03732576797716319
0.03753176942002028
0.036346930456347765
0.035124238105490806
0.03459359001368284
0.034897871348075565
0.034636630374006924
0.03383902733679861
0.03332299481611699
0.033219578564167025
0.03281725823413581
0.03297847410198301
0.03399157800711691
0.034014689833857116
0.03404031557030976
0.03520315912552178
0.03614107310771942
0.036205476089380684
0.03583654313813895
0.035080624017864465
0.03482829107902944
0.03524563423357904
0.03583285843487829
0.036232669139280915
0.036261316663585605
0.036784186768345536
0.03769278544932604
0.03822619263548404
0.03770839868113399
0.03784792565274984
0.038444809727370736
0.03884561509359628
0.03886377565562725
0.03897156476508826
0.03860777882859111
0.037998073771595954
0.03751744721550494
0.036941619124263525
0.03654196603689343
0.036394419334828856
0.03634316736832261
0.036470924820750955
0.03676658642943949
0.03722572551574558
0.0378226831369102
0.03814414513297379
0.03784433875232935
0.036982954805716874
0.03602510224562138
0.03598543222993612
0.03559387656860054
0.035457586129195987
0.03558125997427851
0.03553496607113629
0.03600995048414916
0.03653159135952592
0.03650338155217469
0.03635545620229095
0.036359986807219684
0.036197787215933204
0.035843738475814464
0.035370911830104886
0.03519684405531734
0.035209712884388865
0.03529677338432521
0.035493385465815666
0.03556036815512925
0.03544198983348906
0.03534663550555706
0.035314640714786946
0.035694853169843554
0.03680204120930284
0.03708158510737121
0.037297105845063926
0.03848836455494165
0.03905983870383352
0.03943254560232162
0.03987356565427035
0.03990783226210624
0.039845516411587595
0.040132380924187604
0.04068326739128679
0.04116129548754543
0.041008430682122704
0.041162798497825864
0.04155402349308133
0.04195151534397155
0.041759641813114284
0.04184927165042609
0.04179249494802207
0.04156289447564632
0.04158014555927366
0.04171121443621814
0.04151894697919488
0.04135543627198786
0.04153332764282822
0.0415412613004446
0.041445933626964686
0.04102024708408862
0.040553960730321706
0.04019862356595695
0.04035399309359491
0.04069506376516074
0.04089895208366215
0.04086370417848229
0.04050382609013468
0.040524174273014066
0.04047575120348483
0.04089124031364918
0.04101566798519343
0.04106083765160293
0.04092873812187463
0.04056251780129969
0.04076598677318543
0.03998737072572112
0.03850279020611197
0.03799548064358532
0.038200144162401556
0.03807458657771349
0.03816461557056755
0.038189182542264465
0.037949473005719485
0.037613335573114456
0.0375809316476807
0.03830672412645072
0.03833884922321886
0.03720658403821289
0.03699585580267012
0.037496554087847474
0.03725959420204163
0.036711332825943827
0.03635838347952813
0.03598161461763084
0.035776754459366206
0.036176349120214585
0.03697880048304796
0.037490092162042854
0.03759766784030944
0.03831673535984009
0.038754497743211686
0.03883235434535891
0.03910745994187891
0.03913420626427978
0.038725379426032304
0.0386549069872126
0.03880319875665009
0.03883966480847448
0.03922048219013959
0.03957352774683386
0.03969230457674712
0.03987364446744323
0.03991421205922961
0.04005100927781314
0.04036433089058846
0.040143331005237995
0.03933263699989766
0.03910791433416307
0.038922166023403405
0.03894273758400232
0.039106711810454726
0.03900715405587107
0.038850295785814525
0.038809498841874304
0.03864818355999887
0.03903783905319869
0.03939730774145574
0.03946003751829266
0.039325194545090196
0.03934439793694764
0.03914734771009534
0.038565538823604584
0.03744565261527896
0.03694691487587989
0.03671779348049313
0.035545662213116884
0.03492677525151521
0.03458738915156573
0.034277137303724885
0.034520381931215524
0.03466414146590978
0.03435773781035095
0.03363758466672152
0.033220422780141236
0.03331536408513784
0.033064121957868335
0.03275852844119072
0.03237306258175522
0.03257306731771678
0.032591178002767264
0.03242509697098285
0.03274150829296559
0.03315978125203401
0.033446580138988796
0.033598707402125
0.03353593394160271
0.0330858900398016
0.032529008546844124
0.032443277295678856
0.032795448349788786
0.03286173413041979
0.0332037442876026
0.03348416200838983
0.03360831178724766
0.03341042323503643
0.03326021205168218
0.03351001797709614
0.03363517960999161
0.03374658492859453
0.033711477927863595
0.03394614462740719
0.03354419492650777
0.032708607944659886
0.03223750564735383
0.03208883004263043
0.03215802468825132
0.03198162809479982
0.031614309111610055
0.031351847290061415
0.031236510225571692
0.03118714192416519
0.031032861643470824
0.030783245423808694
0.030420009247027337
0.029788145311176777
0.028990637115202843
0.02856230977922678
0.02856241784058511
0.028889797241427005
0.029161571473814547
0.028913804590702058
0.029627778613939882
0.029892226359806956
0.029918183656409383
0.030057457089424134
0.030088593950495124
0.029654300403781236
0.029285224401392043
0.029490726236253977
0.02890414255205542
0.028373202765360473
0.02833705040626228
0.028199113947339358
0.028464991725049914
0.02879326690454036
0.02852893375325948
0.028823498799465597
0.029253826034255324
0.028777970783412456
0.028597954264841973
0.028438338772393764
0.028237526011653243
0.028148581916466357
0.02800335711799562
0.027619269387796522
0.027353194882161914
0.027305006734095513
0.027520647225901484
0.028431861326098443
0.029154928186908364
0.02936095813754946
0.029319599168375135
0.029587354552932085
0.029405640652403236
0.02983354282565415
0.029771257569082082
0.0289612226607278
0.028753330050967633
0.02872179831843823
0.028872389001771807
0.029032546812668442
0.028921610675752163
0.02923282559029758
0.029670399762690067
0.02961396037135273
0.02976608943194151
0.029972552210092544
0.029984462037682534
0.029752188585698603
0.02984634301159531
0.030209168270230295
0.030499974065460265
0.030848378567025065
0.031213552565313874
0.031453856071457266
0.03132320522796363
0.03128318916540593
0.031478519034571946
0.03126813969574869
0.03130308332853019
0.031749892574734984
0.03185264302417636
0.03172775704413652
0.03160465373191983
0.031425188332796096
0.03189630401786417
0.03279074162710458
0.033141541038639845
0.032586588133126496
0.03264755567535758
0.03299213308375329
0.03268349602818489
0.031947619644925
0.03148591185454279
0.031408944693394
0.03142092507332563
0.03125452163629234
0.031053671138361095
0.03181252554990351
0.03253318492788822
0.032743322877213356
0.03280669373925775
0.033314231825061144
0.033387297680601474
0.0332577179512009
0.03326391151174903
0.033343762448057535
0.03403566861525178
0.03468684124294669
0.03459195756353438
0.03484162824228406
0.035084706870839
0.03555945621803403
0.03674112327862531
0.03790925832465291
0.03850420182570815
0.0386097870580852
0.03868539529386908
0.03815305770374835
0.03783337499480695
0.038146595479920505
0.037371138902381064
0.037041788366623224
0.03704454794060439
0.03723379179369658
0.03715938370674848
0.03693627354223281
0.036594094024039805
0.036302276467904446
0.03599777640309185
0.03597224206198007
0.03598967511672527
0.036307731568813326
0.036900001531466844
0.03745390650816262
0.03726147856097668
0.03674207595642656
0.0364743883581832
0.03707955674733967
0.0369678052701056
0.03745793521404266
0.03805228938348591
0.038123093866743146
0.038020587754435835
0.03802071250043809
0.03798995077610016
0.03813087916001678
0.03789200159721076
0.037119776103645565
0.036410215203650294
0.036296065226197244
0.03648262003902346
0.03608813814818859
0.036048570405691864
0.03565423898398876
0.03519145733676851
0.03529081022832543
0.035044819251634184
0.03535133118275553
0.03578472034074366
0.03605281694792211
0.036480251429602505
0.03662127309013158
0.036116050640121106
0.036234694458544256
0.036802922147326174
0.03755496295634657
0.03787546607665718
0.037957563996315
0.03789340041577816
0.03748598598875105
0.03714466584846377
0.03690569442696869
0.036652254033833744
0.0367474708147347
0.037406504466198386
0.03762982631102205
0.03757979706395417
0.0378575231693685
0.038077065609395506
0.037943628719076514
0.037502870387397705
0.037632829770445825
0.03797657480929047
0.03804290032945573
0.03795989605598152
0.037170748212374746
0.036245262511074544
0.03614336518105119
0.035767006361857055
0.035469506424851714
0.035227111093699935
0.036484887930564584
0.03833366730716079
0.039242894244380294
0.03941301898099482
0.03973731558769941
0.03962899294681847
0.039355368479155
0.039861292694695294
0.04089008276350796
0.041370088756084444
0.04101725021377206
0.04076841304078698
0.0408404530538246
0.04163359041325748
0.042576921419240535
0.042183704888448116
0.0415404263837263
0.04147801707033068
0.04116059929598123
0.041008155564777556
0.04065944753587246
0.03967167085967958
0.038653015168383716
0.03793029098771512
0.037544947853311895
0.037695046309381725
0.03816301654092968
0.038572624805383385
0.038669763142243026
0.03905596371274442
0.03966345313005149
0.03976626218762249
0.039930365481413904
0.03996487854514271
0.03970784931909293
0.040067748269066214
0.04035425619687885
0.040361247574910525
0.040532431337051096
0.04106882034335285
0.04072269705124199
0.03982183978892863
0.03946906438097358
0.03958590126596391
0.039922949066385625
0.040775413513183596
0.04084061956033111
0.040820988495834175
0.04062929994426668
0.040050602485425774
0.040407182262279094
0.04107191503047943
0.041342781726270914
0.042056263010017574
0.04371897779870779
0.04529456731397659
0.045695916269905865
0.045869723400101065
0.04601908438839018
0.046285335654392835
0.047103456929326055
0.04781167358160019
0.04807944632135332
0.04804849982727319
0.04812358635477722
0.04838653755839914
0.04817033735103905
0.04778918550349772
0.04782530362717807
0.04786809445824474
0.047415403011254964
0.04754055635072291
0.04768332317471504
0.048041645283810795
0.04794104957953096
0.04757132476661354
0.04834830854088068
0.04925616829190403
0.04992707548197359
0.049920744001865386
0.05049829995725304
0.051002438585273924
0.05094337114132941
0.050405256520025435
0.04997228424530476
0.04983784996904433
0.049734435342252255
0.049772047316655514
0.0499414143525064
0.05002771289087832
0.04996999400202185
0.050204014144837855
0.05098736968357116
0.051048020911403
0.050702640670351684
0.05075461409054696
0.05092683575116098
0.051091309464536605
0.05091788747347891
0.05110005746595561
0.05074460892006755
0.050414149616844955
0.051010925294831394
0.0516613739868626
0.05149089916609228
0.051419213907793165
0.05088009603321552
0.04974890135228634
0.04914349666330963
0.04980970917735249
0.050223236288875345
0.05040197122376412
0.05097351519856602
0.05067011089995503
0.04984272182453424
0.049644815032370386
0.049875488956458866
0.05049423463176936
0.05129422872327268
0.051826203553937376
0.052058700984343884
0.05335563845001161
0.05468872867990285
0.05493822291027754
0.05591096367221326
0.05650989784393459
0.05609709333628416
0.056061886637471615
0.05575487132649869
0.05595421464182437
0.055632802597247066
0.05563320560380816
0.055315767815336585
0.05511858688201755
0.05583904161117971
0.0564418033324182
0.05703000139910728
0.057531895325519146
0.057187860454432665
0.05683762700296938
0.05651277080178261
0.05651493729092181
0.0559312591329217
0.05644654295872897
0.05667488070670515
0.05581378211732954
0.05545800808817148
0.05591298713348806
0.05569219074677676
0.056141903619281945
0.05614786739926785
0.055808734921738504
0.0568446722952649
0.057394546461291614
0.05625468473881483
0.054857806004583835
0.05438772311899811
0.054700771658681334
0.05542391158174723
0.05561152157373726
0.05478340346831828
0.054101551808416845
0.053957851827144625
0.05421915017534047
0.05414304283447564
0.05452416670508683
0.055061667934060095
0.05490342467091978
0.055134112355299296
0.05527947987895459
0.05521974764764309
0.05566075130365789
0.05625677159521729
0.05622875995002687
0.05648671504110098
0.05701639918610454
0.056161358496174214
0.055324235591106115
0.05461117946077138
0.05508991262409836
0.05531446523498744
0.05499440223909915
0.05509347969200462
0.05554443903267384
0.05551685547456145
0.055481860917061566
0.05579117517452687
0.055937720262445506
0.055553415510803464
0.055969656496308744
0.05642330818809569
0.05625262839719653
0.05543385367374867
0.05523890158627182
0.05549082180485129
0.05552299888804555
0.055559234977699816
0.0557938720844686
0.056102379565127196
0.05586486682295799
0.05487730449996889
0.05332036637235433
0.05197959657292813
0.0514067005738616
0.05133435727097094
0.05134898030664772
0.05151017253752798
0.051109151942655445
0.050251987841911615
0.04961600738577545
0.04994870281778276
0.05035982439294458
0.04971493864897639
0.04910592258442193
0.04898365216329694
0.048793323012068866
0.04857604655437171
0.047919449703767894
0.04703947657719255
0.046475769407115876
0.04617847917601466
0.04507849725428969
0.04428748985286802
0.04442187336273491
0.04356720817741007
0.042900292547419665
0.042795577417127785
0.04249668911565095
0.04265952830202877
0.04246045704465359
0.04289455424528569
0.04341604731045663
0.04344309066887945
0.043233803203329445
0.04258384158834815
0.041923934863880276
0.04096257462631911
0.04113299510907382
0.042032703212462365
0.04187138630542904
0.04235375118907541
0.042128078043460845
0.04300713827367872
0.04310808325652033
0.04247444722335786
0.042327808844856915
0.04232073502615094
0.04245211189147085
0.04295688334852457
0.042719272300601005
0.042132902638986704
0.042002587546594444
0.041566293234936894
0.04190617875661701
0.04274750422686338
0.04296044227201492
0.04304142671637237
0.04269212745130062
0.0419248835509643
0.04186704980675131
0.04254823243245483
0.04277819125447422
0.04269214606843889
0.042721499744802716
0.04292709952220321
0.04264432360883802
0.042674210481345655
0.04337932502385229
0.04258131837006658
0.04252137024421245
0.04326853200327605
0.04280157551169395
0.04183734498918056
0.040971202147193256
0.03990673912223428
0.039758071587421
0.03999595676548779
0.04026819138787687
0.041144268177449705
0.04087818085215986
0.039973602811805904
0.04015509648714215
0.04100590096786618
0.041448735906742515
0.04165096126031131
0.04271631943527609
0.04302543784957379
0.04242322811856866
0.04246682807337493
0.042012351928278804
0.04112360113766044
0.04051861813291907
0.040450542350299656
0.040520107178017496
0.04099983109161258
0.04151135238353163
0.04173917454667389
0.04182941464241594
0.041751447776332495
0.042099422914907335
0.04292925058864057
0.04352588164620101
0.04350129549857229
0.043164838519878686
0.04322805159259588
0.04370596213731915
0.043798865522257986
0.04384963462129235
0.0439174941368401
0.043482024362310766
0.04303383998572827
0.04327423851005733
0.04405186410527676
0.04450664523523301
0.04438608518335968
0.044445248413831
0.04429041115567088
0.04457573294173926
0.045548469084315
0.04625488864723593
0.046706750080920754
0.04738557159435004
0.04672874689567834
0.047089382112026214
0.04729208126664162
0.04872585218399763
0.049853727770969275
0.04940197083633393
0.049282225877977905
0.048995870989747344
0.04825794831849635
0.04798205464147031
0.04847495569381863
0.04895239716861397
0.04899893692694604
0.04896765808574855
0.04940611486323178
0.04902583981398493
0.04842752439901233
0.04860155899077654
0.048253191225230696
0.04819156008306891
0.04737408516928553
0.04688966057263315
0.04717018825467676
0.047344046174548564
0.047011105325073
0.04636678260751068
0.045835583838634196
0.04555662727449089
0.04587791678495705
0.046146129965782164
0.04562944137491286
0.04415250551886857
0.04280401023104787
0.042797192437574266
0.04346414165571332
0.043462502560578285
0.04322976564057171
0.042717577265575526
0.04253579611890018
0.043174242498353124
0.043814642373472455
0.0436051192926243
0.04411248608492315
0.04452234788797796
0.044009043369442225
0.04361252974718809
0.04430132846813649
0.044294981872662904
0.04385063643101603
0.04358536522369832
0.043442029203288254
0.04343403549399227
0.04453060964122415
0.0454614193784073
0.04571276543661952
0.04544952587690204
0.044947483679279684
0.0449707787996158
0.04550918566994369
0.04561066674534232
0.044314462007023395
0.04362675240263343
0.044035345832817256
0.0448600825946778
0.045426670010201634
0.04595752498134971
0.047301731971092525
0.04792100172955543
0.04810803367290646
0.048390772468410434
0.048752165269106626
0.048814664301462474
0.04839097607880831
0.04821563263423741
0.048243055483326316
0.04773257878609002
0.048038696818985045
0.04802020516246557
0.04760252318810672
0.048030564640648664
0.048677157592028376
0.048677956121973696
0.048888777736574414
0.04877146729733795
0.04874325215350837
0.049139841576106846
0.049509727912954986
0.049390227971598505
0.04953798735514283
0.04925594126340002
0.04838885027449578
0.048243417553603646
0.049195150122977795
0.04979866058100015
0.04983776837121695
0.04989173945505172
0.04915838377550244
0.04876420984044671
0.04907835622318089
0.04892232695128769
0.04924330864101648
0.048881060858257115
0.04937427136581391
0.048455148842185734
0.04713101669214666
0.047943188967183234
0.0489450313616544
0.049463778412900866
0.0494288997258991
0.04941082795150578
0.04874992407392711
0.049135522595606745
0.05029079832602292
0.05034731893800199
0.05099861534778029
0.052070320430211724
0.05219824359286576
0.05251901885960251
0.05302026928868145
0.05316096392460167
0.05308789983857423
0.05287688571494073
0.05259420915972442
0.05239588945172727
0.05242184782400727
0.05243655570782721
0.05242052998859435
0.05299358901567757
0.05341549665201455
0.053104751585051416
0.05322204845957458
0.05348039681557566
0.05333251662552357
0.05296270646620542
0.0524079775204882
0.052142333774827423
0.052380948485806586
0.05305577205028385
0.05265544209629297
0.052996864379383626
0.0542258759168908
0.0547404882311821
