0.010361370972823351
0.010478517815936356
0.010493429447524249
0.010544691989198328
0.01066440314752981
0.010703986557200552
0.010597057763952762
0.010497165992856026
0.010521852928213775
0.01061001324094832
0.010650547582190483
0.010576378293335438
0.010436413874849677
0.010349019984714687
0.010344510541763156
0.010393091733567417
0.010474252437707037
0.010557780156377703
0.010651054698973894
0.010770685498137027
0.010848056050017476
0.010809920795727521
0.010699596081394702
0.010623709729406983
0.010587239714805036
0.010469778208062053
0.01024373064050451
0.010071518146432937
0.010067213149741292
0.01012745062354952
0.010101744832936674
0.010011593580711632
0.009996869198512287
0.010066346579696983
0.01009155774489045
0.010106008111033588
0.010262465015985071
0.010472502761986106
0.010536575962323696
0.01048830040032044
0.010447237540502101
0.01040666781598702
0.010362597731873393
0.010402074274607003
0.01051637482829392
0.010528030490968376
0.010405861856415868
0.010374859990552068
0.010481832397636026
0.010490933735854923
0.010369065692648291
0.010327738942578435
0.010380224166437984
0.01035510828718543
0.010266591385006905
0.010288362675346434
0.010426352568902075
0.010549601332750172
0.01062473026337102
0.01065691065741703
0.010643189100082964
0.010656988071277738
0.010720497833099217
0.010758964261040092
0.01079461982473731
0.010874789990484714
0.01091489350888878
0.010890053287148475
0.010903950587380678
0.010945153790526092
0.010888965465128422
0.010763513119891287
0.010728736154269426
0.010779685308225453
0.0107816171948798
0.010759053817018867
0.01080538785783574
0.010859187275636941
0.010840370203368366
0.010798409744165838
0.010827832496725023
0.01094901533331722
0.011041120635345578
0.011009883196093142
0.010975412167608738
0.010996572277508675
0.010929542153608054
0.010808617079164832
0.0108357602218166
0.01096537711797282
0.010986789010930807
0.010876120936591177
0.010762163917534054
0.010693859823513776
0.010634083549957722
0.01059885581023991
0.010623838342726231
0.010652644447982312
0.010631578187458217
0.010608777573797851
0.010605326388031244
0.010565960744861514
0.010509011051617563
0.010520657214801759
0.010557964439503848
0.010469637857750059
0.010279537388123572
0.010177803204860537
0.010192690142430365
0.010201060494873673
0.010168324206024409
0.010120603365357965
0.010079676422756166
0.010070459567941725
0.01005197144811973
0.009987746893893928
0.009934569073375315
0.009900656421668827
0.009826769984792918
0.009756446073297412
0.009801020827144385
0.00994795696809888
0.010060304505750538
0.010064491799566895
0.010027976036071777
0.010053280077408999
0.0101599967549555
0.01027347963070497
0.010323970904573798
0.010332605075091124
0.010336190592497588
0.010289594545029104
0.010199399292469024
0.010173997324891389
0.010193138942122459
0.010160366825293749
0.010128411392215639
0.010152596677653492
0.010171524572651833
0.010164553704671562
0.010198797441553324
0.010304962764494122
0.01039663157891482
0.010384269207715988
0.010342625204939395
0.01040371999144554
0.010528540378436447
0.010583777169231326
0.010581861981190741
0.010624024353455752
0.010692218737676739
0.010720372188370676
0.010739117928314954
0.0107937416061759
0.01088383023161441
0.011022515730001032
0.011191767244599759
0.011306866495870054
0.011327245079446584
0.01128992929123342
0.011246258937753738
0.011237520300783217
0.011263873411808163
0.011302066536154598
0.01135253327898681
0.011391050976235419
0.011418020164128392
0.011531332873273641
0.011708554127253593
0.01176840539323166
0.011712940195575356
0.01170973583124578
0.011783702985849232
0.011855900331865996
0.011887011935468763
0.011841679273638875
0.011711978332605212
0.011574315286707134
0.011513111656531691
0.011525817306246609
0.011537517164833843
0.011513956922572106
0.011502376818098127
0.011528786562848836
0.011570449431892484
0.011590213170275093
0.011553269820287823
0.011489506482612342
0.011447576526552438
0.011429958024527877
0.011427617319859563
0.011395908962003886
0.01131498938659206
0.011264948630705476
0.011273081705439836
0.011264455902855844
0.011217946985270828
0.011173392948694526
0.011123643913306296
0.011052177685778588
0.011020716452039779
0.01105259312549606
0.011031062714755535
0.010888193426653743
0.010715203874278814
0.010593707009684294
0.01051059995777905
0.01043680932605639
0.010384101995732635
0.01038861105684191
0.010434159487485885
0.010443944190628827
0.01039021807955578
0.010306308555882424
0.010200159677769988
0.0100971829588525
0.01003950841492042
0.009976864405907691
0.00989704460138455
0.00991826678160578
0.010039003891870379
0.010089479368180037
0.010002812256570905
0.009893609629943966
0.009876327966339886
0.00993833259679377
0.010018455625977368
0.010106411951128394
0.010180882683489472
0.010176012616138905
0.01010794119676575
0.010066099201794713
0.010049650815781207
0.010004183435812592
0.009959919648244976
0.010008304559160025
0.010145894549787045
0.010225606027524918
0.010198990383651107
0.010191483700182288
0.010240874201990664
0.010281829563900828
0.01029342375928536
0.01027573718689382
0.010235940518323333
0.01018842305522412
0.01015081545803696
0.010178794607054443
0.010307050542905927
0.010471936753019691
0.01056775767588988
0.010585278831422329
0.010636851484887301
0.010759065414313228
0.01082140700193122
0.0107606625626795
0.01070858010556549
0.010770684643648564
0.010866843324620276
0.010882050909567625
0.010852354841772468
0.010891063399612903
0.010982328599784524
0.011022095885127783
0.011029779820237309
0.011088304102886469
0.011160900958348065
0.011160169139038771
0.011077486805152147
0.010993357473053038
0.010998948023188859
0.011077208400238306
0.01114261094480753
0.01117419874528423
0.011212228094227611
0.011282223628368228
0.01132766970200464
0.01124605942517519
0.011079757674597204
0.011001368928700685
0.011044467370957135
0.011098706505727023
0.011103373738005757
0.01104475826723501
0.01091657395940274
0.010749598077964037
0.01060093923471868
0.010516363277565688
0.010444623271469026
0.010296177649870515
0.01014970233431086
0.010149668627418578
0.010262694754637779
0.010354119599796832
0.010386653386522084
0.010434191678650678
0.010531487236730754
0.01058646961580962
0.01050259300507605
0.01032562951091677
0.010209837849251925
0.010238295288290828
0.010311229983344675
0.010330693994183094
0.010384313268586994
0.010498119201511145
0.010495400070212782
0.010347992756869644
0.010256534004583954
0.010291048230137677
0.010318549538496882
0.010266354822088033
0.010218352780211716
0.010242694839835167
0.010276572327129543
0.010242169960401953
0.01015608209418133
0.010098099934402853
0.010139857209287584
0.010219934529159218
0.01017206850927323
0.010004803747870028
0.0099003462260589
0.009924454835709185
0.009992453393060714
0.009986530768219381
0.009898741249926388
0.009926796958316117
0.01015347379958257
0.010374014766421169
0.010482845348306
0.010574802251067012
0.010680701930541546
0.010743594479281455
0.010751944682560861
0.010787995555438102
0.010921057928353548
0.011076239796821027
0.011175369604025036
0.011286068111658096
0.011423841195646673
0.01146966929314658
0.011403052716050298
0.011342471831012517
0.011342473470140248
0.01132059276336804
0.011202333292458207
0.011050831151660532
0.010964855439960957
0.010929177834186702
0.01086417883867398
0.010745293227955699
0.010645479352679104
0.010621917985845357
0.010596253834664822
0.010551223747897893
0.010613499833270907
0.010748378487769515
0.01078662307234481
0.010748174397740513
0.010773312442470342
0.010867196070030331
0.010922519029118121
0.010900593076366932
0.010840338415000587
0.010742324085440487
0.010627621624153108
0.010579033987596631
0.010562484392430634
0.01049044708488509
0.01043820563936606
0.010480843959376216
0.010550656800623982
0.01056610673898831
0.010495990302879364
0.010427503890823572
0.010473706678021699
0.010500925166998059
0.010336428191512823
0.010094046259764582
0.00994820544263348
0.009919202611781657
0.009972156323492527
0.010094032497145236
0.010241200032178313
0.010276351841166615
0.01013644933933392
0.009995964604895562
0.009998246086761356
0.010010559356305748
0.009887808808125556
0.009723361495416612
0.009658743019681424
0.009668148113414645
0.009661609514150769
0.00965991335688159
0.00973901888821274
0.009869362325407565
0.009964737750124186
0.010027035977691412
0.010079045132733881
0.01008730023400858
0.010055494047701358
0.010043698651716114
0.010066093585919589
0.010059413560666143
0.009989049735013395
0.009910957757383584
0.009872362320311367
0.00984592448687181
0.009799438258633018
0.009761505594942719
0.009753728206269442
0.009731027560774238
0.009709240591619164
0.009782695309258998
0.009906123988330365
0.009936025948263705
0.009909995843190699
0.009949757386930286
0.010012473613023758
0.010026256109122188
0.010018555880524218
0.010005191056989134
0.009965810989961028
0.009893531913403421
0.009824851739685982
0.009823510635178535
0.009907511167693884
0.010067460357677192
0.010278654815629125
0.01042090217815712
0.010384169698227197
0.010229355248156935
0.010095852727536112
0.010078952140174806
0.010170335855800659
0.0102436663210392
0.010218959674239159
0.010165052148513496
0.010169345464091747
0.010218590162694455
0.010240276532713324
0.010236879342701287
0.010290223986376077
0.010388638922013343
0.010421744659543037
0.010390545779373497
0.010415760183241219
0.010525761044118554
0.010631061950698495
0.010689689193386585
0.010730556612834334
0.010742612560279667
0.010695365278515966
0.010645155415404587
0.010665709138847887
0.010716736156027765
0.010727995405904949
0.010723012222442777
0.010728632756508887
0.010701311789453029
0.01065186779247597
0.010665383855812251
0.01074817067477852
0.010849278520327061
0.010968988563399762
0.011081266601104289
0.011112941545434296
0.011079676302615553
0.011057331170886755
0.011021421488840133
0.010894707976840437
0.01074023734079674
0.010720188464038074
0.010844239424914122
0.01095027148956433
0.010962470937520265
0.010959911076352
0.010945684926118701
0.010799430096521973
0.01055280069122091
0.010410212790593504
0.010442614504136145
0.010538080481346697
0.010562641776632518
0.010467388504184782
0.010360889676958323
0.010375270303338766
0.010475475292187184
0.01055761647876352
0.010608399603515863
0.010670350627042352
0.010730866566300392
0.010707115156110376
0.010611059062648564
0.010590169746428728
0.010666317853610963
0.010711610415019095
0.010705623207613826
0.01071938311913982
0.010741459580603987
0.01069618529174477
0.010596457123756408
0.010567935269791632
0.010607283818535507
0.010527107242960482
0.010314700338058173
0.010184320085681976
0.010213388998527079
0.010297525450587272
0.01035585381090641
0.010369405127130448
0.010357443252578378
0.01035644565243274
0.010361677987966687
0.010334256584756077
0.010277313925325871
0.010228832957800478
0.010193416536785661
0.010156064364127814
0.010130606566090137
0.01015905622858554
0.010262823523953557
0.010372088267467916
0.01036797370761633
0.010256646466441453
0.010165368372108788
0.010117733438964932
0.010052217436023057
0.010034196707420052
0.010135459932498633
0.010240714992396533
0.010230362263973803
0.010161467783618719
0.010166785265319049
0.010289272721856833
0.01041112477891147
0.010404299418441952
0.010324728193227202
0.01030180498957634
0.010350750263314694
0.01039572610054165
0.010373308195266873
0.010304478884208948
0.01022522351006046
0.01010384585475549
0.009975336971692741
0.009915351413656025
0.009844797959085555
0.009677555505186319
0.009516592111904174
0.009502273404505103
0.009598297215998173
0.009667487803380937
0.009733258266933262
0.009906794840935618
0.01010498194489628
0.010162371438927948
0.010068805089686066
0.0099276475305669
0.009852591112721711
0.00990710054524243
0.010041703744791448
0.010107731479220092
0.01000751536572352
0.009846181611064821
0.009797153691761196
0.009847965976223349
0.009889082300942391
0.009929334269836545
0.010021081860177219
0.01012130338465795
0.010130870214197785
0.010028611277230084
0.009950277546886354
0.009999182785395532
0.010071661188267172
0.010081606672611088
0.01008328731637448
0.01005704176845029
0.009922395865432919
0.009767979264725
0.009762333212420345
0.009857457389589399
0.009848724170587957
0.009728611207101494
0.00970571352634579
0.009841773272491992
0.009974452352616936
0.01001884147990495
0.01003757621627301
0.010069693452678621
0.01010539760813117
0.010123104366939514
0.010128356183413416
0.010158630178775638
0.010178492374252527
0.010168707855045795
0.010243986006826163
0.010444897399283946
0.0106428750208579
0.010726706522982568
0.010703518567606807
0.010631504161283374
0.010521248413715512
0.010372484850231558
0.010252403672784566
0.010219904736150056
0.010243971883319318
0.010242288969457149
0.010173655229154975
0.010053872307762503
0.009893776911776514
0.009739751056768
0.009696488473564387
0.009780647463630885
0.009886086503975093
0.009952289105858653
0.010000887510832399
0.010036095739342272
0.010058211754076183
0.010072481383103878
0.01005439652595669
0.010010538899805396
0.009982315585948526
0.009972541623283178
0.009975485366303473
0.009997290149331093
0.010022226036526263
0.010070507158525288
0.010203385434579104
0.010378017034381628
0.010427043489180506
0.010298742707818746
0.010191864727530628
0.010250388090498745
0.010324668856337666
0.010282862258609384
0.010204823068343104
0.010131363519467413
0.010031592873856425
0.009943669005297124
0.00992589901899919
0.010002679422032089
0.010118542499840259
0.01018244686536491
0.010206990067381412
0.010213627808261662
0.010154908772092313
0.010075871201697737
0.010077208261936903
0.010117642788682133
0.010094532161019742
0.010047288939822464
0.010106506305746735
0.010273595149628818
0.010405886417720467
0.010428832520265132
0.010412344266660512
0.010443548860494048
0.010510687234345823
0.010552114555612207
0.010584839121438563
0.010658565415069461
0.01073387051001191
0.010736252421047539
0.010688557799439877
0.01066612479276955
0.010665587992407381
0.010640272260643542
0.01057458441471681
0.010498862483073025
0.010488483894150705
0.010554946162737906
0.010593100539408625
0.010546003701165318
0.010462176268920303
0.010380112770944834
0.010339976190589368
0.010385298461187631
0.010446499516256154
0.01039948474848643
0.010290848584845661
0.010296410529408604
0.01039751827949658
0.010414350719656795
0.010342400188092142
0.010283620522823184
0.010237715542316436
0.010192966926842928
0.010171292535960674
0.010172055687289685
0.010167589711491018
0.010120502491481602
0.010059529237914831
0.01004831664962694
0.010048703288193793
0.009979669363237917
0.009878360100556165
0.00983343633590266
0.009827071889303625
0.009832468326203525
0.009919133903458714
0.010056348475627601
0.010040187223348767
0.009829752137884498
0.009668606782797724
0.009697671458125114
0.009802359400782733
0.009876020490191878
0.009932997410651297
0.01002100319834426
0.010120487383101135
0.010142191748600453
0.010072679538279772
0.010003346507437528
0.00997539175208658
0.009957352906931193
0.009941731763537973
0.009938289381098002
0.009959533552173525
0.010027840412221848
0.010123746106401085
0.010203392249532045
0.010264914589934051
0.010331657121423633
0.010439828387461603
0.01061415667878464
0.010768996856641025
0.01077197674429044
0.010662080086767674
0.010619246570859104
0.010688345674425363
0.010735885077156126
0.010718869578558951
0.010719236575532705
0.010716679384931921
0.010653765499591827
0.010587316302116961
0.010569290979765356
0.010584279061295093
0.010612586960196495
0.010639725630171596
0.010652308478020131
0.010633347453549505
0.01058665375923738
0.010571007695980371
0.01063768117921427
0.01072316155768931
0.010710031881462783
0.010611643681768328
0.01053132321452722
0.010474494884256273
0.010398652863223105
0.010373631501570344
0.010455519615206868
0.010521580097265542
0.010487829982303083
0.01043602247722447
0.010411683844868094
0.010394050634931772
0.010378053947351872
0.010378661376889795
0.010424050269648433
0.01048593592364341
0.010515870777890086
0.01054333260282874
0.010580596344079823
0.010570682063698768
0.010509536706376821
0.010456666401587426
0.01043767623603344
0.01043544220039621
0.010431242980994284
0.010417805032338946
0.010394209381192922
0.0103396748425439
0.010225160247646272
0.010097637749277055
0.010042319924104958
0.010035977631341666
0.009995248941704631
0.00993162797531113
0.009895360192749648
0.00983523264527321
0.009713017309550195
0.009648179297801106
0.00972048773895949
0.009833523095585406
0.00989595701219514
0.009901927732862532
0.009887947307433934
0.009906236061360686
0.009970354808028787
0.010064014284871518
0.010134892957285046
0.010095540715847165
0.009973071690183133
0.009938270072452723
0.010072725624777377
0.01026235964614898
0.010372247234918176
0.010395057052373886
0.010419111684896051
0.010478238314390183
0.01049654175993055
0.010431693950667977
0.010330221639014781
0.010264129952993244
0.010272497436963022
0.010293979477137328
0.010252784627955407
0.010151014304719866
0.010019226134754717
0.009933403905015438
0.009933482725173234
0.009888884050305934
0.00971177798230201
0.009523438157048076
0.009425737713463604
0.009397689590696246
0.009416744296904653
0.0094805129757151
0.009581800494343042
0.009692950851749628
0.00978861793410033
0.00989510050509125
0.010009544349741191
0.01007152556674555
0.010115369765553623
0.010231090346351265
0.010361244194209576
0.010391510997433216
0.010383330439217388
0.01047382298624143
0.010612201492767781
0.010643432498909533
0.010583415103610605
0.010548774297349154
0.01055958854733035
0.010592244104482234
0.010605093042831868
0.010548640550114214
0.010475409210193902
0.01043716233689338
0.010410888195037842
0.010462872879579664
0.010642654541879893
0.010784146296791731
0.010729232400190086
0.01054526686668396
0.010395699441432952
0.010358680270146579
0.010384158550295978
0.0104274174105376
0.010538643593899905
0.010709752533584834
0.010818776397500188
0.010796897786203772
0.010708833953831345
0.010657613538205624
0.010656813948880881
0.010685501876287163
0.010776543812826276
0.010860775359906255
0.010817265245132148
0.010769245487172157
0.01089494945248589
0.011118810209445655
0.011305052214302122
0.011420713767874987
0.011454242530744523
0.011400697862263769
0.01128445116104558
0.011180605750996619
0.011136095349211245
0.011082400523591787
0.011008312632329762
0.010992289998102932
0.010970104404259473
0.010845490146894008
0.010725630235392601
0.010745148423593491
0.010860225949436426
0.01094531070208177
0.010959680527448654
0.010953626660630107
0.010949802638497203
0.010948038951028138
0.010961170964874327
0.010951787584926933
0.010932599967345595
0.010990125455427914
0.011061859116889537
0.011021518590860068
0.010913296381477266
0.010825892861466855
0.010764736691489816
0.010725604412145913
0.010708873530384154
0.010716184547636658
0.010755345253273844
0.010789228249341249
0.0107543092709966
0.010636894262861461
0.010502574818674474
0.01046636480372399
0.010566828269511462
0.010694378449115902
0.010731139562558382
0.01067789146443829
0.010613185730762779
0.010595538667403162
0.01062461699359119
0.010721092484891415
0.01090142188128084
0.01103625629330054
0.0109903680277057
0.01082827735459432
0.01070056125987321
0.010661435127258301
0.010652791243046522
0.010632943923119455
0.01063901830231771
0.010668295440264047
0.01069087690440938
0.010727378933224826
0.010736205452121794
0.010673635951243342
0.010658071243669838
0.010779078507330269
0.01092544112354517
0.010950936381705105
0.010833315697964281
0.010684643157292157
0.01063439744291827
0.010670634664129465
0.010704959803260862
0.010714665385894478
0.01071525052888319
0.010728880793321878
0.010758494280744345
0.010751468304079026
0.010696348231285811
0.010681908787228167
0.01076945088338107
0.01088428006041795
0.010889178323559463
0.010775056593120098
0.01070227799937129
0.010747798103839159
0.010792171370703728
0.010766950843390077
0.010755714636761695
0.010833577893208712
0.010956824007444084
0.01100008788984269
0.0109240280976519
0.010816185222938656
0.010745796598494053
0.01072421228280291
0.010748156069312245
0.01078827254474163
0.010768844375852495
0.010623479709029198
0.010419396949000657
0.010337953441776335
0.0104672333993949
0.010710564269684255
0.010886246338486671
0.010881147503387183
0.010771928927861154
0.010709930818993598
0.010724984754342587
0.010772806291934103
0.010776162317488342
0.010646266052499414
0.010486058855894953
0.010484490706585348
0.010565398973412812
0.010545594987925143
0.010461212387308478
0.0104436333081685
0.010496512649115174
0.01052482305560261
0.010477997506968676
0.010412028101272881
0.010401082835160195
0.010435720661189408
0.010468452728819102
0.010479974085465074
0.010458505903370678
0.010430606182198971
0.01046894095139578
0.010574729926884175
0.010657981494441629
0.010660776551812887
0.010632192036136984
0.010627918455284088
0.010594972558319569
0.010509179150685668
0.010447375944349914
0.01043238066136837
0.010425715120509266
0.010379443245474249
0.010279692101757974
0.010214323268737644
0.010237337234430014
0.010305704458151013
0.010399254856165498
0.010480148673523218
0.01047089816071093
0.010378880989737809
0.010287955226376653
0.01024686585413292
0.010222524388227612
0.010144110412802547
0.010027090418152512
0.009955996021162719
0.009945393460802733
0.009975353390909731
0.010037645320408047
0.010089249995071442
0.010075417147018016
0.009968143310397864
0.009851935082115232
0.009921510277781636
0.010170261110179126
0.010324525949545204
0.01027509142877534
0.010187736409716309
0.010171748832799494
0.010172594178002328
0.01013079818105325
0.010102747066412121
0.01018251087050885
0.010318027201574296
0.010362404037732632
0.010303002905566246
0.010250594161916524
0.010253136006649583
0.01029320162255317
0.010363902673125267
0.010426553105935455
0.010413965529296547
0.010333328093402087
0.010264359987340868
0.010220400653779507
0.010156656659673899
0.010109965605661273
0.010140856588259339
0.010234207194298506
0.010327945384196936
0.010366664526518434
0.01039063220610842
0.010478445990011097
0.010591428535990417
0.010653854778502137
0.01067305593751371
0.010675758479628712
0.010684758957941085
0.010736544693354517
0.010818402636796237
0.010886478468310088
0.010938435888383537
0.011012186030857265
0.011120489267632365
0.011179463670123369
0.011138047410640865
0.011094496385194361
0.0111071648565121
0.011128124806564301
0.011136884142179043
0.011132370061241091
0.011132884616963566
0.011164119695313274
0.01113768206909299
0.010963195809163153
0.01074862276436761
0.010643386153969914
0.01062447669915855
0.010583028988912701
0.010506865119095892
0.010502227141987532
0.010586029218975454
0.010592857478186488
0.010457572320010513
0.010322849098592997
0.010272345901466907
0.010265032958704979
0.010272411541081964
0.01027027104748413
0.010227070581167936
0.010177843179553748
0.010166878721211105
0.010147177909966559
0.010100488162133842
0.010145598533563316
0.010336833575274795
0.010522072792518884
0.010565333862323313
0.010508988969959318
0.01046737926779315
0.010502789861056953
0.010551570795942098
0.010514850453473628
0.010425190599635243
0.01033186268992722
0.01019879488972947
0.010068017207086086
0.010028621926903725
0.010049118474125863
0.010067654023878277
0.01010904656490311
0.010192410377785564
0.010227144188247621
0.010159070971421897
0.010127192225772887
0.010227318715769797
0.01032834490062669
0.010318960212171078
0.01024418554501608
0.01018038889626041
0.010170151074416935
0.010186745279934257
0.010173152789939195
0.010176955657079816
0.01029403938446194
0.010487273612525314
0.010624302218202502
0.010653593195602298
0.010665569622069597
0.010752721200697124
0.010827546601649373
0.010780081979464739
0.010700519497040659
0.010689365977887064
0.010720642893575131
0.01077567446278408
0.010845156982541085
0.010876424456946553
0.010833703996613622
0.010756413536146283
0.01072689589112997
0.010767444467637688
0.010831304013263434
0.010897411229088903
0.010974749648012221
0.011038499751593918
0.011041474370285869
0.0109802392590791
0.010925250498112292
0.010945420518983156
0.011006673597730696
0.0110230378434062
0.010956768176984042
0.010836866605095564
0.010781693160533906
0.010872142619919032
0.010974389095790684
0.010960034502204508
0.010903504109010101
0.010854338293429465
0.0107707533496432
0.010695225596427917
0.010729166080709547
0.010855625777039676
0.010885343428235501
0.010692141596227884
0.010409901472739876
0.010224734416697174
0.010154902946669608
0.01012985895620659
0.010113710458390414
0.010119476853869856
0.010167039288207889
0.01023238681256771
0.010258648993913084
0.01024193718796596
0.010251485442277044
0.010338604799471796
0.010452823522500694
0.010494602522812783
0.01046633310848847
0.010435825791209935
0.010413775090128183
0.01042516738642007
0.01050790554145351
0.010605700409505515
0.010627686632797123
0.010550303987693042
0.010441648599226028
0.010369597838725896
0.010275843965355308
0.010130106466822325
0.010059304067399353
0.01007553312694654
0.010014779982157052
0.009880364057607949
0.009859352838248014
0.009994937642477452
0.010118217035196721
0.010085513484664261
0.009957669600844384
0.009910212485119701
0.010017497444059699
0.010201438956428319
0.010348725495859981
0.010421797295566648
0.010465608874801547
0.010494057456962764
0.010483989436179399
0.01048489875625819
0.01052558341762051
0.010547054200433194
0.010524133304134011
0.010483500640839338
0.010488624372519552
0.010590571630746125
0.01073620397830382
0.01086817679926753
0.010986045887693762
0.011060213840100913
0.011085684357676656
0.01110463357064873
0.011084830940235406
0.01098420619731769
0.010874532342422754
0.010819208472967148
0.010771935356315225
0.01069135068450123
0.010632457309402526
0.010651898283977062
0.010698852275963873
0.010736822595354169
0.010845809476450086
0.011021352647803724
0.011094926972873509
0.010990204503759742
0.010856890957802534
0.010879626453388483
0.011036796793341637
0.011163418118376284
0.011228199631441385
0.011290954572614283
0.011316097632516176
0.011310839825309813
0.011352026844397187
0.011395715083926916
0.011375307152047754
0.011335524069145321
0.011325334759894758
0.01136054828297347
0.0114279392384924
0.011455494244582951
0.011404516412876547
0.011317650349810719
0.011246959359850735
0.011220776250120253
0.011212503798305988
0.01115841288352385
0.011071699189487845
0.01103657813044265
0.011069503931794315
0.011075764927081764
0.010998190678656102
0.010934579188469797
0.010965532772243023
0.01103130065370351
0.011079301910940557
0.011094522313214839
0.011058375027496369
0.01100228494266048
0.010962870472576469
0.010957760841120035
0.011019142931327225
0.011119305617175996
0.011161484753247351
0.01110896083060652
0.011042425229679792
0.011040214642416685
0.011038932052906602
0.010952356695197523
0.010868409762624652
0.010869864406995475
0.010829775929450988
0.010685772181022912
0.010608952252659946
0.010686981240287424
0.010765493048820645
0.010707764660473913
0.010608855355530977
0.010625732301268726
0.010717673699837178
0.010777336698956787
0.010809338353574276
0.01078135812887922
0.01064730862621218
0.010533948491793127
0.010540266076568515
0.01054743074811995
0.010464071340393274
0.010356594843324273
0.01028228477574885
0.01023406108142808
0.010198220685124397
0.010185961474198847
0.01021880959160626
0.010263409663457424
0.010280943871475757
0.010333529731724411
0.010455006633419544
0.010530041640158742
0.010504514714702963
0.010513991448096931
0.010627163592725992
0.01069250316824764
0.010611901548691094
0.01050607103155926
0.010490680090151727
0.010570225636474789
0.010710060747805982
0.010841407922562211
0.010911607150919735
0.010902675613760949
0.010815457643475383
0.010736533785238861
0.01077605628175661
0.010912006518337876
0.011017250958830119
0.01101328295422718
0.010956204526592047
0.01095010900637135
0.010982021240051836
0.010972622053232043
0.010941977358888834
0.010929271872155368
0.010890396514441817
0.01081281621940434
0.010768598453141749
0.010810736524872482
0.010864798047114163
0.010817152496892959
0.01073636397253722
0.010746899489313365
0.010789515585638582
0.010806103451177478
0.010868414214346558
0.010973214781843125
0.01102422391762957
0.011016686444636435
0.011019379212521017
0.011024606360588224
0.010980356158688665
0.010915128141641616
0.010899936712812633
0.010936179938726127
0.010973815745674074
0.011005454228725285
0.011052298157010228
0.011089077037759125
0.011086534338537603
0.011080010512378067
0.011095543371047824
0.011085844216868281
0.011032577420119196
0.01100829120259732
0.011052589730825275
0.011100169520359486
0.011087955960538238
0.011031020453665406
0.010983145835343749
0.010968517083674668
0.010954319927841426
0.01094337689690292
0.011000697142444551
0.011077370643615723
0.011039878188166768
0.010926426951773465
0.010879898932762444
0.010907922165933996
0.010925850267522037
0.010907901576720178
0.010905585519503802
0.010952966595068574
0.011019609710201621
0.011081841115374119
0.01112754492321983
0.011133857110980899
0.011112297105137258
0.011084980298765004
0.011071616567205638
0.011090810899622739
0.011088724059518426
0.01102264433633536
0.010965493863914162
0.010953001619782299
0.010909868879243731
0.010816422333009541
0.010767186074517668
0.010818405488971622
0.010909745914395898
0.010977654794696718
0.011008946800138801
0.010989829066675156
0.0109493374126032
0.010954562732949853
0.010972514741588384
0.010926549872383475
0.01086082169553265
0.01084481882629916
0.010859385586809368
0.010872513384092598
0.010871147823054343
0.010853825784288347
0.010824490978848189
0.010748566119000316
0.010620372814591973
0.010534972737077623
0.01057620818959549
0.010698488925117999
0.010777417740318923
0.010756658888421953
0.010690598248038441
0.010620142482221127
0.010516223816666751
0.010421315676067024
0.010452106276061386
0.01057292710058391
0.010618593320250511
0.010548604405485093
0.010472853591199965
0.010450712938327342
0.010410507721826435
0.010336784352548421
0.010342041570693255
0.010438856552354991
0.010499281438533216
0.010474127607885748
0.01043378227390349
0.01042660688282922
0.010425410964526236
0.010399650111794471
0.010369478724896908
0.010349159825127572
0.010327224368229509
0.010353584501426667
0.010459574128035456
0.010513421590439975
0.010426901981700211
0.010340541515033693
0.01037617438007146
0.010466619527433068
0.010530744888819754
0.010610614772886037
0.01073791389586404
0.010811683570500464
0.010788922365754842
0.010763319015968591
0.010769120689947159
0.010769716135691852
0.010744187850505113
0.01070030868984759
0.010687620360404253
0.010714843946043402
0.010734650655649602
0.010765235263388604
0.01083180919988081
0.010853526955470443
0.010739155777264387
0.010502379159443081
0.010249118159990758
0.010086668750736862
0.01005089488811791
0.010139262010343373
0.010329325620550662
0.010488520890939981
0.010486312948632986
0.010425755102187396
0.010457942676730454
0.01052969265729189
0.010569283694494516
0.010668013351969421
0.010868112149182707
0.010972324886824935
0.010832925995346158
0.010634159864857794
0.010630908918101341
0.01081338619813323
0.0109745351690799
0.01099436653777957
0.01095821927068755
0.010971282499376685
0.010987020465545356
0.010949992411769926
0.010933217687997966
0.010950762464199215
0.010904331575147808
0.010819177096709608
0.01078328832052648
0.010738113261759281
0.010599484802223742
0.010430511853192001
0.010366531861945987
0.010400268817320465
0.010396785577759146
0.010329678447451442
0.010252077898476273
0.010193855771794914
0.010207814171444625
0.010283949067816139
0.010326296731363982
0.010299121316056698
0.01025755489943549
0.010259880810044706
0.01030863385880366
0.010371638748329132
0.010422442050185055
0.01044372163247317
0.010434118108823895
0.010423112760763615
0.010441006203182042
0.010473393006250262
0.010482687356416135
0.010435405496973544
0.010307642393745481
0.010175860612653196
0.010162185577210039
0.010205847539473324
0.010178877920843661
0.010111872961279005
0.010034372047521174
0.009884348756168037
0.00973007352091372
0.009762811383698135
0.009969244464300572
0.010096423137001693
0.010003519144374877
0.009812978873960675
0.00972217830363661
0.009802270943764598
0.009961893074214459
0.01008463313570246
0.01014544778270647
0.010143902387935668
0.010053652878850699
0.009937385488301516
0.009948846937622874
0.010102399832103402
0.010228379317559301
0.010235343396198004
0.010221159018110484
0.010258185993880033
0.010271299330051989
0.010214481314178556
0.010129481020849198
0.010060744686052203
0.01009309560758993
0.01022297547198832
0.01026640848023817
0.010186373768374325
0.010157844491768628
0.01022243482992053
0.010283556904178114
0.0102946319244802
0.010237072529271245
0.010125513290986418
0.010045649821404368
0.010093975104391575
0.010288983511272817
0.010517326048575342
0.010656216677743942
0.01073256514267996
0.010829314144793899
0.010947589052375407
0.011048826777841896
0.011100571346469223
0.011081047940533608
0.01102642757818103
0.011020281151868403
0.011122701701242476
0.011313194881659001
0.011464311259333044
0.011465301662683487
0.01135687685571611
0.011227773048449307
0.011137523131910711
0.011143672952894122
0.011194164394401013
0.011149887787178158
0.01099527298938483
0.010826036401558667
0.010685170062351972
0.010574859862681479
0.01056018824223429
0.010687806338537484
0.010845566208008677
0.010877956305630505
0.010788675856310874
0.010707373677287252
0.010699353241361677
0.010715728090144695
0.010740565503947436
0.010803166325204075
0.010847144590225071
0.010840243021957576
0.010843638407532125
0.01083111780229956
0.010785595714114606
0.010819840298499911
0.010917345774360002
0.010948146369773894
0.01093076799530536
0.010919601754285396
0.010920899191405624
0.010992547196801752
0.01112637038109824
0.011193414141889662
0.01109315249370411
0.010864059904124588
0.010671280417591333
0.010593072904739528
0.01053279567277059
0.010453877022955567
0.01041066013276577
0.01036526085343212
0.010287816300988198
0.010263481216970832
0.010304391211830079
0.010310177763458342
0.0102388995885849
0.010140383497346193
0.010092854448594153
0.010107763665728272
0.010116328215226532
0.010113023263402283
0.01013645158149302
0.010169680442195385
0.01021079226396978
0.010276526378002018
0.010347011517733335
0.010397919551469386
0.010433918060734869
0.01048959993524477
0.010556800498161465
0.010572370071895421
0.010550161746796221
0.010578668303787708
0.010685797475744038
0.0108229451184161
0.010927358355838806
0.010959821338765323
0.010930626608897001
0.010899544041603804
0.010916736838407815
0.010931835388764738
0.010857239677570761
0.010731019608210773
0.010634885570034384
0.010558461707551032
0.010492950468324125
0.010463212879840285
0.010453382332343608
0.010435960735194386
0.010387608134187758
0.01029380546649918
0.010210015045013279
0.01021041337866336
0.010287569165229797
0.01038239803398028
0.010459108042996377
0.01050706472247839
0.010496112029068172
0.01040387193672359
0.010300601033959538
0.010285349232144653
0.010306894960813225
0.01024608947103843
0.010181592346634715
0.010258284825831653
0.010377817759290338
0.010360889171715825
0.01026392208179459
0.010268709913361818
0.010361188903916628
0.010383044325280935
0.010340109609533101
0.010339164978358895
0.010357241602614522
0.010332025543320925
0.010279156409669667
0.010239772768691181
0.010234659693669528
0.010245427635964007
0.010244111048523337
0.010221750095952302
0.01015093460213393
0.01002260331530124
0.009917419089470058
0.009913402299862355
0.00996894903946668
0.009995509521104395
0.009969822966959328
0.009916981246788055
0.009876845888793468
0.009898112784139813
0.009964362180326133
0.009990496672689914
0.009968237439170479
0.009983304890338331
0.010063343856018037
0.010166414503473789
0.010282758388202638
0.010404447955079377
0.010497792428359388
0.010555161070078612
0.010584026512224226
0.010607728273607791
0.01065066531766206
0.01067320884205401
0.010647456704173237
0.01065012987703085
0.010739100293722003
0.010844688864890486
0.01090907385572791
0.010986308166757226
0.011110107710119338
0.011202101311646402
0.011160496065858751
0.011011479638982564
0.010917698489502073
0.01096346955280751
0.011011541199404746
0.01090402010595426
0.010725397588685156
0.01066422210773453
0.010714412992820143
0.010743212110828609
0.01073836331954226
0.010785547830164433
0.010886174438055604
0.010951664655003697
0.010944576587062329
0.010925482236780226
0.010937876899261028
0.010941488300450147
0.010918456842191518
0.010920140568632632
0.010963589656166733
0.01099435220239684
0.010989088718779384
0.011015596089418978
0.011115640772040934
0.011228075423277915
0.011312786189373583
0.011416506455279887
0.011571567174978554
0.011729892918374389
0.011795833841897547
0.011714474009349942
0.011556237766053528
0.011418306410778314
0.01129420132143423
0.011194274930749088
0.01117839083308354
0.011216102244798094
0.011232205012347549
0.01117602523881942
0.011043644607998431
0.010936680461745708
0.010930770065169782
0.010959626832045615
0.010963896694593132
0.010940643816720694
0.010840025960933418
0.010636779486667365
0.010450112586840987
0.010438111003022641
0.010599408175330609
0.010795200732536614
0.010954152948688716
0.011096211790572852
0.011197497516404838
0.011212427879218011
0.011167655647732318
0.011128300069831312
0.011121137710288167
0.011119401913601905
0.011093295686878264
0.011057598728220909
0.011030244575813412
0.011007716672029346
0.011013637576252223
0.011056199902668595
0.011092499203514308
0.011121346638537944
0.011180099176708608
0.011249030460603535
0.011257743374444544
0.011176424825098365
0.011075287132989615
0.011017937157303094
0.010953856294509023
0.01084955723490566
0.010752462060190737
0.010663789513055235
0.010569002097472548
0.01051486250013113
0.010535961447749287
0.010615312987938523
0.01068664669757709
0.010673265592195093
0.01056756230071187
0.010423342743888498
0.010327299577184021
0.010324369100853801
0.010352437284309417
0.010388632169924677
0.010485793978441507
0.010605660006403924
0.010649938890710474
0.010582702648825944
0.010467662310693413
0.010454959529452025
0.010596845587715507
0.010766046294011176
0.01085857421392575
0.01085593567462638
0.010764393196441234
0.010646500068251043
0.01056632675928995
0.010532316253520548
0.010546747171320021
0.010594978998415171
0.01064252900891006
0.01067932759411633
0.010676963732112198
0.010621886095032096
0.010595019604079426
0.010635159232188017
0.010671577651519328
0.010668372940272093
0.01063432110240683
0.010554689087439329
0.01043524398934096
0.010329683576710522
0.01029304976342246
0.010303829424083233
0.010266337611246854
0.010162351042963565
0.010075336063746363
0.010058091836981475
0.010117770961951465
0.010220475180540234
0.010287642241455614
0.010289978361688554
0.010271589090116322
0.010265194659586996
0.010253923842683435
0.010212865872308612
0.01016078224638477
0.010159089544322342
0.010262230089865624
0.01044257512781769
0.010551532052922995
0.010496650757268071
0.010422798325307667
0.010472811430227012
0.010551118936855347
0.010527084805071354
0.010440717937890441
0.010435178955085576
0.010549388993531465
0.010632252553477883
0.01060442736838013
0.010595990773290397
0.010624583556782453
0.010541994078084826
0.010384856949094683
0.010314930221065879
0.010309833625797182
0.010257573584094643
0.010200817289296537
0.010279378278646618
0.010483983368612827
0.010647102945949883
0.010702565652318299
0.010731296963058412
0.010754887263756245
0.010712786356452852
0.010613032861147075
0.010545762260444463
0.010546149171423167
0.010569948041811585
0.01062917317263782
0.010740943546406924
0.010772375713568181
0.010664209441747516
0.010616393312811851
0.010731953603681177
0.010840273012872785
0.010832009562291205
0.010803524486254901
0.010830314350314438
0.010830298822838813
0.010736838518641888
0.010634241555817426
0.010575701566413045
0.010509301198180766
0.010469204720575363
0.010532201144378632
0.010631546443328262
0.0106357591599226
0.010518832781817764
0.010420177422929555
0.010472569472622126
0.010549735007807613
0.010475840952713042
0.01034570278832689
0.010325586830731481
0.010417898220475763
0.010541499559767544
0.01063476400449872
0.010681484560482204
0.010646747439168394
0.010504799576010556
0.010419684150256216
0.010540458813775331
0.010668694861233235
0.010585540912579745
0.010411793284583836
0.010339360691141337
0.010347216024529189
0.010300709553994238
0.010170933539047838
0.0100659661879763
0.010044414636213332
0.010037411232478916
0.010007343182805925
0.0100245929392986
0.010116270680446177
0.01019002600107342
0.01020445375237614
0.010246146554127335
0.010318815179634839
0.010329064829275012
0.01035124296322465
0.010508644438814371
0.010685250898823141
0.010712409236002713
0.010624478147365153
0.010548434299416841
0.01049517226871103
0.010387853845022619
0.010273806971963496
0.010284848290029912
0.010390713040251284
0.01047682873904705
0.010548458227422088
0.010621996596455574
0.01063933526398614
0.010587628846988082
0.010544745808001608
0.010588297927752137
0.010645579136908055
0.010591859391424804
0.010529812809545546
0.010615378604270517
0.010768754354212434
0.010849904851056635
0.010820252182893455
0.010704598140437156
0.010577825859654695
0.010498407012782991
0.010496628426481039
0.010587313703726977
0.010657952141482383
0.01060170475160703
0.010561867682263255
0.010680661636870354
0.010842491392977535
0.010907755244988947
0.010889618357177824
0.010853559805545955
0.0108200068725273
0.010782370446249842
0.010776862960774451
0.010826381559018045
0.010848526847548784
0.010775928925722838
0.01067394157173112
0.010623377976007759
0.010610641988459974
0.010586834421847015
0.01055398620199412
0.010518705225549638
0.01041363276541233
0.01021891039563343
0.01005262638675049
0.010018643098883331
0.010098506498616188
0.010191174990031868
0.010238345530815422
0.010308421896770597
0.010429543897043914
0.010469314267393202
0.010361262252554298
0.010231176316738129
0.01017304461216554
0.010155884607229382
0.010164374399464578
0.010213999091647566
0.010275757201015949
0.010308460525702685
0.010358262909576296
0.010482873818837106
0.01057580699212849
0.010527194959577173
0.01044163107406348
0.010454638067167253
0.010556932191830128
0.010650470349937678
0.010638247972819955
0.010554037722758949
0.010520291323773563
0.010541044273413718
0.010569249505642801
0.01062930645653978
0.01068355629220605
0.010661044034641236
0.010627335580065846
0.010675854617729783
0.010772108840756118
0.01081819664919749
0.010807547685690224
0.010826216388959437
0.01085218231426552
0.010768395154736937
0.010602826289832591
0.01049962654709816
0.010506117413751782
0.010527683028485627
0.010476490641012788
0.010405328960623593
0.010390222761780024
0.010411559960339219
0.010463709710165858
0.01056423035217449
0.010676338134799153
0.010754793595988304
0.01077412611572072
0.01076401319121942
0.010799039807170629
0.010856212724465877
0.01087230715667829
0.010910827983170748
0.01102059038123116
0.01111784579930827
0.011166463764384389
0.011212307049427182
0.011248091117013246
0.011237264168448747
0.011174472873099148
0.011065563252195716
0.010924161644652486
0.01079047608654946
0.01071213125018403
0.010681045628152787
0.010623903358355164
0.010494517856277525
0.010324956609401852
0.010195565617177636
0.010172062476631254
0.010221676626242697
0.010278838130179793
0.010343730438034982
0.010416279241908341
0.010472703019622713
0.01049572833115235
0.010464279977604747
0.010380874297115952
0.010288942481856793
0.010249864179641008
0.010302358996123076
0.010387540243100376
0.010403389553539455
0.01038472630083561
0.01046716486569494
0.010675125804264099
0.010874922620132565
0.010943076654803008
0.010933907041326164
0.010980582786723972
0.011059096944518388
0.011065806420519948
0.011038189518731088
0.011048836009576917
0.011044947744812817
0.010961946272291244
0.010840185666456819
0.010762876004446299
0.010741656727623195
0.010703003550879657
0.01060265868436545
0.010480826969724149
0.01039545095525682
0.010361242610961198
0.010329033962916583
0.010249008745886386
0.010153398553375154
0.010095111911650747
0.010078551969490946
0.010104351544287056
0.010152404259424657
0.010149622708559037
0.010087148672901093
0.010058518047444523
0.010102743031457067
0.010165559852030128
0.010228000704664737
0.010327856026124209
0.010469433285761625
0.01061502231983468
0.010721734543330967
0.010730889672413469
0.01062191061442718
0.010463116189930588
0.010350255316589028
0.010357407685369253
0.010471011342015118
0.01055037861224264
0.01049287724075839
0.010362650842871517
0.010267527690157294
0.010254002357833088
0.01030265053967014
0.010328914204146713
0.01027041586348787
0.01015628017252311
0.010063472872134297
0.010050471823196858
0.010100366983097046
0.010132881358731537
0.01009558213641867
0.010010969371069222
0.009955749663058669
0.009995812748093158
0.010070909257046878
0.010038632359355688
0.009909569034352899
0.009835907923988998
0.009859166075475514
0.009904207468498499
0.009959442205727101
0.010064672515727579
0.010176428204867988
0.010213204817846417
0.010204722133930772
0.010231719932053239
0.010268426495604216
0.010264630736783147
0.010276074022985995
0.0103406080766581
0.010409850189462303
0.010476696023251861
0.010571752893738448
0.010676602283492685
0.010741868931800127
0.010729307024739683
0.01064151180209592
0.010539996053557843
0.010470435603056103
0.010390551830641925
0.010278207680676133
0.010220102616585791
0.010289306407794357
0.010428803032264114
0.010509203015826642
0.010474249036051334
0.010400440157391132
0.010402595906052739
0.010489577180705964
0.010557732190936803
0.010541746553499251
0.010448791650123895
0.01031433929456398
0.010245781380217523
0.010319466379005462
0.01044829139020294
0.010517899303231389
0.010535935249645263
0.010566526423208416
0.010614683898165823
0.010643932961393147
0.01067737207747996
0.01074544626288116
0.010773293259553611
0.01073957934277132
0.01078086086548865
0.010929392287507653
0.011033186139538884
0.011026377063244582
0.01100373801542446
0.011030502459034324
0.011055239159613848
0.011012303405441343
0.010935118366032838
0.010910026400815696
0.010938535595778376
0.010965748466551304
0.01098750120960176
0.01099242943804711
0.010943832891061902
0.010874213979113846
0.010831643340643494
0.010769568181131036
0.010607880924362689
0.010403214155230671
0.010339993294328451
0.01045259422622621
0.010545399375259876
0.010495263917837292
0.010407769940793515
0.01042257025372237
0.010514012326020748
0.010531614960636943
0.010424384311772884
0.010319203766994179
0.01031797526869923
0.010364789797458798
0.010362606279086322
0.010315381360705943
0.010297954466659575
0.010341529727447778
0.01044553485698998
0.010581119165290148
0.010623174377251417
0.010502179281320422
0.010360720639582724
0.010343859170097858
0.01037742499029264
0.010315621222835034
0.010194595102220774
0.010169222899712622
0.010230090965051205
0.010219141852576285
0.01012395791709423
0.010066817863844335
0.010083176493644715
0.01015114801703021
0.010249157187063247
0.010297404322773217
0.010227477506268769
0.010067463617306203
0.009932744225952774
0.009954854426905514
0.01009994450956583
0.010195757013279945
0.010207258826121689
0.010211027548648418
0.010191103036049753
0.010126840400043875
0.010114600067026913
0.010212796228006481
0.010298569391015916
0.0102668331656605
0.010239483506884426
0.01030740856891498
0.010322697998490185
0.010215808879584074
0.010132133706938475
0.010159825275186449
0.010240228730253875
0.010264910685364156
0.010203726005274803
0.010179402206558734
0.010268400895874948
0.010373845261055977
0.010415202807635068
0.010420406688936054
0.010437503834255039
0.01047202203888446
0.010498310814145952
0.010524430349469184
0.010540065071545542
0.010461034812033176
0.010316457946319134
0.010270346470642835
0.010310569822322577
0.010266679096966982
0.010160404511261732
0.010166395143605768
0.010293519792612641
0.01039059280185029
0.010394708530511707
0.010374796993564814
0.010372380968183279
0.01035745769739151
0.01029340117238462
0.010185351234395058
0.010121986789163201
0.01018878208938986
0.010359037867747247
0.010570043174084276
0.010728644281625748
0.01070524681126699
0.010565674237441272
0.010510190997738391
0.010513224615715444
0.010439146657008678
0.010344565745908767
0.010337182036601007
0.010342907721642404
0.010257978523150087
0.01022650046274066
0.010416035575326532
0.010655644841026515
0.01074397201417014
0.010779332206584512
0.010861236630007624
0.01091882262378931
0.010914698108099401
0.010887624723836779
0.010879664386156946
0.010889475729782135
0.010838809360284357
0.010699741407297552
0.010566041190177202
0.01051432847743854
0.01054132021497935
0.010599397346377373
0.010638056413736195
0.010642514047212899
0.010597229583654553
0.010521423062309623
0.0105308494460769
0.010647922554053366
0.010729408389888704
0.010760007370263338
0.010863276356831193
0.01100246308837086
0.011040869308635593
0.010970494041685016
0.010874128956347704
0.010810733353719116
0.010815942087210715
0.01090724028646946
0.011020736100617797
0.011053966849576682
0.01099395459285006
0.010893349326215685
0.010787396179512142
0.010684131493326277
0.010590909705497325
0.010551899103447795
0.010583624937571584
0.010606238676700741
0.010574558139778674
0.010554977399297059
0.010588906153570861
0.010628440447617323
0.01061723641352728
0.01058177717262879
0.010599973921198397
0.010627018488012254
0.010553770712576807
0.010448819044977426
0.010441170153208078
0.010510244623292237
0.01059818350477144
0.010698758675716817
0.010798874290194362
0.010871988530270755
0.010879620490595699
0.010824318528175354
0.010800616643391549
0.010843491782434284
0.010858225065749138
0.01079178623855114
0.010691318237222731
0.010616634883917868
0.010582204672973603
0.010547603219747544
0.010499933890532703
0.010490428223274648
0.010534967703279108
0.010601006466895341
0.010668878767173737
0.010720937866717578
0.010744223622605204
0.010741318550426513
0.010723851758521051
0.01072666933061555
0.010755082780960948
0.010774511764757334
0.010788385204505176
0.010790988455992192
0.010774162916932254
0.010818082692567258
0.010957592828199268
0.011078723322134465
0.011070411812979727
0.010960740607697517
0.01085346050793305
0.010766855080146343
0.010671567721292376
0.010630767836701124
0.010697038313373923
0.010789455494377763
0.010804761627223342
0.01074804479489103
0.010709015438333153
0.010726975032594056
0.010735333275515586
0.01071427900576964
0.010733588703442366
0.010753736440092325
0.010672158633824438
0.010534190239850432
0.010412914077751339
0.010276399196591228
0.010135975456796587
0.010096166185103356
0.01019878190709278
0.010329801756888628
0.010348690883256495
0.010295579647645355
0.010307192308828235
0.010374125570524483
0.010381086755078286
0.010300174879375845
0.010219926678109914
0.010210466755088419
0.010228829248808325
0.010216794568113982
0.010189016119111329
0.010146109377965331
0.01005512373521924
0.009940677850972862
0.009861193934921176
0.009843984271865338
0.00988808875437826
0.009959174597170203
0.01000871681375429
0.010009840670973063
0.009965076730586588
0.009920751287136226
0.009906351291574538
0.009887080581393093
0.009842443817760796
0.009793186204042285
0.009786254642531276
0.009855834278278052
0.0099544573482126
0.010054685072973371
0.010206332236994058
0.010341155738569797
0.010312064341269434
0.010205843392759562
0.010243376134894788
0.010412687347270548
0.01053060457110405
0.010544646447524429
0.010532470201142133
0.010499331166502089
0.010411964696832001
0.010361464743036777
0.010425636996515095
0.010507277271244675
0.0105420554545708
0.010617998330853879
0.010734010536689311
0.010734554885420949
0.010559841678477823
0.01036253545433283
0.01031475757714361
0.010370761719532311
0.010368320716079325
0.01030688185011968
0.010312573367264122
0.010408208302687854
0.010489502551499753
0.010498245467897505
0.010511305362451822
0.010572872618213295
0.010568743804469705
0.010467775869183243
0.010421337117440999
0.010463584270328284
0.010493903788737952
0.010500952766742557
0.01049992124317214
0.01047454539919272
0.010478541753254831
0.010563571946695447
0.010663855692837388
0.010707852693740279
0.010727462151553482
0.010753548634238542
0.010762822469696403
0.010776723804883658
0.010823472090996801
0.010858009110670537
0.010854875270742923
0.010830726125277579
0.010788942081853747
0.010784772844053804
0.010856751641258598
0.010881641600281
0.010755261019803584
0.010576560408808292
0.01048417141661048
0.010465792706236243
0.010428475844673813
0.010384866297245025
0.010402776796836407
0.010452784248627722
0.010486014559864998
0.010499247247353197
0.010473918241914362
0.010390891232527793
0.010280606697779148
0.010233038037549705
0.010313264073338359
0.010432104542851449
0.010449259385932236
0.01040322707267478
0.010419431012123823
0.010471751405857503
0.010463814167305827
0.010412269411608577
0.01038832617457956
0.010402805672492832
0.010421968041919171
0.010452213622629642
0.010554215556476265
0.010701524124015123
0.010760545595549047
0.010710888067260385
0.010667778111528605
0.010680630058050155
0.010694550829939545
0.010653436789289117
0.010575071286875754
0.01051384894642979
0.010471011847257614
0.010431677403394133
0.010403536909725517
0.010391651235986501
0.010416825418360531
0.010466646931599826
0.010482776067219675
0.0104563275934197
0.010388215212151409
0.010271629386115819
0.01016877818154171
0.010108607567381113
0.0100534601486288
0.010039909959305078
0.010129454371053725
0.010271512193139643
0.010366381991188974
0.010437446807045489
0.010586203094571828
0.010737621334847063
0.010711440625600517
0.01055976988747716
0.010495683618355543
0.010563804164994507
0.01064524826593697
0.010699195470660925
0.01078095255419612
0.010838287184014916
0.010773487698752433
0.01068777026142925
0.01073688199976459
0.010845358783844858
0.010868209702894092
0.010859041109215468
0.010915433291811496
0.010993203329853714
0.011025352408178151
0.011015168542508036
0.010980165866203605
0.010896607656031848
0.010746804268565028
0.010624489299952983
0.010656320571433753
0.010797802382148803
0.010864352863281966
0.010779890611302108
0.010692267869599164
0.010739304863382131
0.010807724192272872
0.010777374531608075
0.010734931784681975
0.010726182037033141
0.01069874374428764
0.010668020262382925
0.010645915376953781
0.010600226463284344
0.010556141426786781
0.010573460224550217
0.010675526845734567
0.01081577267497778
0.010887014828622341
0.010872699490282684
0.010904488160740584
0.011033912922721356
0.011133862854912878
0.011124411569908262
0.011064913633745163
0.010985353556461632
0.010864342362619937
0.01079475951846689
0.010904977545142174
0.01107391550205648
0.01105665735900402
0.010886114286258818
0.010785267041064799
0.010780675814021378
0.010740357420872896
0.010671047321520745
0.010676618481520564
0.01070874164113775
0.010654471886809916
0.010592856155708432
0.010632851812988519
0.010669419912155718
0.010613059343304485
0.010548969458322972
0.010543623785488308
0.010580314414110035
0.010621110086794942
0.010668890555389226
0.010770811277907341
0.010861263161059469
0.010821885424666106
0.010725484860595316
0.01070734390988946
0.01073249609209597
0.010705318979453295
0.01065795487491414
0.010704506244510413
0.010822015644516797
0.010872630847152322
0.010873821978457272
0.01093698273645714
0.011017452920787036
0.011013214671984316
0.010959887702483684
0.010938021063338965
0.010919505741912871
0.010848752572201192
0.010765696957241744
0.010734036141075194
0.010738057570997626
0.010726980834733694
0.010685377782210707
0.010620869314298034
0.010568004541564733
0.010562926726415754
0.010587220292072742
0.010618135170079767
0.010628110070247204
0.010564473150298
0.01046361869899556
0.010441128129605204
0.010522050077561289
0.010615806221030652
0.010656697619706392
0.010686918685678393
0.010759825084824115
0.010817090466152876
0.010808646825607867
0.010810749230440706
0.010856802253983914
0.010897849372122436
0.01091718495124951
0.010896142246201635
0.010872124398592859
0.0109505414403975
0.011095025895629078
0.011160121394786983
0.011098432096187025
0.010976376244798303
0.01091932319337502
0.010971886075567453
0.0109782245894894
0.010832768678665162
0.010699458962772041
0.01072571995202452
0.010785488495603204
0.010717618816997856
0.010611056028865277
0.010628638816997408
0.010692218660842627
0.010634363756980746
0.010509521733038128
0.010478159536141902
0.01054622367490083
0.010614135353825986
0.010658061448484659
0.010707867392338812
0.010751568444538862
0.010775957766454666
0.010792402441147715
0.010780951825436204
0.010738611512351781
0.010731085194274783
0.010772902567405254
0.010831878206226974
0.010913220993243157
0.010957943878602237
0.010905641091521829
0.010858565443195403
0.010930049372836948
0.011063940573949367
0.011132390333805232
0.011113312642555684
0.01109247666783631
0.011092965297866613
0.011042272152844817
0.010963533506728709
0.01095592285040766
0.011008758957032114
0.011068490834441036
0.011114738637115807
0.011132014351896941
0.011142709250561893
0.011145083578303456
0.011070989449508488
0.010911379756871611
0.010795416738837958
0.0108579704281874
0.011024652742780744
0.011091125088278204
0.011022971025668085
0.010952640182804316
0.010933057887014002
0.010913918572477997
0.010885018990375101
0.01089032543823123
0.010942809793632477
0.010977453785017133
0.010943169258534908
0.010908682690933346
0.01094259049743414
0.010988870894070715
0.010979273568373173
0.010934274923056365
0.010890821907669306
0.01085596420802176
0.010858281555119902
0.010930667319335043
0.011028983460273594
0.011067027335520833
0.011025812544394284
0.010942597666289657
0.010867512905970217
0.010861649718135595
0.010912077436223626
0.01094766263384372
0.01098097573267296
0.011037200861610473
0.01104978354414925
0.010992870752234011
0.010942437702324241
0.010939123916905373
0.01092730377567932
0.010851769181899727
0.010754136606119574
0.01070259200874716
0.010679929440375418
0.01065632967511192
0.010601413827389479
0.010423464365303517
0.010179252794478089
0.010100574353709818
0.010202524184715003
0.010247395946644247
0.010167280349414796
0.010158555402886122
0.01026711979182437
0.010282117980532348
0.010181488310918212
0.010172785827890038
0.010282166835386306
0.010390879549086095
0.010499484792817385
0.010639851477462799
0.010753699173219501
0.01077585510443896
0.010708821765147149
0.010628752219490707
0.01059646455803886
0.01055429118219763
0.01044949742499739
0.010363635749090463
0.010368021044414491
0.01042345622787252
0.010489116166718304
0.01056572993285954
0.010642078451346605
0.010672939848154784
0.010606651476118714
0.010484097499866039
0.010441746346186847
0.010525427730754018
0.010620575761422515
0.010629058857448399
0.010586659731343389
0.010540539550129324
0.010486040627583862
0.010477233286947012
0.010559646354522556
0.01063023332040757
0.010577733446843922
0.010450527891516686
0.010382658850867301
0.010438882131129503
0.010556195306126028
0.010658680479973554
0.010751055518630892
0.010804127883166075
0.010774653004482389
0.010744351535104215
0.010755879417993129
0.010715440758503973
0.010633176683913916
0.0106462806253694
0.01074563349597156
0.01074974509421736
0.010613067387603224
0.010503656535875053
0.010493075656704605
0.01049495566636324
0.010501455741468817
0.010541853997856378
0.010557955182157457
0.010523715582676231
0.010478293627966196
0.010458912872709334
0.010509370781946928
0.010587530850898474
0.01057815118227154
0.010536571971606463
0.010604555564932526
0.010732872488442808
0.010809523786883801
0.01082954345503822
0.010807066736742855
0.010743566860910506
0.010632091928273439
0.010458975178189577
0.010306682914961129
0.010303633154835552
0.010411604973487556
0.01046720427693799
0.010420235588680953
0.01036573013290763
0.010381537929642946
0.01045718091307208
0.010533497573342175
0.010526926957536488
0.010405908613465726
0.010279030040837824
0.010279320823028683
0.010395088198129088
0.010530547865200787
0.010625659134238958
0.010656768775079399
0.010643295175395907
0.010663240945432336
0.010776894444134086
0.01093235099222511
0.011027210038155317
0.011052173157222569
0.011050140364095568
0.011013719595503062
0.01096094815991819
0.01097633177647367
0.011094034400302917
0.011241814689710736
0.011298443742562085
0.01120490777073428
0.011033463564235717
0.010891899191774428
0.010836824956350029
0.010877514032181353
0.010933212221134454
0.010897188440430909
0.010777167638298123
0.010652579579036682
0.010614773721899838
0.010702473947312684
0.010773938158527016
0.010711341651622207
0.010626569781452417
0.010583926865365356
0.010515923227649182
0.010448802094906569
0.010434410064481198
0.010459621546324342
0.010538883369881659
0.01067685077432543
0.010790138924494385
0.010784081832971424
0.010682690609246492
0.010584954337682575
0.010501376208849252
0.010374686804134399
0.010193948957603425
0.010011725332587958
0.009934451032895595
0.010022646011784674
0.010147728128358721
0.010130038743373006
0.010018419327680021
0.009969539057929069
0.009952692959923298
0.009885691306553781
0.009834158164449037
0.009823816874995828
0.009772104546427726
0.009718327950686216
0.00978496935684234
0.009919401870574803
0.009971790327690543
0.009926558746956289
0.00982594545232132
0.009672919360455126
0.009539497564546764
0.009518290008418261
0.009599842424504458
0.009733499516732991
0.009853708487935365
0.00990465994225815
0.009919310405384749
0.009944264015648513
0.00997018797788769
0.009983796465676278
0.009998361857142299
0.01001547693973407
0.009952062703669072
0.009780932429712265
0.00969871119596064
0.009814723890740425
0.009932070758659393
0.009917103277985007
0.009856561315245926
0.009804052433464676
0.009754945093300193
0.009737846972420812
0.009771250935737044
0.009816219818312676
0.009796240956056863
0.009744427541736513
0.00979835952166468
0.009952630531042814
0.010082128290086985
0.010164586510509253
0.010251587217207998
0.010326286416966469
0.010314126887824387
0.01021945507498458
0.010184925366193056
0.01028579096775502
0.010354676425922662
0.010254816645756363
0.01013043538434431
0.01013841005275026
0.010204592107329517
0.010223773522302509
0.01024305632803589
0.01028255033539608
0.010229850879404694
0.010074688023887574
0.009980756207369268
0.010047646292950957
0.010197253150399774
0.010288765064906329
0.010266532208770513
0.010189441356342286
0.010121690381783992
0.01006734172347933
0.010031850773375482
0.010044904239475728
0.01010814354987815
0.010173162654973566
0.010190168793778867
0.010183971484657377
0.010210181628353894
0.01026442086091265
0.010339486815501004
0.010442392241675407
0.010495383532252163
0.010432575773447752
0.010356637476943433
0.010370954335667194
0.010422202537301927
0.010458163756411523
0.010496006824541836
0.010514972098171711
0.010470870118588209
0.010407995637506247
0.010426096294540912
0.010479893190786243
0.010444878388661892
0.010388632754329592
0.010421417269390077
0.010455182045698166
0.010405980264768005
0.010355751821771264
0.010393132783938198
0.010489976308308542
0.010538168833591044
0.010501817234326154
0.010487913596443832
0.010539489020593464
0.01056225671665743
0.010520794694311917
0.010458951306063682
0.010392350791953504
0.010298621887341142
0.010195372700691223
0.010189667083323002
0.010330630205571652
0.01049459599191323
0.010542649612762033
0.010503640554379672
0.010522403295617551
0.010630938841495663
0.010710596195422114
0.010722118758130818
0.010740011564921588
0.010763643470127135
0.010712395799346268
0.010580145004205406
0.010454633350018411
0.010395354758948087
0.01038539388217032
0.0104060137597844
0.010479081675875933
0.010567632874008269
0.0105645080213435
0.010504362848587334
0.010529283864889294
0.010604420427698642
0.010611119067762046
0.010596107358578593
0.010643710016738623
0.01069948241347447
0.010678698343690484
0.010617024074308574
0.01058812660165131
0.010561542878858745
0.010511143698822707
0.010482693996746093
0.01043634261470288
0.010294702218379826
0.010129432827234268
0.010085689609404654
0.010200771947856992
0.010361975820269436
0.010423493890557438
0.010389602473005653
0.010377268623560667
0.010423311307094991
0.010499843547586351
0.010579464831389487
0.010616264627315105
0.010624373145401479
0.01067290157545358
0.010774331127759069
0.010902144925203174
0.010993927391245962
0.010963793201372028
0.010842486296314745
0.010754017184954136
0.010722045197617262
0.010668023624457419
0.010590910241007804
0.010578789359424263
0.01064710933715105
0.010727905791718513
0.010786654059775174
0.010827479038853198
0.010834809036459774
0.010805195306893438
0.010780232276301831
0.010776412521954626
0.010734288727398962
0.010605911784805357
0.010519045386463404
0.010659857431892305
0.010923498841002584
0.011036651292815804
0.010969912267755717
0.010878418926149607
0.010826576133258641
0.010778459371067584
0.01071831705980003
0.010707509350031614
0.010777078906539828
0.01083130500279367
0.01083134378073737
0.01087255859747529
0.010941896440926939
0.010934713811147958
0.010910649306606502
0.011006903052330017
0.01118227086495608
0.0112397721526213
0.011108875870704651
0.010962060147430747
0.010914187328889966
0.010870699035003782
0.010777973057702183
0.010688245622441172
0.010625514786224812
0.010580400698818266
0.010530886356718838
0.010479351673275232
0.01044659318169579
0.010411310868803411
0.010401497925631702
0.010492437670473009
0.010638253840152174
0.010720959280151874
0.0107116167829372
0.010666756900027394
0.010636750841513276
0.010630894363857805
0.010647081839852034
0.010665412526577711
0.010629512681625784
0.010507503333501518
0.010350543421227485
0.010255550111178308
0.010263314973562955
0.010322042484767735
0.010385343271773309
0.010442123375833034
0.01040485650766641
0.010196088887751103
0.009961993023753167
0.009912293637171388
0.010032299046870322
0.010158358318731188
0.01019041462102905
0.010153234356548637
0.010118066435679793
0.010101066939532756
0.010107062165625394
0.01015034269541502
0.010126959548797458
0.00994883525883779
0.009784461534582078
0.009826708869077265
0.00998789287172258
0.010033466299064457
0.009889260947238654
0.00973745439434424
0.009734700284898281
0.009785198927856982
0.00980226592393592
0.00986773076467216
0.00998967583058402
0.010072330480907112
0.010096042819786816
0.010108432490378618
0.010138956352602691
0.010174058401025832
0.010199674486648292
0.010196130981203168
0.010087503758259118
0.009902336443774402
0.009818293820135295
0.009878969169221818
0.009971190593205392
0.010031716178636997
0.010049151780549437
0.010024825816508383
0.009981551039963961
0.009952286954503507
0.010004965409170835
0.01018221746198833
0.010402982572559267
0.010553682681638747
0.01062873195623979
0.010711715649813413
0.01083519943524152
0.010943602088373154
0.011044497541151941
0.011170372967608273
0.011216587687376886
0.011112322888802737
0.01096483747009188
0.010890802815556527
0.010893021016381682
0.010901590317953378
0.010895113595761358
0.010896478535141797
0.010843616260681302
0.01073650676291436
0.010759771834127605
0.01092791703529656
0.010999976766761392
0.010914935229811818
0.01085158461239189
0.010916778007522226
0.011038237707689405
0.011097020774614066
0.011113946959376335
0.011172739288304001
0.011193064674735069
0.01107680365210399
0.010942855183966458
0.010930675980634987
0.011000917630735785
0.011063875721301884
0.011085776402615011
0.01106097455136478
0.010988546677399427
0.010923094225581735
0.010976760454941541
0.011123336288146674
0.01119043905287981
0.01114554057829082
0.01109605275793001
0.011080745635554194
0.011072977064177394
0.011051567404065281
0.011038207467645406
0.01106529077515006
0.011078983729239553
0.01102589997695759
0.010961841566022486
0.010928308051079512
0.010868683215230704
0.010718349039088935
0.010511125444900245
0.01036455379333347
0.010315239555202424
0.010302648195065559
0.010313767176121473
0.010347168119624257
0.01037407545838505
0.010417688735760749
0.010511682892683893
0.010622737866360693
0.010671568906400353
0.010637029861100019
0.010630499680992216
0.010728864129632712
0.01084435997530818
0.010936467959545552
0.011076671548653393
0.011226919398177415
0.011270834968890996
0.011208728342317044
0.011132139079272747
0.011079528199043126
0.010977955455891787
0.010792252630926669
0.0106709897168912
0.010719557995907963
0.010792641022708266
0.010735004076268524
0.010586738667916507
0.010471409521996974
0.010446805853862316
0.010469239747617393
0.010510764396749438
0.010596592172514647
0.01066015194170177
0.010600504714529961
0.010458160417620092
0.010359808197245001
0.010375471392180771
0.01046391831478104
0.010541042010299862
0.010563166758511216
0.010506616290658712
0.010413959345314652
0.010401767445728183
0.010475542524363845
0.010524602215737104
0.010515540642663836
0.010500000976026058
0.010513814445585013
0.010567527771927416
0.01064985825214535
0.010716261200141162
0.010709950858727097
0.01062569028697908
0.010545868761837482
0.010534062378574162
0.010557896287646145
0.010582480793818832
0.010602482683025301
0.010590518359094858
0.010517131621018052
0.010355207845568657
0.010104279941879213
0.009863296654075385
0.009734440955799072
0.009698817178141327
0.009666394423693419
0.009542679050937294
0.009328443894628436
0.009178418768569827
0.009211266825441272
0.009384983566123993
0.009596578346099704
0.009721451317891478
0.009694636359345168
0.009634018091019244
0.009698329018428922
0.009883282128721476
0.010045344920363276
0.010077829589135945
0.010031088332179933
0.009981769076548517
0.009903496108017861
0.009792072786949576
0.009737670517060905
0.009803027126472443
0.009902091068215668
0.009890582070220262
0.009799781010951848
0.009762349356897175
0.009771648654714226
0.00975914842216298
0.009713407354429365
0.009633141348604112
0.009564625499770045
0.009585252115502953
0.009661880559287966
0.009692459730431438
0.00964944520033896
0.009589536366984248
0.009566833730787039
0.009560451910365373
0.009565002967137843
0.009641882504802197
0.0097498589172028
0.009778473980259151
0.009741535994689911
0.009698364299256355
0.009672574079595507
0.009721638299524785
0.009868302503600717
0.010057498100213707
0.010247157979756593
0.010392477274872363
0.010448537359479815
0.010451344039756805
0.01050363848451525
0.010683234925381839
0.010909955294337123
0.011006399728357793
0.010963124781847
0.010891314197797328
0.010814323932863771
0.010760549756232649
0.010788132897578179
0.010832275683060288
0.010786578953266145
0.010659133116714656
0.010562429146375507
0.010572010928299277
0.010602968528401107
0.010576140838675202
0.010572166852653027
0.01064321855083108
0.010703740154858678
0.010674881499726325
0.010614158334210515
0.010651258700527251
0.010758236330002547
0.010779808950610459
0.010735853342339396
0.010753741078078747
0.010805816608481109
0.010820319619961083
0.01080548705533147
0.010766854172106832
0.010719861162360757
0.010714473286643624
0.010760947992093862
0.010767438418697565
0.010644213629420847
0.010505474666133522
0.010499758101068436
0.010510313224513084
0.010393607318401337
0.010249717456754298
0.01020967731717974
0.010260941060259939
0.010311852593440562
0.010300641611684114
0.010281918598338961
0.01029553241096437
0.010267857378348708
0.010217649170663208
0.01023745687911287
0.01025965581415221
0.01018322623334825
0.010080186477862298
0.010084075420163572
0.010188178981188685
0.010234619546681643
0.010152318296022714
0.010062084544915705
0.010031437487341463
0.010004331290256232
0.009984192920383066
0.010023842211812734
0.01011388656217605
0.010172771620564163
0.010159868355840445
0.010179941465612501
0.01028189652832225
0.010322032389231026
0.010263777824584396
0.010255340461153537
0.01033651720965281
0.010423028660006821
0.010449130211491138
0.010391503311693669
0.010313873635604978
0.010282894540578126
0.010261027971282602
0.010233647655695677
0.010237426704261452
0.010244760760106147
0.010221823386382311
0.010201938627287745
0.010209533451125026
0.010231203520670534
0.010297590603586286
0.010439471870195121
0.010552574545145035
0.010544405037071556
0.010537913327571004
0.010667566428892314
0.010841280876193196
0.010891357669606805
0.010803204539697617
0.010710475724190474
0.010731283214408905
0.01083993200911209
0.010934372951742261
0.010959908629301936
0.010886589535512031
0.010733728494960815
0.010628091460093856
0.010632380209863186
0.01064413827843964
0.01058074189350009
0.01048614134080708
0.010444803689606487
0.010464969892054796
0.010488852951675653
0.010530207729898393
0.010611475827172399
0.010618120348080993
0.01047613185364753
0.010308818258345127
0.010236730929464102
0.010208187284879386
0.010114686493761838
0.009985626502893865
0.00995323488023132
0.01000966724473983
0.010034189210273325
0.010007417052984238
0.009948496450670063
0.009873119965195656
0.009874042775481939
0.009978102277964354
0.010082053155638277
0.010132890320383012
0.010188674852252007
0.0103364624036476
0.010566241284832358
0.010713008753955365
0.010662708459421992
0.01053332131356001
0.010475224456749857
0.010431786547414959
0.010305732800625265
0.0102013653004542
0.010248626903630794
0.010370322987437248
0.0104255013121292
0.010398936895653606
0.010349313048645854
0.010309331943280995
0.010277099157683552
0.010219453815370799
0.010102078709751367
0.009968275181017816
0.00990815058350563
0.009951153043657542
0.010047077322378755
0.01012165640015155
0.01015192637220025
0.010155710536055266
0.01015032791532576
0.010184616642072796
0.010292425705119967
0.010443023731932044
0.01056803289335221
0.010566186145879328
0.010441325195133687
0.01037697787862271
0.010466280044056475
0.010596756609156727
0.010675605009309948
0.01072425407357514
0.010783911324106157
0.010820614309050142
0.010776130645535887
0.010728292050771415
0.010783838317729532
0.010887047317810357
0.010953261675313115
0.010977518577128649
0.010966866640374065
0.010943535990081727
0.010930449813604354
0.010930701768957078
0.010930314091965557
0.010846535763703287
0.010647722641006113
0.010494831488467754
0.01052092254627496
0.010625861412845551
0.010661949384957552
0.010651627718470991
0.010693356995470821
0.01075595420319587
0.010728955892845988
0.010624783760868013
0.010566072543151677
0.010623392118141055
0.010734826233237982
0.010764908185228706
0.010686335000209511
0.010616894233971835
0.010616327626630664
0.01064502091612667
0.010699792592786252
0.010768465828150511
0.010780418012291192
0.0107305201375857
0.010682633598335087
0.010673951776698231
0.010682547180913389
0.010634443685412408
0.010496423272415996
0.010300548588857055
0.01011526313610375
0.01007311889436096
0.010203784429468215
0.010326357390731573
0.010326663008891046
0.010293568610213697
0.01032280488871038
0.010399464387446641
0.010445839208550751
0.010465445299632847
0.010548382163979114
0.010633986480534076
0.0105555015290156
0.010352032943628728
0.010213146340101958
0.010188440196216106
0.010155405472032726
0.010051752096042038
0.009998182756826282
0.010043419399298727
0.010047606807202101
0.010002515180967748
0.010048056202940643
0.010150491530075668
0.010155803775414824
0.010042453757487238
0.009919324740767479
0.009871105938218534
0.009857174255885184
0.00978627081029117
0.009668326284736396
0.009579762234352529
0.009528775801882147
0.009472990734502673
0.009439447303302586
0.00951410423964262
0.009661249993368983
0.009708050405606627
0.00961059142369777
0.009529047077521682
0.009570443364791572
0.009685517176985741
0.009807983492501081
0.009900912432931364
0.009937444883398712
0.009925801050849259
0.009913456132635475
0.009947025803849102
0.01002617623191327
0.01015098568983376
0.010317573309876024
0.010433174930512904
0.010449098865501582
0.01046178575605154
0.010519145275466144
0.010545996003784239
0.010493936375714838
0.010400491119362414
0.01033309544902295
0.010296990405768156
0.010217161644250154
0.01009910078253597
0.010058019552379846
0.01012566405814141
0.010220150682143866
0.010276313167996704
0.010318866544403137
0.01038559950888157
0.010415804157964885
0.01039205864071846
0.010413487083278597
0.010466278526000678
0.010458868741989136
0.010432478114962578
0.010466355280950666
0.010573511230759322
0.010715763885527849
0.010831317021511496
0.010933422222733498
0.01105423256289214
0.011124846288003027
0.01110345225315541
0.011065094410441815
0.011057496587745845
0.011040760953910649
0.010997684905305505
0.010973123414441944
0.011008319156244397
0.011088211201131343
0.011143320971168578
0.011111401016823947
0.01101336405146867
0.010956074399873615
0.011002399902790784
0.011072205798700451
0.011076215137727559
0.011039253915660083
0.011019763057120144
0.011026916611008346
0.011001188494265079
0.01090085607022047
0.010816105753183364
0.010821474413387478
0.010829070173203946
0.01074888817500323
0.010623854203149676
0.010551675786264241
0.01055503929965198
0.0105677456734702
0.01057677499949932
0.010640029725618661
0.010737743861973285
0.010818331888876855
0.010881868661381305
0.010899055930785835
0.010861577182076872
0.010814725207164883
0.010760918664745987
0.010736875454895198
0.010803393418900669
0.010875559798441826
0.010842784382402897
0.010750845060683786
0.010702984794043004
0.010711997882463038
0.010690844086930155
0.010618119318969547
0.010579371475614607
0.01054205494467169
0.010435402374714613
0.010382891823537648
0.010484895976260305
0.0106184786465019
0.010654617235995829
0.010631336537189782
0.01062601916026324
0.01061072991695255
0.010544356112368404
0.010491576911881566
0.010488197030499578
0.010471170637756586
0.010437664669007063
0.010403400524519385
0.010308687291108072
0.010200795368291438
0.01022121443413198
0.010345335104502737
0.010430454057641328
0.010451458939351142
0.010501989745534956
0.010587538355030119
0.010581100438721479
0.010477574225515127
0.010450431914068758
0.0105633729044348
0.01067562754265964
0.010660010520368815
0.010584674091078342
0.010613196743652225
0.010726823792792857
0.010756240021437406
0.010685751088894904
0.010625842614099384
0.010606497055850922
0.010610578330233694
0.010634365449659526
0.010684198252856731
0.010765785365365446
0.010823434451594949
0.010822846246883273
0.010859487093985081
0.010975253172218799
0.011054361159913241
0.01104410200379789
0.011031931298784912
0.011078637712635099
0.011131626651622355
0.011134156878106295
0.01115469838026911
0.01123084501363337
0.011235453258268534
0.011098308162763715
0.010897521339356899
0.010717761437408626
0.010606110161170364
0.01057761611416936
0.010644631115719677
0.010787107953801752
0.010885975994169713
0.01089902504812926
0.01092146677430719
0.010917845843359829
0.010801035067997873
0.0107095986045897
0.01076670145150274
0.0108514248393476
0.01084667257964611
0.010761746694333852
0.010642155250534415
0.01054580554831773
0.010509140025824308
0.010558187509886921
0.010695589995011688
0.010828739334829151
0.010860818484798074
0.010819137282669544
0.010809000078588725
0.01086647973395884
0.010882474021054805
0.010780353606678545
0.010678803473711014
0.010657858597114682
0.010610327785834671
0.01048287277109921
0.010364254242740572
0.010320016047917307
0.010311867115087808
0.010275613912381232
0.010204231650568545
0.010086546801030636
0.009915435276925564
0.009821085869334637
0.009902861914597452
0.010025469399988652
0.010075086764991283
0.010108519922941922
0.010146865006536245
0.0101454427652061
0.010104685206897557
0.010092473533004522
0.010169473444111645
0.010286811077967285
0.010386722353287041
0.01050418643746525
0.010626511485315859
0.010663561802357436
0.01059579359833151
0.010527006573975086
0.01057132204528898
0.0106615845952183
0.010645285840146243
0.010574207878671587
0.010573948849923909
0.010579933784902096
0.010493500088341535
0.010365924420766533
0.010303503470495343
0.010355916516855359
0.010461159790866077
0.010523292873986066
0.010574998441152275
0.010633702240884304
0.010558090992271901
0.010313985547982156
0.010103518958203495
0.010100605627521873
0.010240062791854142
0.010330196698196232
0.010329526867717504
0.010329161752015353
0.01031782504171133
0.01026305737439543
0.010251228790730238
0.010332065457478166
0.010429937816224992
0.01047535655554384
0.010484901899471879
0.010482919015921653
0.010474921236746013
0.010513519369997084
0.01059571213554591
0.010572577156126499
0.010380997913889587
0.010162619659677147
0.010034492402337492
0.009988514045253395
0.009982994790188968
0.00998931001406163
0.01000584934372455
0.010013613328337669
0.009969852766953408
0.00991156124509871
0.009902309947647155
0.009896890027448535
0.009857824598439037
0.009862451776862145
0.009944980186410247
0.009994932720437645
0.00990868717432022
0.009785223389044403
0.009815966109745205
0.009972714008763433
0.010086326617747545
0.010154147516004741
0.01026421669870615
0.010385308885015548
0.010432388777844607
0.010419680681079626
0.010448737516999245
0.010533890947699546
0.010559905120171607
0.010511580500751733
0.010518288323655724
0.010603978591971099
0.01065225685480982
0.010604456127621233
0.01051829406991601
0.010457623982802033
0.010411936063319445
0.010352131919935345
0.010307982093654572
0.01033120954874903
0.010416775131598116
0.010499200876802206
0.010524448589421809
0.010488499058410525
0.010426323958672584
0.010403897645883262
0.010434842128306627
0.010425797114148736
0.01031612784601748
0.010191687541082501
0.010177886341698467
0.010287050511687995
0.010423763520084322
0.010517961303703487
0.010594566697254776
0.010674345614388585
0.010708020119927823
0.01070609495509416
0.010757404384203256
0.010853652507066727
0.010933241271413863
0.011018816167488694
0.011094152913428842
0.01107920303940773
0.011022879211232066
0.011032676775939762
0.011084781787358224
0.011073616864159704
0.010939829158596695
0.01077830720692873
0.01076047055888921
0.010866143750026822
0.010907911136746407
0.010825778101570904
0.010741367242299021
0.010718741808086634
0.01065133216790855
0.010505346702411772
0.010434948559850454
0.010457089254632592
0.010388371627777815
0.010222554062493146
0.010144854751415551
0.010188990635797382
0.01021645185071975
0.010190562480129301
0.010243259728886187
0.010443271519616246
0.010683507402427494
0.010850450531579554
0.010917829163372517
0.010900040064007044
0.010848982762545346
0.010801197276450694
0.010747554246336222
0.010718499724753201
0.010742036127485335
0.010779415438883007
0.010841345945373178
0.01097358709666878
0.011112365513108671
0.011160453422926367
0.011117052803747356
0.011048863152973354
0.011016793278977276
0.011003305735066533
0.010951168006286024
0.010868199146352708
0.010779747040942311
0.010697124265134335
0.010659006959758698
0.01066583844833076
0.010682117659598589
0.010705253714695573
0.01070674386806786
0.01066169576253742
0.010641624350100756
0.01072206987068057
0.010880840625613928
0.011015583067201079
0.011018938338384032
0.010898521966300905
0.010806032642722129
0.01085248195566237
0.010951288831420243
0.010989516382105649
0.011018005572259426
0.011069311122409999
0.011051268680021167
0.010993280406109989
0.011047291262075305
0.01120525504462421
0.01131584974937141
0.011322221453301608
0.011303806994110346
0.011310660978779197
0.011271350383758545
0.011125521697103978
0.010917079863138496
0.010700724073685705
0.010519076818600297
0.010413374765776098
0.010374903636984527
0.010415997137315572
0.010558182061649858
0.010683978511951863
0.010669072498567403
0.010570995137095451
0.010498007745482027
0.010486108297482134
0.010537879480980337
0.01063488292042166
0.010731867463327945
0.010768151711672544
0.010717773335054517
0.010663239327259362
0.010703190960921347
0.01081213004887104
0.010932827875949442
0.01103841366712004
0.011066883066669107
0.010992071623913944
0.010864008907228708
0.01073939175810665
0.010658061509020626
0.010623853164725005
0.0105985021404922
0.010527331568300723
0.0104110894119367
0.010356073551811278
0.01043386475648731
0.010560650043189526
0.010624868255108595
0.01060889197513461
0.010541903525590897
0.010444729807786643
0.01035722255706787
0.010358692491427063
0.010443060020916163
0.010464884019456803
0.010388037282973528
0.010352678145281971
0.010388824082911014
0.010388775314204395
0.010334112728014589
0.010295742321759463
0.010297488356009125
0.01030974681954831
0.010342128206975758
0.010441928971558809
0.01055289389565587
0.010565212918445468
0.010521346246823668
0.010505406609736383
0.010470836767926811
0.010380640202201903
0.010290452027693391
0.010264796372503042
0.010330497361719608
0.010409263740293682
0.010375411505810917
0.010263205002993346
0.010221418435685336
0.010272058984264731
0.010301193324849009
0.010240354402922093
0.010129107399843634
0.010009254761971533
0.009873161977156996
0.009761310294270515
0.009724236521869899
0.009728032974526285
0.009782744930125773
0.009917549276724457
0.010039015207439661
0.010079990141093731
0.010107046165503562
0.01019680152181536
0.010312089752405882
0.010325796231627464
0.010224457257427275
0.01014145922381431
0.010116886808536946
0.010082505326718092
0.01006215982604772
0.010134225483052433
0.010264092213474215
0.010319281574338675
0.010261847078800202
0.01023641298059374
0.010304426718503236
0.010308049181476235
0.010205372273921966
0.010159947234205902
0.010221378500573338
0.010290093845687806
0.010332402801141142
0.010391872692853212
0.010439177728258073
0.01038935145828873
0.010332545670680702
0.010450678551569581
0.010648185992613435
0.010704559027217328
0.010672056283801794
0.01074476701207459
0.010935117397457362
0.011035190424881875
0.010871875593438744
0.010569919450208545
0.010377958971075714
0.010325501994229854
0.010267528290860355
0.010135593004524707
0.010031239236705005
0.010094903497956694
0.010302950185723603
0.010508966310881078
0.010625890782102942
0.010628416291438044
0.010566415349021554
0.01056441452819854
0.010619440050795674
0.010628824359737337
0.010598893873393536
0.010567699377425015
0.010517773982137442
0.010440952801145613
0.010365159828215837
0.01034638165961951
0.010369628020562231
0.010331081436015665
0.010214819344691933
0.010101951570250093
0.010029825512319804
0.009983968883752824
0.00993666891939938
0.009882513745687903
0.00984020811971277
0.009814225155860185
0.00985280387569219
0.00999159031547606
0.010116856866516174
0.010135318553075194
0.01012324026785791
0.010161234266124666
0.01022379044443369
0.010246025514788926
0.010249612270854414
0.01034233430866152
0.01048405259847641
0.010508335353806615
0.010433317101560534
0.010397288105450571
0.010413865046575665
0.010393732953816652
0.010284562273882329
0.010222510281018914
0.010376086253672838
0.010593470968306064
0.01063436307478696
0.01055964664556086
0.010539706009440123
0.010602903659455478
0.010644583767279982
0.010552659584209322
0.010398739869706332
0.010338319642469286
0.010351488292217255
0.01036720108706504
0.010414844607003032
0.010476589049212635
0.010482694879174232
0.010439273091033102
0.010404371172189713
0.010409579584375024
0.010425722734071314
0.01043202170636505
0.010457965680398047
0.010495679695159197
0.010536698894575237
0.010620471024885773
0.010729154907166957
0.010826130285859109
0.010914996745996178
0.010956851625815034
0.01092633075080812
0.010892170164734125
0.010931082339957356
0.011018517636694014
0.011032305811531841
0.010939470664598048
0.010865827449597418
0.01084590877406299
0.010784097709693014
0.010673823431134224
0.010554880946874618
0.010453268517740071
0.010406452263705433
0.010339592094533145
0.010188860185444355
0.01007384098134935
0.010055429260246456
0.010043695191852749
0.010002134479582309
0.00999691414181143
0.010094041903503239
0.01019873641896993
0.010153303579427302
0.010079129026271403
0.010177223905920983
0.010315075302496552
0.010299789221026003
0.01021934162825346
0.010223698001354933
0.010274817640893162
0.010244928631000221
0.010155149362981319
0.010155396652407944
0.010225405651144683
0.010180490533821284
0.010028786691837013
0.009963220003992319
0.010016832114197315
0.010046148733235895
0.010006608399562538
0.00999760810751468
0.0100547408265993
0.010132098672911524
0.01020976443309337
0.010208860104903579
0.010056533478200435
0.009873917791992426
0.009788521653972567
0.009759086538106204
0.009727333416230976
0.009703009612858296
0.009712435444816947
0.009743284564465285
0.009763063616119325
0.0097917661909014
0.009835113873705267
0.009849463333375752
0.009870995027013123
0.009941434171050787
0.00998972832225263
0.010012443577870726
0.010089785293675959
0.010215622009709477
0.010375850847922266
0.010546551141887904
0.010608394457958638
0.010552950543351472
0.010526594435796142
0.010546201281249524
0.010470864912495017
0.01026910644955933
0.010113918553106487
0.010129409111104905
0.01019002023153007
0.010161205376498401
0.010117144137620927
0.010146764051169157
0.010225247163325547
0.010333626819774509
0.010478297555819154
0.01060588522348553
0.010643432289361954
0.01062830453272909
0.01067117822356522
0.010762402056716382
0.010783684100024402
0.010720623298548162
0.010690133217722178
0.010765042221173644
0.010872495360672474
0.01090465774293989
0.010866639823652803
0.010788881802000105
0.010640369611792266
0.010478453519754112
0.010439707492478191
0.010531126949936152
0.010644902139902115
0.010710517852567136
0.010733296577818692
0.010737860705703497
0.010705568897537886
0.010615451955236494
0.010507902433164417
0.010437793685123325
0.010432305498979985
0.010491419197060169
0.010565173169597984
0.010604539732448758
0.010617575738579035
0.010606374419294297
0.010561770042404533
0.010488570672459901
0.010355512024834751
0.010178502029739321
0.01009109337348491
0.010156873567029833
0.010267817042768001
0.010321084163151681
0.01035632866434753
0.010430424134247005
0.01047848389018327
0.01047662016004324
0.010533560058102012
0.010657751141116023
0.010748166311532258
0.010799821447581053
0.01083519177045673
0.010798245682381094
0.010659602414816617
0.010485650766640901
0.010370774371549487
0.0103042281139642
0.010176607612520457
0.01001911548897624
0.00999008933082223
0.010073049450293184
0.010112242619507016
0.010071788653731347
0.010034218258224427
0.010023470763117074
0.00998515463899821
0.009948740028776229
0.010011080880649387
0.010144977224990725
0.010238610547967255
0.01024689553771168
0.010190363731235266
0.010141748352907598
0.01017382241319865
0.010260536964051426
0.010367526728659869
0.010522657963447273
0.010647338922135532
0.01060669546481222
0.010484444913454355
0.010439076996408402
0.010424098004586995
0.010359054375439882
0.010308903926052153
0.010330532640218736
0.010366072314791381
0.010381585895083844
0.010465934621170164
0.010657471213489771
0.010816300879232585
0.010813454817980527
0.0106999317323789
0.010612083300948143
0.010597611693665385
0.01061089852824807
0.010655248640105128
0.01072855468839407
0.010716575994156301
0.010605234019458294
0.010538275325670839
0.010525273215025664
0.010454792394302786
0.010353343728929758
0.010352308535948396
0.010498044136911631
0.010675568310543894
0.010763238547369838
0.01083496121224016
0.010966922864317894
0.011051836707629263
0.011030131713487207
0.010974530302919448
0.01091704776044935
0.010856884373351932
0.010872211600653827
0.011017255270853638
0.01116640514228493
0.011178270485252141
0.011110097407363356
0.011089647267945112
0.011142948847264052
0.011229818747378885
0.011289031589403748
0.011272183284163476
0.011221394236199557
0.011196277681738137
0.011178153725340962
0.011182342893444002
0.011253359643742442
0.011318164733238519
0.011285424367524683
0.011193522671237587
0.0111345928395167
0.011132713365368545
0.0111149235162884
0.011027015252038837
0.010918069081380963
0.01079820486716926
0.010620575728826225
0.010450525064952672
0.010404724180698394
0.01048493430018425
0.010598640856333077
0.010696404548361897
0.010823256359435618
0.010960861593484878
0.010992286298424005
0.010930031407624483
0.010888757896609605
0.010866359984502196
0.010833209129050374
0.010850156261585652
0.010933254123665392
0.010980423386208714
0.010883553461171687
0.010687054926529526
0.010556035786867141
0.010527979284524917
0.010511202290654182
0.010490020350553096
0.01050123605877161
0.010553427659906446
0.010625121672637761
0.010655092271044851
0.010620114859193563
0.01056721696164459
0.010505068311467768
0.010418080086819827
0.01035450647585094
0.01031634101178497
0.01023182756267488
0.010141021395102144
0.01014734857250005
0.010220742407254875
0.010245748646557331
0.010210421746596693
0.01021051276475191
0.010252611567266286
0.01025073648430407
0.010210994547232986
0.010212189247831703
0.01028257715050131
0.010382289704866708
0.010454972586594523
0.01051703317090869
0.010594439976848662
0.010628728223964571
0.01065120856743306
0.010765705723315477
0.010892744464799762
0.010893376274034382
0.01078134958166629
0.010643694400787353
0.010515302927233279
0.010346505595371126
0.010144682293757796
0.010036467141471803
0.010039416565559805
0.01003442307934165
0.010002300217747688
0.010013753660023212
0.010061342306435107
0.01008680326398462
0.010103057892993093
0.010188052970916033
0.010345328818075358
0.010466820653527975
0.010505010862834752
0.01051618398167193
0.01051987400278449
0.01050162079744041
0.010482969749718905
0.010496670939028263
0.010526451100595295
0.010494739366695285
0.010408512083813548
0.01041189924813807
0.010518064233474433
0.010567757491953671
0.010571691887453199
0.010673209424130619
0.010798399369232357
0.010762969614006579
0.010589827573858202
0.010450040786527098
0.01039161563385278
0.010303910304792226
0.010175541029311716
0.010142079121433199
0.010213826685212552
0.010258390135131776
0.010240961061790586
0.010230409568175674
0.010229102242738009
0.010196481947787106
0.01020179248880595
0.0103134462563321
0.01039092771243304
0.010302346940152347
0.01017617900390178
0.01017204818315804
0.010276403846219181
0.01040443528443575
0.010521833267994225
0.010667983326129615
0.010815638047643007
0.010859015840105712
0.010829285169020295
0.010819367552176117
0.010798388146795332
0.010710659022442996
0.010567370792850852
0.010434504700824618
0.01037506212014705
0.01036203173454851
0.010355745279230177
0.01037833388429135
0.010409031971357762
0.010395771507173777
0.01035791968461126
0.010328015894629061
0.010290201231837272
0.010241240030154586
0.010228374004364015
0.010276543297804893
0.010314861824736
0.010283027761615812
0.010255958498455585
0.010291449315845967
0.010299597778357565
0.010226636114530264
0.010152125656604767
0.010145134339109064
0.01020481356419623
0.010298193283379078
0.010394139187410474
0.010491527714766562
0.010585584891960025
0.010652702283114195
0.010685685998760163
0.01068680226802826
0.010646457807160914
0.010555826257914305
0.010479928376153112
0.010530902091413736
0.010639968509785831
0.010611322540789843
0.010478680613450706
0.010423285933211447
0.010438778013922274
0.01041313307825476
0.010346472039818764
0.01031872142571956
0.010330345244146883
0.010261499434709548
0.010097622787579894
0.010026344149373471
0.010114261684939264
0.010205330746248364
0.010223473948426544
0.01022763691842556
0.010258010774850845
0.010308669479563833
0.010355640831403435
0.010359506593085826
0.01023359046317637
0.009969192361459135
0.009767358978278936
0.009778450434096158
0.009908093977719546
0.01004449428524822
0.010168697098270058
0.010254377382807434
0.010284618264995516
0.010288366307504475
0.01030566029716283
0.010313333072699606
0.010231540729291737
0.010104777729138733
0.010069307442754506
0.010113653969019651
0.010158205386251212
0.01021054175682366
0.010279659647494555
0.010346303884871304
0.01038765066768974
0.010368164340034127
0.010284901326522232
0.010164441773667932
0.010050291763618588
0.010029934351332486
0.010132469641976059
0.010262124887667597
0.010336574041284621
0.01033276797272265
0.01027038843370974
0.010248306659050285
0.010303220353089273
0.010350787970237434
0.010364452777430415
0.010388591843657195
0.010413872846402227
0.010375509839504957
0.01027375165373087
0.010238227657973767
0.010325708910822868
0.010372114730998874
0.010286281695589422
0.010215726788155735
0.010241572083905338
0.0102720895037055
0.010257290587760507
0.010239386311732233
0.010244351895526051
0.01027428004425019
0.010377465910278261
0.010557812410406769
0.01067944978363812
0.01065637773834169
0.010566502604633569
0.01048408234026283
0.01041164822410792
0.010349441301077605
0.010314827519468963
0.010327977086417377
0.010357049489393831
0.010366017273627222
0.010437340466305614
0.010611477014608682
0.010750765851698816
0.010774596608243883
0.010742566469125449
0.010679503437131643
0.010567655647173524
0.010427619451656938
0.010329268062487245
0.010341161461547017
0.01044020161498338
0.010555947702378034
0.010663608354516328
0.010722515103407205
0.010676310276612639
0.01055009339004755
0.01041406008414924
0.01033950770739466
0.010352167570963501
0.010370211796835066
0.010352169000543653
0.010368008939549327
0.010439627328887582
0.010523819448426366
0.010601602606475352
0.010684616719372571
0.01076332610566169
0.010780629846267402
0.01074677140917629
0.01074991840403527
0.01078231747727841
0.010787632018327713
0.010798595091328024
0.010864185080863535
0.010961617734283209
0.011011340264230967
0.010965364770963788
0.010884234588593245
0.010833482756279409
0.010786795108579099
0.01076190043706447
0.010837554517202079
0.010955637153238058
0.010949599673040211
0.01078960401006043
0.010639699469320476
0.010625663343816996
0.0106787652336061
0.010712240459397435
0.010753909857012332
0.010794419990852476
0.010764490463770926
0.010703380755148827
0.010694499406963588
0.01073546551167965
0.010814239690080284
0.010908551164902747
0.010938752270303666
0.010876146182417869
0.010786891039460898
0.01071954455692321
0.01063509749714285
0.010492025748826564
0.010366998920217156
0.010385406487621367
0.010531085133552552
0.010645654802210629
0.010626853751018643
0.01056098731700331
0.010603173580020666
0.010746098235249519
0.010845937984995543
0.010826126872561872
0.010719538973644376
0.010608275299891829
0.01053836231585592
0.010483857379294931
0.010456974557600916
0.010492074000649155
0.010549965109676122
0.010609106137417256
0.01067457933910191
0.010697687813080847
0.010667045060545206
0.010630882857367397
0.010621788538992405
0.010693188728764654
0.0108537938259542
0.011013452340848743
0.011138080381788313
0.01122913470491767
0.011232635146006942
0.011168627412989735
0.011170541536994278
0.01131629643496126
0.011486933180131019
0.01150601369328797
0.01140234743244946
0.011330350870266556
0.011330617140047253
0.01134232162963599
0.011298998687416316
0.01117485129274428
0.011044122679159045
0.010979839167557657
0.010939096016809344
0.010906311720609664
0.010941312899813056
0.011036345581524075
0.011118322792463005
0.011142720286734402
0.011128526628017426
0.01113213002216071
0.011172074442729354
0.011189921386539936
0.011124374829232692
0.01100319817662239
0.01089926610700786
0.01082676111254841
0.010738749913871288
0.01062750341836363
0.010567254326306284
0.010608739568851888
0.01070125591941178
0.010752144129946828
0.01074495546054095
0.01074456360656768
0.010763923735357821
0.010778356958180666
0.010795479035004973
0.010768690407276153
0.010658405688591301
0.010555909289978445
0.010545556754805148
0.010611774013377727
0.010700267194770276
0.010724174552597105
0.010655296267941594
0.010570956612937152
0.010492142695002258
0.010391310793347657
0.01031617407221347
0.010309868841432035
0.010312432190403342
0.010229694154113532
0.010091727511025965
0.010039670784026384
0.010099685546010732
0.010148730906657875
0.010113562485203146
0.010045193191617728
0.010057042073458432
0.010208984771743417
0.010397310629487037
0.01048542165197432
0.010495550408959388
0.010529118995182217
0.010609204494394363
0.010640844637528062
0.010536735723726452
0.010404981402680279
0.010424590539187192
0.010567097384482622
0.010649029058404267
0.010610672957263888
0.010602206159383058
0.010744703416712582
0.010944139515049755
0.011043321257457137
0.011023366497829557
0.010986499497666955
0.01101066178176552
0.011074144635349512
0.011121811540797354
0.011162977456115187
0.01123202923219651
0.011304872389882804
0.011333479676395655
0.01126097708940506
0.011092170695774258
0.010996066969819368
0.0110912110703066
0.011257817428559065
0.011318451883271336
0.011215411992743611
0.011034892331808805
0.01090567876584828
0.010833686389960349
0.010762587380595505
0.01072005438618362
0.010720902401953936
0.010714335893280804
0.010705118379555643
0.010726775745861233
0.0107772067328915
0.010855044741183519
0.0109149191621691
0.010872530145570635
0.010746579230763019
0.010663917097263038
0.010708661149255932
0.010821879622526467
0.010866884584538638
0.01081095139030367
0.010743041532114148
0.010711742942221462
0.010684465696103871
0.01063055070117116
0.010576173313893378
0.010565775679424405
0.010572209302335978
0.010530204391106962
0.010442509432323277
0.010385280540212989
0.010412957947701217
0.01046671885997057
0.010459976149722933
0.01042638897895813
0.010447348253801465
0.010519396173767745
0.010570666659623385
0.010543040833435952
0.010477784764952957
0.01046906360425055
0.010494650583714247
0.010472980197519063
0.010429671960882842
0.010433442424982786
0.010534803462214769
0.010733273648656904
0.010882864450104534
0.010863118045963347
0.010766616449691355
0.010744399731047452
0.01084544180892408
0.010986781991086901
0.011041146484203637
0.011003660121932626
0.010947588360868394
0.010914194877259434
0.010942318867892027
0.010990857197903096
0.010934595190919936
0.010811197669245303
0.010771269164979457
0.010806080987676978
0.010863168532960116
0.010997930546291173
0.011187131046317517
0.0112803167803213
0.01121640575118363
0.011110053723677992
0.011096482025459408
0.011162082469090819
0.011201175972819328
0.011161061129532754
0.011067476430907846
0.011010920046828687
0.011045536305755378
0.011097662593238055
0.011111692269332707
0.011134349429048597
0.011183841498568653
0.011213906998746097
0.011193460067734123
0.011152824047021568
0.011149090868420898
0.011175334160216153
0.01120678881648928
0.011279113544151186
0.01136255829129368
0.01134407524485141
0.011216045613400638
0.01108926658052951
0.011042081150226295
0.01105877717025578
0.01110674589406699
0.011196287064813078
0.011271813060157001
0.011222896394319832
0.01111822116188705
0.011109820092096925
0.01115447172895074
0.011152387680485844
0.011118213306181133
0.011093236980959773
0.011102777081541717
0.011149050481617451
0.011222563949413598
0.011298251757398247
0.011284059844911098
0.011190487942658365
0.011207623174414039
0.011352968672290444
0.011407687859609723
0.011288370680995285
0.01110483547206968
0.010946592492982745
0.010828706538304686
0.010743920267559588
0.010684274258092047
0.010630044406279921
0.010566916414536536
0.010513453800231219
0.010482312091626226
0.010480374419130386
0.010532213752157986
0.010608397428877652
0.010656687314622104
0.010697299600578844
0.01073028867598623
0.010710645746439696
0.010679067918099463
0.010697029293514787
0.010733819627203047
0.010753679927438498
0.010764585793949663
0.010763762281276285
0.010697317561134696
0.010518395914696157
0.010333183719776571
0.010314847626723349
0.010468226545490324
0.010652075316756963
0.010743719306774438
0.010732526239007712
0.010670691062696278
0.01053752523381263
0.010334311742335558
0.01020156334619969
0.010168140889145433
0.010091054509393871
0.009968992066569626
0.009905692050233483
0.009886365588754416
0.009856400820426643
0.009825795693323015
0.009825864885933698
0.009803205733187497
0.00967385410796851
0.009536443701945245
0.009530224087648094
0.009579645106568932
0.009587464341893791
0.009593072147108615
0.009632629570551216
0.009699287703260779
0.009770941720344126
0.009812016151845454
0.009834953704848886
0.009893948915414513
0.009987707627005874
0.010050387931987642
0.010058420938439666
0.010078234113752842
0.010146176978014409
0.010192447332665324
0.010170806818641721
0.010133085679262877
0.010135234422050417
0.01017184189055115
0.010189499980770051
0.010154331303201616
0.010103634353727102
0.010070715281181038
0.010014239884912967
0.00988999794702977
0.00973465689457953
0.009657854456454515
0.00971067403908819
0.009776597553864121
0.009746304503642023
0.009669054779224098
0.009611044712364673
0.009581003384664655
0.009566311524249613
0.009557595360092819
0.009617050490342081
0.009759431798011064
0.009842379670590162
0.00983943646773696
0.009894000440835953
0.009995220401324332
0.010032647913321853
0.010031000929884612
0.010058266767300665
0.010110142221674324
0.010153717030771076
0.010213043065741658
0.010349648692645132
0.010518693546764553
0.010590470200404524
0.010517918867990375
0.010376784191466868
0.010299801635555923
0.01033437272068113
0.010364780933596194
0.010304199666716158
0.01023322152905166
0.010234113154001533
0.010274198092520236
0.010296676340512931
0.010290823350660503
0.01027056282851845
0.010246291868388652
0.01024848678149283
0.010294450814835727
0.010317562646232546
0.010293299076147377
0.01029826223384589
0.010328237744979561
0.010301328813657164
0.010217003524303436
0.010151110095903278
0.010155776077881455
0.0102147582359612
0.010307547207921743
0.010435156966559589
0.010535126198083162
0.010561786093749106
0.010610331040807068
0.010729112001135944
0.010802533230744302
0.010769662279635668
0.010707118539139629
0.010678746053017676
0.010652416786178946
0.0105593190388754
0.010444071111269295
0.010438444716855884
0.010507640694268048
0.010488398089073599
0.010382348536513746
0.010308330547995865
0.0102992451377213
0.010323458630591632
0.010328994016163051
0.010276182559318841
0.010209474405273795
0.01018395798280835
0.010178385311737656
0.010201361519284547
0.010319334845989942
0.010479135108180344
0.010520350234583021
0.010447806399315595
0.010436010714620352
0.010523555525578559
0.010587683762423694
0.010575777934864163
0.010530118849128484
0.010487737283110619
0.010463678818196058
0.010437305103987455
0.010358669240958988
0.01022896321490407
0.010124449492432177
0.010087118982337415
0.010038648061454295
0.009918689671903848
0.009843550445511938
0.009941327492706478
0.0101429598685354
0.01028488696552813
0.010290697766467929
0.01021219797898084
0.010142340236343443
0.010105919162742793
0.0100966627150774
0.010116783236153424
0.010120505224913359
0.010061446675099433
0.009953815964981913
0.009835756081156433
0.00976470199879259
0.009777506194077433
0.00984268831089139
0.009949902454391122
0.01009288402274251
0.010177869573235512
0.010177426794543863
0.010203784108161926
0.010304223890416324
0.010404435340315104
0.010458547370508314
0.010494440444745123
0.010520071922801435
0.010512574794702231
0.010523153194226325
0.010621440415270626
0.010728159570135176
0.010715849096886814
0.01060312571004033
0.010486371056176723
0.01044458094984293
0.010519448048435152
0.01065393019001931
0.010765540464781224
0.010829722792841494
0.010823320900090038
0.010743909529410303
0.01065256324596703
0.010608599991537631
0.010635204305872321
0.010727467145770789
0.01080204916652292
0.010777659136801959
0.010719174980185925
0.01072036055382341
0.010775808915495873
0.010839422256685794
0.010862679551355541
0.010810129651799798
0.0107215547375381
0.010714017325080932
0.01082663556560874
0.010943008223548531
0.010974810444749891
0.01096740178298205
0.010982396760955453
0.011020883806049825
0.011051574465818703
0.011083490941673517
0.011174552110023796
0.011294482238590718
0.011322255707345902
0.011229666080325842
0.011088058901950717
0.0109864966198802
0.010984129081480205
0.011024674093350768
0.011036238870583475
0.011032623960636556
0.011004281151108443
0.010931839044205844
0.010849701203405858
0.010784609257243574
0.010743146878667176
0.010710188485682011
0.010667625549249351
0.010664704008959233
0.010715194311924279
0.010730868917889894
0.010727910939604044
0.010798315699212253
0.010843480643816293
0.010706428661942482
0.010461537991650402
0.010336389867588877
0.010437056832015514
0.010628669341094792
0.010713643128983676
0.010660829823464155
0.010568832592107356
0.010535704614594578
0.010604375591501593
0.010715453107841312
0.010802385723218321
0.010884832250885665
0.010930792628787458
0.010865355837158858
0.010750151164829731
0.010705927405506372
0.010713808606378734
0.010665925424546004
0.010555345918983222
0.010457795700058342
0.010389695344492793
0.010329534579068423
0.010280934725888074
0.01024441134184599
0.0102452748734504
0.010323655200190842
0.010420409911312163
0.010468798596411944
0.010522934654727579
0.010597970187664032
0.010609723422676324
0.010535527425818146
0.010454715942032636
0.010448900423943997
0.010484136645682157
0.01047527143266052
0.010465292395092547
0.010518408780917525
0.010571485511027276
0.010589551292359828
0.010624056537635625
0.010669470885768534
0.010676723257638514
0.01065814359113574
0.010655636643059551
0.010658378978259862
0.01064400104340166
0.010646251970902085
0.010687230853363872
0.010731980628333986
0.010770454597659409
0.010796621781773865
0.01074090551584959
0.010611522835679352
0.010539382142014801
0.01056743721012026
0.010606934647075832
0.010586229492910207
0.010526389996521175
0.010502054071985185
0.01051126400474459
0.010479048048146068
0.01042351991403848
0.01040819138288498
0.010404293378815054
0.010378034044988453
0.010375441489741207
0.010429135812446476
0.01047744205687195
0.010476739048026502
0.010498026977293193
0.010555147887207567
0.010547182713635266
0.010497354934923351
0.01050015201792121
0.01046957406681031
0.010316650499589741
0.010151211149059236
0.010088685154914855
0.010122870285995305
0.010190145261585713
0.010226191468536854
0.01022448532283306
0.010210859286598862
0.01019314386881888
0.01018955028615892
0.010201737526804209
0.010194712090305985
0.01015582775697112
0.010108621031977237
0.010085177170112728
0.010071332319639623
0.00999890749808401
0.009889911036007107
0.009879175904206932
0.009986903709359467
0.010063277338631452
0.010026913806796075
0.00998356780037284
0.010032898387871683
0.010102448323741554
0.010120988562703133
0.010165268271230161
0.010273664873093367
0.010372867272235454
0.010439458447508513
0.010510744526982307
0.010584091260097921
0.01062794475350529
0.010629649288021029
0.010592047786340118
0.010541794160380959
0.010515242991968989
0.010521506201475858
0.010545656713657082
0.010552033982239663
0.010509344055317343
0.010426776050589979
0.010355005064047873
0.01033709310926497
0.01035788699053228
0.01041096555069089
0.010513431085273623
0.010587176983244717
0.010544410338625312
0.01046353726182133
0.01044879062101245
0.010455534812062978
0.010403252593241631
0.010321343769319355
0.01031480188947171
0.010401461319997907
0.01046969098970294
0.010470795719884336
0.010466403178870678
0.010478820269927382
0.010496937320567667
0.010504809790290892
0.010494028418324888
0.010514647518284619
0.010539167905226349
0.010479959431104363
0.010413082628510893
0.010423105959780514
0.010434802388772368
0.010433660433627666
0.010485227615572513
0.010522166108712554
0.010423136916942894
0.010243030274286866
0.010156280286610126
0.010168666834942997
0.010135231837630272
0.010047431564889847
0.009979392201639712
0.009913595649413765
0.009835984273813665
0.009779881513677537
0.009761193939484656
0.009787136130034924
0.009861665298230946
0.009960316135548056
0.010023365151137114
0.010003765453584492
0.00994156304281205
0.00994504124391824
0.010075181815773248
0.01027538672555238
0.010446906751021744
0.010570879681035877
0.010671385652385653
0.010703030806034804
0.010631917626596987
0.010560299945063889
0.010590294147841633
0.010663982410915197
0.010681706299073994
0.010651274616830051
0.010652257185429335
0.010717981257475912
0.010767141901887954
0.010726655512116849
0.010666991518810391
0.010665175439789891
0.010686278245411813
0.01066670702304691
0.01056310576852411
0.01043010047171265
0.010404043258167803
0.0104878852609545
0.010579961831681431
0.010620551672764123
0.010579906003549695
0.010498222946189344
0.010437554689124226
0.01036861817818135
0.010275048804469406
0.010224330816417932
0.010270401830784976
0.010373963522724808
0.010433672871440649
0.010454780468717218
0.010532460804097355
0.010641032150015235
0.010717353955842555
0.01079691344872117
0.010891948319040239
0.010968170799314976
0.011017689709551632
0.011035763947293163
0.01101611867081374
0.010957216955721378
0.010903046331368387
0.010958460313268005
0.011109599815681577
0.01116913543548435
0.01102610799483955
0.010800691382028162
0.010673888958990574
0.010638103219680489
0.01057554220315069
0.010521104447543622
0.010566990757361054
0.010624982295557856
0.010573038663715124
0.010468180440366268
0.01042558521963656
0.010440216669812798
0.010427246508188546
0.010384304975159466
0.010403571426868439
0.010482703424058855
0.01051078172866255
0.010475667044520378
0.010455996990203857
0.010476486501283943
0.010546272867359222
0.010660962513647974
0.01072688349056989
0.010686776423826814
0.010652861041016877
0.010766735221259295
0.010968680959194899
0.011049655731767416
0.010976596027612686
0.010925130625255406
0.010966583453118801
0.011022793990559877
0.011040542013943196
0.011016766456887126
0.010971631533466279
0.010915715126320719
0.010835864492692053
0.01075559426099062
0.010719316662289202
0.01070614839438349
0.010638843793421983
0.010512469210661948
0.010424991389736533
0.010404511378146708
0.010373363806866109
0.01032206058036536
0.01030702377203852
0.010306229828856886
0.010276001179590821
0.010273185311816632
0.010361005892045796
0.010479574119672179
0.010539195584133267
0.010569614758715033
0.010628051524981856
0.010660154917277396
0.010631660833023488
0.010622311900369823
0.010663594393990934
0.010696456958539784
0.010704272957518697
0.01072843347210437
0.010766736092045903
0.010725166564807296
0.010560289206914604
0.01042039587162435
0.01040784880053252
0.01038243449293077
0.010280634500086308
0.01024903923738748
0.010302813868038356
0.010290873907506467
0.010194647922180593
0.010138821550644933
0.010168580412864685
0.01019052390474826
0.01014290438964963
0.010115905995480717
0.010191257605329155
0.01030373375862837
0.010376253104768694
0.010418490068987011
0.01046492942608893
0.010536618595942855
0.010606055688112974
0.010596665618941188
0.010515425340272486
0.010462732799351216
0.010441133282147347
0.010379027794115245
0.010330887851305306
0.010374806774780154
0.010443123984150588
0.010486533753573895
0.010558355581015349
0.010630635591223837
0.010610630693845451
0.010543211582116782
0.010539477742277086
0.01055808860808611
0.010494844634085893
0.01037857610732317
0.010278963674791157
0.010193617595359684
0.010132632716558874
0.01014024366158992
0.010205364958383143
0.010253499294631183
0.010252228891476988
0.010261778235435486
0.010315389120951295
0.010351954917423427
0.010354869272559882
0.01041283190716058
0.010548805226571858
0.010618191086687148
0.010536747253499925
0.010466556446626783
0.010547661739401519
0.010669438578188419
0.010672672153450549
0.01056166471913457
0.010469863219186663
0.010482816542498767
0.01052838260307908
0.010540234753862024
0.010580183058045804
0.010650804210454225
0.010653735580854118
0.010574376685544848
0.010478836530819536
0.01040058038663119
