0.01052170654758811
0.010545198409818112
0.01059512882027775
0.01064736767206341
0.010691983606666327
0.010737668485380708
0.01078512831358239
0.010804936571512372
0.010766654768958687
0.010700179927516729
0.010660162665881217
0.01063493375433609
0.010593826845288278
0.010569763763342052
0.010582439126446843
0.010592367998324335
0.010592273471411317
0.0106002490199171
0.010602503502741455
0.010608649572823196
0.010650855698622763
0.01069677246036008
0.010689284664113074
0.010650083255022764
0.010627574378158897
0.010603086615446955
0.010551302819512784
0.010505795928183943
0.010487455963157118
0.010459621616173536
0.010403631459921599
0.010359622179530561
0.010364928217604756
0.010413628199603408
0.010472948881797492
0.01050822954857722
0.010518762650899589
0.010526583339087665
0.010527129848487676
0.010506461209151894
0.010481050936505198
0.010486310590058565
0.010510868362616747
0.010471976902335882
0.010348025825805962
0.010237728722859173
0.010199520643800497
0.01020272528519854
0.010232018155511469
0.01027481451863423
0.010274669425562023
0.010203783235047012
0.010122438676189631
0.010098230808507651
0.010113688597921283
0.010121994202490896
0.010125200662296266
0.010129852653481066
0.010110586474183947
0.010067729521542787
0.010049431081861258
0.010081225270405413
0.010128214515279978
0.010154377745930105
0.010164587353356182
0.010169009612873196
0.010161342073697597
0.010128916627727448
0.010065402255859226
0.010015997702721506
0.01005429346114397
0.01016078975982964
0.010236723450943827
0.01025413486873731
0.01025388213340193
0.010235885528381915
0.010197555243503303
0.010176911989692599
0.010163202183321118
0.010113082232419402
0.010049373090732843
0.010019343832973392
0.01001149311894551
0.009988922907505185
0.009963484019972385
0.009956023874692618
0.009938630950637161
0.009909541788510978
0.009924827644135803
0.01000217792345211
0.01009050646563992
0.01014268844621256
0.01015734912129119
0.010160630603786558
0.010175572498701513
0.010199610609561205
0.01022203424712643
0.010236220054794102
0.01021685903891921
0.01016952922102064
0.010152644666377456
0.010156139733735471
0.010108791480306537
0.010030147987417876
0.009994436230044812
0.009996541128493845
0.009987734826281666
0.009979327444452792
0.01001101618167013
0.010062396614812315
0.010086279658135027
0.010088324225507676
0.01008763547288254
0.010064217206090688
0.010034071884583683
0.010054949861951172
0.01009986744262278
0.010080847756471485
0.009993755384348333
0.009909919274505227
0.009865654616151005
0.009854419599287212
0.009882538591045886
0.009942345498129725
0.009987776381894947
0.010008667998481541
0.010046653738245368
0.010105964003596455
0.010133038740605116
0.010111779270228
0.010102027095854282
0.0101403109007515
0.01017952722730115
0.010163086035754531
0.010109380651265383
0.010077339126728474
0.010067890360951424
0.01004629433620721
0.010015698769129812
0.009992793162818998
0.009995252364315093
0.010027496994007378
0.010043012506794185
0.010033910092897714
0.010063478315714747
0.01012652700766921
0.010156277134083212
0.010148770425003022
0.010137665579095482
0.010136661266442389
0.010159404003061354
0.010202690588776021
0.010222527345176787
0.010201408262364566
0.010184894814155996
0.010184268977027386
0.010147826753091067
0.010075239094439893
0.010027425033040344
0.010039018446113913
0.010096356652211399
0.01014864751836285
0.010159676254261285
0.010148694089148194
0.010137605408672243
0.010122268723789603
0.010103417963255196
0.010101346792653202
0.010142328259535134
0.010207701150793582
0.010241876589134336
0.010239367396570742
0.010223571262322366
0.010188172447960823
0.010145367356017232
0.01013535545906052
0.010159202932845801
0.010173848283011466
0.010172971279826016
0.010191663415171207
0.010201482563279568
0.010150803404394537
0.010102464642841369
0.010142268838826567
0.010209590366575866
0.010193179612979292
0.010104982298798859
0.010034695470239966
0.0100190916005522
0.010019184031989425
0.00998657670803368
0.009937894390895962
0.009945186506956815
0.010012528458610177
0.010043517497833818
0.01001396269304678
0.01000903863226995
0.010047862902283669
0.010083846624474972
0.010111103523522616
0.01013036525575444
0.010144033697433769
0.01019950803834945
0.010320013840682804
0.010432727069128305
0.01044742060592398
0.010372992733027785
0.010287381336092949
0.010239020676817746
0.010231036893092096
0.010247759665362536
0.010276748824398965
0.010319944096263498
0.010369163074065
0.010396316533442586
0.010392866067122667
0.010384597927331924
0.010398087485227733
0.010431047137826681
0.010448101058136672
0.010422708280384541
0.010370782564859838
0.010309754798654466
0.010252419845201075
0.010228515635244548
0.010231401186902076
0.010214784573763609
0.010178383472375572
0.010174566756468266
0.010216280419845134
0.010255612721666694
0.010259537855163217
0.01023498518159613
0.010197574640624225
0.010153261073864996
0.010111111241858452
0.01010246321093291
0.01013258223887533
0.010163306787144393
0.010192255964502692
0.010232613140251487
0.01025299723725766
0.010261550655122846
0.01031884083058685
0.010409517500083893
0.01044974652118981
0.010406069054733963
0.01031379856634885
0.010232603866606951
0.010212172984611243
0.01025015473831445
0.010305237523280084
0.010360671856906265
0.010415179813280702
0.010452383810188622
0.010489988832268864
0.010571063226088882
0.010669518080540001
0.010719831390306354
0.01071346146054566
0.010692550586536526
0.010691181027796119
0.010690933440346271
0.010657372074201704
0.010604922689963133
0.010560958657879382
0.010537831822875886
0.010553725238423795
0.010589672506321222
0.01058977999491617
0.010547769500408321
0.010514767500571906
0.010542659682687371
0.010638611887115986
0.010744464707095176
0.010793069226201624
0.010782338553108275
0.010768827663268895
0.010793060292489826
0.010833112283144146
0.010851712760049849
0.010836970238015055
0.010785607672296464
0.010711499657481909
0.010656471503898502
0.010654782366473228
0.010705104931257665
0.010781029174104333
0.010847912894096225
0.010877717996481805
0.01086592439794913
0.010820397976785898
0.01074949068715796
0.010681800325401128
0.010646990691311657
0.010623550519812851
0.010575905884616077
0.01053095880895853
0.010531447376124561
0.01055782979587093
0.010569003759883344
0.010554362328257412
0.0105045779584907
0.010406557044479996
0.010300854402594269
0.010263377295341342
0.010309320755768568
0.010378322238102556
0.01040545223513618
0.010387193742208183
0.010360873388126492
0.01032569352304563
0.010269718430936336
0.010234529906883836
0.010259485533460976
0.010324697154574096
0.010392754657659679
0.010448158201761544
0.010487753984052687
0.010522796409204602
0.010575515439268202
0.010640714578330516
0.010682267157826573
0.010674828332848846
0.01063384743174538
0.010600389442406594
0.01059492263942957
0.0106056286720559
0.010612245604861528
0.010603815757203847
0.010582149324472994
0.010564344821032136
0.010583606832660734
0.010654275231063366
0.010743248020298779
0.010803270973265172
0.01081731129437685
0.01081131107872352
0.010821066715288907
0.010839407872408629
0.010843153481837363
0.010845813150517643
0.010854534169193358
0.010839976808056236
0.010799217745661735
0.010791392233222723
0.01086854575900361
0.010990449115633965
0.011062530472408981
0.01104372977046296
0.010959314426872879
0.010856101289391518
0.010798409206327051
0.010810297823045403
0.010790385792497546
0.010648532777559012
0.010495657082647086
0.010479076895862818
0.010554512676317246
0.010586477569304406
0.010510778278112412
0.010397510309703649
0.010419545732438563
0.010631110016256572
0.010862282307352871
0.010960686774924398
0.010964382705278695
0.010952322892844677
0.010915151620283723
0.010862872055731713
0.01090823054080829
0.011148719226475805
0.011574969843495637
0.012129433122463524
0.012719817799516022
0.0131753512728028
0.013307297548744828
0.013548201962839812
0.014179730352479965
0.015050002224743366
0.015977045930922033
0.01676205510040745
0.017206168193370106
0.017156055870000273
0.01742885882500559
0.017929586477112024
0.018335130938794464
0.018460166819859295
0.018430985086597504
0.018449947172775864
0.01852268254617229
0.018526254636235535
0.018488665535114704
0.018468780503608288
0.01861613892717287
0.0187821339443326
0.018745503791142256
0.01879831332946196
0.018741524929646404
0.01890137985115871
0.019140621663536875
0.019360310083720834
0.019578412431292234
0.019788307128474115
0.019949203999713064
0.020069302101619543
0.02016695966478437
0.020209198324009775
0.020168732008896767
0.02006859887158498
0.019962376318871974
0.01990371382329613
0.01989571192767471
0.01982568685896695
0.019776286887936294
0.019747850538697095
0.01975059394724667
0.019806507444009185
0.019911230797879396
0.019986490516457706
0.01997093766462058
0.019932381114922463
0.019982769486960025
0.020119152071420104
0.020213363377843054
0.020166849736124277
0.02004812876926735
0.019958455723244697
0.01990060669137165
0.019840113441459833
0.019805261672008783
0.019793591545894742
0.019738133642822505
0.019627240241970868
0.019561904806178063
0.01962688454426825
0.019749685518909245
0.019798769522458314
0.019783517050091178
0.01980579523835331
0.019877690388821066
0.019959071381017567
0.02006378410384059
0.020191499476786702
0.02030640417477116
0.020403842511586844
0.020471543208695948
0.020481033918913455
0.02046368091600016
0.020492232339456677
0.020611163673456757
0.020825758473947645
0.02114614542108029
0.021646181156393142
0.02237476141192019
0.02314150526886806
0.023587064016610385
0.023502960812766104
0.02381588347721845
0.024606109026353806
0.025563827487640082
0.026314526756759733
0.026765687398146838
0.026987494563218205
0.026980767445638775
0.026997045564930888
0.02745768115390092
0.027984246301930398
0.028401061340700834
0.028726377049461006
0.028952236445620658
0.02899949576240033
0.028711445843800903
0.02805882659740746
0.02766712539829314
0.027726182041224092
0.028360376423224806
0.028732575576286765
0.02814900492550805
0.027367027015425264
0.026586924102157353
0.026050997206475586
0.02604348770575598
0.026578922925982625
0.026709179277531803
0.026551316862460227
0.026417344093788417
0.026407969775609674
0.02643195169977844
0.02643736096797511
0.026446123081259428
0.02646210095845163
0.026474709315225484
0.026402250302489848
0.026204151834826918
0.02612484462792054
0.026326223355717958
0.026425488584209234
0.026630404277238996
0.02666218290105462
0.026630648153368384
0.02658683781977743
0.0265154586895369
0.026420196413528173
0.026301424712873996
0.026130176968872546
0.02597446578089148
0.025922849616035817
0.025951604244764895
0.025960785928182305
0.02600366952130571
0.02602446265751496
0.02601125204237178
0.02609714773716405
0.026246287832036613
0.026449292208999397
0.026633769823238253
0.026720844197552652
0.026691606442909688
0.026667145644314588
0.026712758608628064
0.02664655433036387
0.02660461046267301
0.026577550894580783
0.026545951762236654
0.026519102700985966
0.026565850363112986
0.02658494661329314
0.02659490410471335
0.026614889076445252
0.026604865798726677
0.026580140846781432
0.026657876912504434
0.02706625747261569
0.02795855209697038
0.02908750264206901
0.0299436740973033
0.03032576172845438
0.030426422187592835
0.030331599179189653
0.030753414696082473
0.03177170517155901
0.03270484631182626
0.03296848963946104
0.032736827242188155
0.03258798802504316
0.03243814520770684
0.03238794530974701
0.032375724986195564
0.03243880716152489
0.032267217822372914
0.03217607498867437
0.03179345220793039
0.03145609277533367
0.03102844241075218
0.030410623874049632
0.030170656158588827
0.03049863182241097
0.030202614918816834
0.02936612390447408
0.028684092864859848
0.02844251144211739
0.028429725305177272
0.028412760510109367
0.028655012778472155
0.02911760128568858
0.029111398269888015
0.028647061502560973
0.028475934024900198
0.028870226189028472
0.029610221153125168
0.030376588618382813
0.030944389121141284
0.031139345134142786
0.03101669526658952
0.031191584742628037
0.032066828946117315
0.034023244015406816
0.036704377555288374
0.03866426708409563
0.039680146432947365
0.039797784378752116
0.03995003791060299
0.041183646686840804
0.043136386314872655
0.0448786397324875
0.04568043159786612
0.045618411188479514
0.04645952096674591
0.04721006902866066
0.047290877832565456
0.04774234110722318
0.04895637855632231
0.05060662888688967
0.052236933067906645
0.053460485658142716
0.0538818550738506
0.05399234396172688
0.0547445820667781
0.05564934892347082
0.0564458023221232
0.05716021787840873
0.058039805497974155
0.059139696625061335
0.0600480910600163
0.06044097906909883
0.06046697537181899
0.06043604717822745
0.060528978235088286
0.060864037284627553
0.06141980415442958
0.06218571820296347
0.06280066963518038
0.0627244566497393
0.06309485371457413
0.06364952581701801
0.06442198246018961
0.0654393000039272
0.06609711898025125
0.0663024460687302
0.06762949001044034
0.06922216877574101
0.06999017456779257
0.07003418270964175
0.07011968499980867
0.07050296365981921
0.0706163943069987
0.07089462813688442
0.07127303711604327
0.07122980704763904
0.07153621807694435
0.07168194372672587
0.07163148514227942
0.07123713612789288
0.07091657637851313
0.07041124020935968
0.0695367440674454
0.06939720233203843
0.06944441606290638
0.06943543141940609
0.06886189199984073
0.06784539770334959
0.06724460483295842
0.0672227791743353
0.06753596142400056
0.06825029954081402
0.06985584612237289
0.071542076789774
0.07228144886437804
0.07228515553753823
0.07297487020026892
0.07459906035801396
0.07827095528831705
0.08246070087654517
0.08518195550423116
0.08601953246630728
0.08632979368790984
0.08734946759650483
0.08877859180793166
0.0900192726147361
0.09067455132259056
0.09117634045658633
0.09186528475955129
0.09256198714254424
0.09283326319418847
0.09259663572302088
0.09228789800545201
0.09236661097733304
0.09229116015369072
0.09171309117460623
0.09073143205838279
0.08975355816539377
0.08930834677070379
0.08959609714336693
0.08979278565617278
0.08913205811288208
0.08742482484783977
0.08489878001390025
0.08242976723704487
0.0805235982942395
0.07953350652009249
0.07997146611334756
0.08033445945242419
0.07922765024006367
0.07689380518626422
0.07506076785502955
0.07424072716152295
0.07414762161206453
0.07324961033184081
0.07260685236658901
0.07254786948207766
0.07202141125453636
0.07083881980506704
0.06949180025607347
0.0681815328891389
0.06711288164602593
0.06678378089796752
0.06670573770301416
0.06576634705532342
0.06472791877109557
0.06400591876357793
0.06351160797057673
0.06268641937756911
0.06145309658022598
0.06070016910554841
0.06052739451872185
0.060644781251903625
0.060761885449755935
0.0607893232954666
0.060644411898683755
0.06021895358571783
0.05961345596704632
0.05928599615115673
0.059634880910161885
0.059279108329210434
0.0585218134149909
0.05751640524482354
0.05628477302379906
0.055469148939009755
0.05522462498396635
0.05397506896173582
0.05258664738852531
0.051795527457725254
0.051733662094920876
0.05202237947611138
0.052144663333892824
0.05220645359484479
0.05195031967246905
0.05181301811942831
0.05226772251073271
0.052357829939574003
0.05244791677454486
0.05266506602521986
0.053034430723637345
0.05274433909682557
0.05213551314547658
0.05203895781887695
0.0517248146282509
0.05153976928209886
0.051547085903584956
0.051536083386745306
0.05131988766370341
0.050862304146867245
0.05073640859685838
0.050961957341060043
0.05039424340240657
0.049249383735004815
0.04841249123448506
0.048145602904260155
0.048033597394824025
0.04758609581971541
0.04650202464312315
0.043540276093408464
0.03933572213631123
0.03621806895593181
0.035204426839482036
0.03505856272997335
0.034319355993065986
0.03339219085406512
0.032845730683766304
0.0326372141088359
0.03185088199796155
0.031252748903352764
0.03143542964011431
0.03213745259912684
0.03308695337269455
0.033984481273218986
0.03437292811227963
0.03422158296918496
0.03403733001556247
0.0339171364530921
0.03410077997483313
0.03444329292280599
0.03470447116531432
0.03509632973698899
0.03573173785349354
0.036050113041419536
0.03638502491172403
0.03668469392461702
0.03663396462332457
0.03647598079638556
0.035636923650745306
0.03499892090447247
0.03469007718143985
0.03459025739459321
0.03462015294935554
0.03487361175240949
0.035596275702118874
0.03652518251677975
0.03704234666191041
0.036924767249729484
0.03726098756538704
0.037286188933067024
0.03727686124155298
0.03731274937745184
0.03733620749786496
0.03737478319555521
0.03781872521154583
0.03883802912430838
0.03939671598142013
0.03918885304126889
0.039430671378504485
0.03965326468693092
0.039603434735909104
0.03983167049707845
0.04021257059881464
0.04017903266940266
0.04060965109383687
0.04134924580808729
0.04181325563462451
0.041786109746899454
0.04169399729697034
0.04147837259573862
0.04117399953072891
0.04111739347456023
0.04110336918151006
0.041129068061709406
0.041375553293619305
0.04152575238607824
0.04158288946608082
0.04200319608906284
0.04280896278098226
0.04336221015546471
0.04331481251865625
0.043243209470529106
0.04276997895212844
0.042834500547032806
0.04297022533370182
0.04283522072248161
0.04271622657310217
0.04268337718443945
0.042613948436919596
0.04246044469997287
0.04236748115625232
0.04221671076025814
0.04256170623470098
0.04390688553219661
0.04514939170796424
0.045124154954683034
0.04647616971982643
0.048083194450009616
0.04898148577427491
0.04920271255308762
0.049129713077563794
0.04872311262181029
0.048902333877049384
0.049125681060832
0.048374969554133715
0.04860616349149496
0.04943469714140519
0.049411771853920074
0.04873658138792962
0.048576464545913044
0.049320116140879694
0.050261153073515745
0.0507028649118729
0.05061563120223582
0.05072779719019309
0.050601321943104266
0.04988547617336735
0.04912063985830173
0.04951822801493108
0.0501666954299435
0.05016740454826504
0.04963547164108604
0.04878018486779183
0.04781210158253089
0.04737811604747549
0.04779306789161637
0.04834225941915065
0.04870409171795473
0.0487133631715551
0.04858636182965711
0.04845290508819744
0.04804524917155504
0.047325155921280386
0.04713566987775266
0.046906575604807585
0.04632075587986037
0.046168370491359384
0.04617592184338719
0.04638193860417232
0.04643705422058701
0.046544343191199
0.046859306695405396
0.04659127016551792
0.046127019207924606
0.04538666140288115
0.044968504649586974
0.04508768394589424
0.04525797312846407
0.04574844206683338
0.04665518621448427
0.04653795160353184
0.04760598127963021
0.04880520557286218
0.0492975929309614
0.04907975782174617
0.04824105230160058
0.04784410037798807
0.04858324001776054
0.04901504735462368
0.049345330076757815
0.0494751459849067
0.05016971938544884
0.050837011013645676
0.05127774006919936
0.050785293099470434
0.04999215173302218
0.04936117961769924
0.04951996409799904
0.04971824910957366
0.049624958590138706
0.049765367484651504
0.049866889885161074
0.04985779478447512
0.05036612234544009
0.051428332794457673
0.052101792232133445
0.05251712547149509
0.053048591634724286
0.05229324706364423
0.05231990918051452
0.05272003023419529
0.0525655720080249
0.05310575073119253
0.05320745680946857
0.053323751245625314
0.05357325375778601
0.05355774850118905
0.0533342797239311
0.05330393107607961
0.053364684937987475
0.05308192854281515
0.052979494149331
0.05256679601501674
0.05114522960269824
0.05000473110936582
0.050195708596147595
0.048861976268235595
0.04764868122292683
0.0475825205212459
0.04760158328106627
0.04830881162080914
0.0500473713199608
0.05083484494592994
0.05020922868512571
0.05007890058448538
0.049914475490804765
0.04977978899609298
0.04981239655986428
0.050255291825160385
0.0504646811215207
0.04981804522452876
0.04899439241969958
0.048918059275019916
0.048797302874736485
0.048267864307854326
0.04813929440453649
0.04809195228619501
0.04879730549873784
0.04899008468026295
0.048016859197523444
0.046986608456354585
0.04713180645368993
0.0481245297845453
0.04899087392026558
0.04897111826576293
0.04872326718177646
0.048509045452810824
0.048816773276776075
0.049444604136515406
0.049525615368038414
0.04900334757054225
0.048711567996069786
0.04884879164863378
0.04892662635538727
0.049407358116004614
0.049748985827900466
0.049912809315137564
0.05037116504274309
0.050636900435201825
0.05040826018434018
0.049920469960197805
0.049610334013123064
0.04971487087896094
0.04995162633247673
0.050250355983152986
0.04981070553185418
0.0489243050199002
0.04875056084012613
0.0483894994109869
0.04814989369129762
0.04849179704440758
0.047020027337130156
0.04563872419763357
0.04494643299141899
0.04460833688732237
0.044484540740959345
0.044179940414614975
0.04345501050120219
0.04252187066012993
0.041801091546658425
0.041660154673736544
0.040463176374323666
0.039186168315354736
0.03860375905409455
0.0386409973166883
0.03874224095139653
0.03879881069296971
0.03861003903439268
0.03849706823239103
0.03852670363616198
0.038840114385820926
0.03956309710629284
0.040202646804973485
0.039659754410386085
0.03889386921655387
0.0383029128680937
0.037994478431064634
0.037180981256533414
0.037066892699804156
0.036439027504529806
0.036027718971017746
0.03606098723132163
0.03590804100967944
0.035845454020891336
0.03567403518827632
0.03536816325504333
0.035156721803359686
0.03497661042492837
0.034934786467347295
0.03479398653376847
0.034927314452361316
0.03490879054181278
0.03506961815059185
0.0354576524393633
0.035379643570631746
0.035200041488278655
0.035340722443070266
0.03517436846159398
0.03441989261424169
0.03407133490080014
0.033126900407951326
0.03149891814449802
0.03060880860546604
0.03062233185628429
0.030727516498882324
0.030525591988116503
0.03018747069174424
0.03012691099429503
0.029756335993297398
0.029188281509559603
0.029092119350098075
0.029148958164732904
0.028813952719792722
0.02901047820225358
0.029264388508163392
0.029033251493237912
0.029210449415259063
0.02881807792233303
0.028217100945767015
0.02808553596958518
0.02806997038424015
0.027367557242978364
0.026183225114364175
0.025283302175812424
0.02516703212633729
0.024986298768781126
0.024760024428833276
0.02422338536940515
0.023371491783764214
0.02285638908389956
0.022940543387085198
0.02301058071432635
0.022802043152041734
0.022954180070664732
0.02246347220148891
0.02248414094094187
0.022937699877656995
0.022638029914814978
0.02245387285714969
0.022740626314189286
0.022963778909761458
0.023031034041196108
0.022949252002872525
0.02289148765616119
0.02362040331121534
0.02476145393680781
0.02519421115517616
0.025623728684149683
0.025732994840946048
0.024994104066863657
0.02486480868421495
0.025142286913469435
0.02502971901325509
0.024921524706296622
0.024798712925985456
0.0247589700226672
0.024818110833875834
0.02468793623149395
0.02456470046658069
0.024559771071653812
0.02458715047687292
0.02464283863315359
0.024872324094176293
0.025196493426337837
0.025145296447444707
0.025091581630986185
0.0251730512897484
0.025134441640693693
0.025067810809705406
0.025069192952942104
0.02471386345801875
0.023805645790416746
0.023173324048984797
0.0234130805474706
0.023273492753505706
0.02304365552496165
0.02356907072244212
0.024187336119357496
0.02463243472157046
0.02497824257938191
0.025225017010234295
0.025055324255954473
0.024788146037608386
0.024683959118556233
0.024632062928285448
0.024562295051291583
0.024538600370287895
0.024578959823120385
0.024441190192010253
0.024443750802893193
0.024376108935102822
0.024333398812450467
0.024083183659240604
0.023876158439088614
0.024163558753207325
0.024435219306033106
0.02429120400454849
0.02412633647909388
0.024077627784572543
0.02411250174511224
0.02406034231418744
0.023846956223715098
0.023548298226669432
0.02347607843577862
0.023359921488445252
0.023036623988300562
0.022840738813392818
0.022903228371869772
0.022914921969641
0.02272948736557737
0.022496617508586496
0.022501901190262286
0.022726896482054143
0.02251277132658288
0.022087624999694525
0.021914630020037292
0.02179611778818071
0.021607035004999487
0.021558910538442434
0.021558661160524933
0.02140356885269284
0.021114223094191403
0.02088578393450007
0.020827605102676897
0.02083485243143514
0.020778085503261535
0.02072831283090636
0.020685963779687882
0.020840905932709576
0.02086743588326499
0.020639100580010564
0.02046185586368665
0.02064817727776244
0.020438362511340527
0.02027260759379715
0.019858050756156445
0.019284035721793772
0.019177747739013283
0.01901883581187576
0.018596143987961115
0.018389319877605885
0.018339439146220684
0.018478272161446513
0.018580328938551247
0.017846827374305575
0.016702411556616427
0.016297799083404244
0.0158862683060579
0.015328515232540666
0.015389556935988367
0.015119192742276936
0.014938004154246301
0.01497357004089281
0.015071239701937885
0.015267770865466445
0.015361120025627315
0.015328213376924395
0.015287241090554744
0.015266286418773234
0.015282739866524935
0.015374610358849168
0.015451178953517228
0.015387828215025365
0.01523610376752913
0.015206928616389632
0.01502438796684146
0.014863820946775377
0.01482097706058994
0.014802347566001118
0.0149412787752226
0.014938778227660805
0.014868222346995025
0.014785453595686704
0.01449220591923222
0.014044426132459193
0.01405602634884417
0.013261971559841186
0.012327214614488184
0.011811289642937482
0.011515735869761557
0.011203598862048239
0.011139902099967004
0.011108615871053188
0.010973847238346934
0.010942738282028585
0.0111018248507753
0.011409918444696814
0.011926858194638044
0.012496199503075331
0.01288551908219233
0.013070315055083484
0.013174148814287037
0.013155864558648318
0.013121021543629468
0.01303891720250249
0.013018972149584442
0.013200202558655292
0.013265674961730837
0.013305449322797359
0.013305289628915489
0.013341466069687159
0.013363772765733301
0.013613258528057486
0.013932838756591081
0.014292426421307028
0.01459626437863335
0.01476969662355259
0.014963672950398178
0.015359366745688021
0.015900214042048902
0.01652017912827432
0.01707886632764712
0.017428981952834873
0.017494242230895907
0.017554615449626
0.01773798933485523
0.017833713844884188
0.017764324457384646
0.01767168454360217
0.017697827408555897
0.017733522371854632
0.017670306540094317
0.01771844369592145
0.018027317824307828
0.018811862289439887
0.02010211758315563
0.021316471288446336
0.021855625181924552
0.021624214339535684
0.021830819777678697
0.022312146497424693
0.022806779907550662
0.023170970494393258
0.023635227121412753
0.024295967475045473
0.02496317706303671
0.025408442593179644
0.025540338228456676
0.025490457273554055
0.025594237241894007
0.025955680133774875
0.026335705444216727
0.026433634923305364
0.026644094383809717
0.027356252253521233
0.028237922221887857
0.028650073015596716
0.028560421380680056
0.02862747309496626
0.028807713671121747
0.029433768761809916
0.03062933298293501
0.032087385666091
0.03323716537794098
0.03374976071761921
0.033776066133286806
0.033877418506890536
0.034178568872157485
0.03442982989596203
0.03461216380819678
0.03480849767569452
0.03490565541898832
0.03479252021061256
0.0346703596576117
0.034781820110511036
0.03506172131979838
0.03541134325088933
0.03577110421378166
0.03594275022856891
0.035859452274162325
0.03585785699309781
0.036245994884520766
0.036695489538833496
0.03692160134203732
0.037046132518444214
0.03718927331501618
0.03738386284792796
0.03754457820672542
0.03782686640508473
0.038346753416117284
0.03891652406193316
0.03917492802953348
0.03912452103337273
0.03906974925659597
0.03906541058793664
0.03901702422415838
0.03895052563864738
0.03886244202265516
0.03855858288239688
0.038204978292342276
0.03834376184735447
0.03884053243789822
0.039715345674194394
0.040462416678201406
0.040796992715913805
0.04086508726933971
0.04069952982477844
0.04086243201745674
0.041228038410190494
0.0413549984106794
0.041322838061023506
0.04142177182948217
0.04145527017302811
0.04132624068763107
0.04110059050610289
0.04082011875929311
0.04045606899773702
0.04014042670605704
0.03966154633788392
0.03929333794862032
0.038878309088759125
0.03843159477459267
0.03832161226309836
0.03866842687362805
0.03894378757569939
0.03890227906173095
0.03893478572135791
0.03926859521307051
0.039727690622676164
0.04012245670659467
0.04046111887553707
0.040665236245840786
0.04062180061126128
0.04049195817671716
0.03990448068128899
0.038766075391322374
0.037530620330944654
0.03697486345889047
0.03710024526808411
0.036901516404468565
0.036511597556527706
0.035956582359503955
0.03537124888040125
0.034822207561228426
0.034342772993259135
0.03386683608172461
0.03340757198398933
0.033150238606613126
0.03319340229034424
0.03321221990976483
0.0328354395320639
0.03261127393692732
0.03245235274313018
0.031910083079710605
0.030901764994487168
0.029993799775838853
0.029623194264713673
0.02965756278950721
0.029701127777807413
0.029538135773036628
0.0288322865543887
0.027586512619163842
0.026135647399351
0.024945490588434042
0.02435028010746464
0.02431036069057882
0.02422764976741746
0.023905316586606204
0.023688976124394686
0.023681677333079278
0.02370740148238838
0.02375576589256525
0.0239357731025666
0.024127764536533505
0.024188219199422746
0.0242743432126008
0.024591937453951686
0.025169785600155592
0.026044305199757218
0.027060894113965332
0.027560279285535217
0.027215967839583754
0.027282764846459032
0.027456554311793297
0.02765620158519596
0.028242384465411306
0.02908699133899063
0.029269072636961938
0.029499624103773384
0.029740204156842084
0.029383431477472185
0.029600069120060652
0.030544681320898236
0.03180278379702941
0.03319838558323682
0.03427214371971786
0.034499838061165064
0.03410389131633565
0.03383894747588784
0.03373609342146665
0.03364134590141475
0.03362788735888898
0.033421744981314984
0.033165673715993764
0.03321663179434836
0.03353636112529784
0.03402600504923612
0.03413137947209179
0.03407951292581856
0.03428534866543487
0.03462342961225659
0.03479812880279496
0.034791201048064976
0.03468606379348785
0.03452947632176802
0.03448874504538253
0.03467663211049512
0.03486861197510734
0.03520432126475498
0.035324656132142994
0.03523853038670495
0.034993511401116846
0.03458376362221315
0.03418575369985774
0.03404618914006278
0.03409088044892997
0.033999970746226606
0.03363170250551775
0.03310819811420515
0.03256471429485828
0.032118093490134926
0.031943247702438386
0.031928555460181085
0.03171238515293226
0.031534372468013314
0.03137761053396389
0.031379481630865486
0.03138575936900452
0.031265249534044415
0.031175248194485902
0.03126242979196832
0.03147621599491686
0.031638941783458
0.03170167124364525
0.03164984110742807
0.031609463593922554
0.03168177973013371
0.03175814464921132
0.031654999731108545
0.03155273473821581
0.03162638294510543
0.03147431344725191
0.03131196814822033
0.0313172496878542
0.031411123257130386
0.03143627364654094
0.03139191671274602
0.031425327942706645
0.03149804302258417
0.031730932467617094
0.032053277825471016
0.032256353506818415
0.032347360777202995
0.032506608571857214
0.03271982040256262
0.03286555532831699
0.033014528919011354
0.03326703074621037
0.03349957636557519
0.033514208160340786
0.03329224982764572
0.03302335599437356
0.03281702592270449
0.03267275854945183
0.03263468873454258
0.03245912708574906
0.03185244438704103
0.03089758734917268
0.029746098292525856
0.028637642371468246
0.028082673051394523
0.028218809321988374
0.027896368326619268
0.027617744971066713
0.027437704564072192
0.026900345659814775
0.026158315751235933
0.02609255842398852
0.025777224912308157
0.025135948311071844
0.024987463941797614
0.024466672567650675
0.023474307330325246
0.022254693335853518
0.0208224335196428
0.019651239740196617
0.019133756931405514
0.019081172908190638
0.019147664485499264
0.01926041889702901
0.0191003955504857
0.018648033826611937
0.01807467550970614
0.01745860464638099
0.01682854841230437
0.01616603665985167
0.01566694618901238
0.015321862339042126
0.014962095660157501
0.014576496607623994
0.014279725372325629
0.014081206221599132
0.0139235445484519
0.013808234876487404
0.013823973683174699
0.013806576018687337
0.013608069280162454
0.013347078759688885
0.013016502272803336
0.012724439692683519
0.012638865606859326
0.012742254277691245
0.012885279485490174
0.012975299037061632
0.01298987541347742
0.012985230300109833
0.013079928164370359
0.013300555346067994
0.013508256373461336
0.013551104224752634
0.013446166214998811
0.013419158761389554
0.013391305811237543
0.013485570505727082
0.013543887070845813
0.013646183921955525
0.013719208005350083
0.013753361522685737
0.013797966344282032
0.013870301241986453
0.014037290669512004
0.01434732277179137
0.01461965188384056
0.014637509919703006
0.01451201069401577
0.01438948990777135
0.014362180826719851
0.014599170607980341
0.014997299583628774
0.015132048334926367
0.015184595608152449
0.01544586437754333
0.0157042926363647
0.01583055172348395
0.01583963420940563
0.01582779588876292
0.015902096456848085
0.01594807697692886
0.015863318662159145
0.01563050061231479
0.01535816373070702
0.015196198446210474
0.015117547824047506
0.014995023771189154
0.014818261305335909
0.01468022120418027
0.01459969939198345
0.014477542096283286
0.014273701715283096
0.014115991597063839
0.01412808095337823
0.014200339941307902
0.01420601095771417
0.014187955227680505
0.014137255002278835
0.014084383223671466
0.014073233793023974
0.014058880424126983
0.014086790601722896
0.014190896656364202
0.014312413814477622
0.01442181613529101
0.014518413138575851
0.014612208786420524
0.014692043953109532
0.01467806194908917
0.014490002521779389
0.014198777156416327
0.014073333120904863
0.014095514649525284
0.014166687042452395
0.014147189871873706
0.014211809956468641
0.014204220313113183
0.014249431437347084
0.014341782932169735
0.014418262166436761
0.014410381850320847
0.01432401902973652
0.014243687281850725
0.014186368074733764
0.01410325022181496
0.014069956575985998
0.014224779093638062
0.014505035651382059
0.014800950882490725
0.014941828546579928
0.014985148324631154
0.014989030479919166
0.01503757969243452
0.015002416661009193
0.015071863634511828
0.01518692060140893
0.015217744703404605
0.015276679743546993
0.015354509737808258
0.015367236281745135
0.01538733848137781
0.015558224245905876
0.015786358094774185
0.015896884757094085
0.015852419822476805
0.015706340682227163
0.015461735224816949
0.01530491973273456
0.015261483089998364
0.015076850145123898
0.015169392123352736
0.015406789525877684
0.015581836169585585
0.01565478497883305
0.01562527166446671
0.015744127919897436
0.015840274407528342
0.015805900425184517
0.015700837071053683
0.015566967627964914
0.015469549507834017
0.015469231500755996
0.01547109944280237
0.015219829936977475
0.015064271960873156
0.014899445134215056
0.014796178156975657
0.014797838893719018
0.014901779869105666
0.01497425994835794
0.014782098708674312
0.014461705251596868
0.014342690457124264
0.014286512460093945
0.014107920713722705
0.014040706439409405
0.01406242672353983
0.01401272882707417
0.013909092650283127
0.013789044269360602
0.013797326197382062
0.013943105153739453
0.014111929188948125
0.014187919672112912
0.014190898116212339
0.01421781765529886
0.014279918638058007
0.014280014457181096
0.014123635580763221
0.014180749407969415
0.014307223751675337
0.014298972529359162
0.01415431410074234
0.014063171003945172
0.014042763870675117
0.01404136345954612
0.01417702728882432
0.014287029881961644
0.014372540679760277
0.014485165935475379
0.01454492491669953
0.014522173181176186
0.014504195668268948
0.014489042218774556
0.014387255553156137
0.014210025949869304
0.014048687831964344
0.01395820508012548
0.013973325083497912
0.014116208620835095
0.014312897934578359
0.014347059656865896
0.01430543604074046
0.014313564093317837
0.014451922057196498
0.014459839356131852
0.014475501470733433
0.014433712190948427
0.014325346420519055
0.014325518140103667
0.014491514896508306
0.014593594102188944
0.014559202764648943
0.014459856422618031
0.014383063090499491
0.014384242005180568
0.014270324711687862
0.013997014767955989
0.013756148810498416
0.013733245611656458
0.013925929588731378
0.014214173287618904
0.014359965182375162
0.014471315308474004
0.014472852956969292
0.014460045485757292
0.014502967025619
0.014410423832014203
0.014328100918792188
0.014342883015051483
0.01433266157284379
0.014163803020492196
0.01403377575566992
0.013989675748161972
0.013934708391316235
0.013908793299924583
0.014024486527778207
0.01411630627233535
0.014131136578507722
0.014286190534476191
0.01415451426524669
0.013877815091982484
0.013696262226440013
0.013690618756227195
0.013741897288709878
0.013712296856101602
0.013622665663715451
0.013591662747785449
0.01358239453053102
0.013596961726434528
0.013588406560011208
0.013482055782806129
0.013330861635040492
0.013367583910003304
0.01320790427038446
0.01311788585735485
0.01323385483585298
0.013383814643602818
0.013367861788719893
0.013207853988278657
0.013028168340679259
0.012940758352633565
0.012962824997957796
0.013186582445632667
0.013421068014577032
0.013422769773751498
0.013235298430081456
0.013201298741623759
0.013212349999230355
0.013252211443614215
0.013161098677664995
0.012956624310463667
0.012741379833314567
0.012703232250642032
0.01268139535561204
0.012564189948607236
0.012428506650030613
0.012434464485850186
0.012652244451455772
0.012643074116203934
0.012551636258140207
0.012627239564899355
0.012853651701007038
0.012975056909490378
0.012942792745307088
0.012912093175109475
0.012872066423296928
0.012833370096050203
0.012607879950664938
0.012646683335769921
0.01278295025229454
0.012805742358323187
0.012820858166087419
0.012790793541353197
0.012712481443304568
0.012681900670286269
0.012734096117783337
0.012781330170109868
0.012724567437544465
0.012551854338962585
0.01232517538126558
0.0121213664021343
0.011992596078198404
0.011965436467435211
0.012042624389287084
0.012112376645673066
0.012080230275169015
0.01208253795746714
0.01224027382908389
0.012381137770134956
0.012327041344251484
0.012216851515695452
0.012196944283787162
0.012198418362531811
0.012191795667167753
0.01213432100135833
0.012081463460344822
0.012062904872000218
0.012075992240570486
0.012158651691861451
0.012181550422683358
0.012122156717814504
0.012099211108870805
0.012112618223764002
0.01205842673080042
0.011958447825163603
0.01193916501943022
0.011993040412198753
0.01200691756559536
0.012022799905389547
0.011994790339376777
0.011977191127371042
0.011872649658471346
0.011757472164463252
0.011728602070361376
0.01170768915908411
0.011632556754630059
0.0115594129008241
0.011550108960364014
0.011577509855851532
0.011561057174112647
0.011478764517232776
0.011401728473138063
0.011381344413384795
0.011378151420503855
0.011343547154683619
0.011299528647214174
0.011320975036360323
0.011430939298588783
0.011553022230509668
0.011658730427734553
0.011807469064369797
0.012018516967073083
0.012167930959258229
0.012217920294497163
0.012192465607076883
0.012107876103837043
0.012010886827483773
0.011923838427755983
0.011880930489860475
0.011892324844375253
0.012042800304479897
0.01223468139069155
0.012209823082666844
0.01205011059064418
0.012007284059654922
0.01208237778628245
0.01221572682261467
0.012642726376652718
0.013057847216259688
0.013207782909739762
0.013170950191561132
0.013204182991757988
0.013205477695446461
0.013354421656113119
0.013615975629072637
0.013772383546456695
0.013723752100486309
0.013575925959739834
0.013479937117081136
0.013458283911459147
0.013429517759941518
0.013396197902038694
0.013446529202628881
0.013565332454163581
0.013624437924008817
0.013574419640935958
0.01355578524293378
0.013744095745496452
0.013679583275225013
0.01356155818561092
0.013559144716709852
0.013478481143247336
0.013339466084726154
0.013234899672679603
0.013175242922734469
0.013116728062741459
0.013022958477959036
0.012926653779577463
0.012938118942547589
0.013109932485967875
0.013320383697282523
0.013421480504330247
0.013449586457572877
0.013520582248456776
0.013667945396155118
0.013806148469448089
0.013776976130902768
0.013640663358382881
0.013391782350372522
0.013291824867483228
0.013355149063281715
0.013416966483928263
0.013438738940749317
0.013460776871070265
0.013477769126184284
0.013488462301902473
0.013510172727983445
0.013453221269883216
0.01335108704632148
0.013297113473527133
0.013249084651470185
0.013183916837442666
0.013156904669012875
0.01318776851054281
0.013206144233699889
0.0131510806735605
0.013095868641976267
0.013062635778915137
0.013106003822758793
0.013212464605458081
0.01337934344774112
0.013541947808116675
0.013592584133148193
0.013544642378110438
0.013512567763682455
0.01351796749746427
0.013484416245482862
0.013390226436313242
0.013289546607993544
0.013249468998983502
0.013308020250406116
0.013421488753519952
0.013533738967962563
0.013666613700333983
0.013812666544690728
0.01389800436096266
0.013904256734531373
0.013895041206851602
0.013921075600665063
0.013920834399759769
0.013802635308820754
0.01357809602515772
0.013304199806880206
0.013060560452286154
0.012945343020837753
0.012933683432638645
0.012917174340691418
0.012902964474633336
0.01291057446738705
0.012974736869800836
0.012938024266622961
0.012784913419745863
0.01260160243138671
0.012490272216964513
0.012537194716278463
0.01283335683401674
0.013077126387506723
0.012937947285827249
0.012677915384992957
0.01261345371371135
0.012663686654996127
0.01259972384897992
0.01258967244066298
0.012555307128932327
0.012465947433374822
0.012295803166925906
0.012324735529255122
0.012488569461274891
0.012552475167904049
0.012432612145785242
0.012251684409566223
0.012135658778715879
0.012074619312770665
0.012064600554294884
0.012124982133973389
0.012167860672343522
0.012110912781208754
0.012008669704664498
0.011950019183568656
0.011971983725670725
0.012085312365088611
0.012268935211468488
0.01244083900237456
0.012523651241790503
0.012528264282736927
0.012514826669357717
0.012509148556273431
0.012492477037012577
0.012439691496547311
0.01234472355339676
0.012238337176386267
0.01215912563726306
0.012085184815805405
0.011989042160566897
0.011940686660818756
0.01200214930344373
0.012086334396153689
0.012068105307407677
0.012057527464348823
0.012093546066898853
0.012079935590736567
0.012032227038871498
0.012075532728340476
0.012222194350324572
0.012315528390463442
0.01232382727554068
0.012409335318952799
0.012395384893752635
0.012442324294243008
0.012426598859019578
0.012350767732132227
0.012258359249681234
0.012151926702354104
0.01204141362104565
0.012059343883302064
0.012254706032108516
0.012510116044431925
0.012709451466798782
0.012743332055397332
0.012668685996904969
0.012557073512580246
0.012478829242754728
0.012484983368776738
0.012547447008546441
0.012607646659016609
0.012638706204015762
0.01264181998791173
0.012627926454879344
0.012574454052373767
0.012432598841842264
0.01228365343529731
0.012154296690132469
0.01201134648406878
0.011939182714559137
0.011894439000170677
0.011902633879799396
0.012028402481228113
0.012243731832131743
0.012415908337570726
0.012451644465327262
0.012433448357041925
0.012434202027507127
0.01251941467402503
0.01260081871645525
0.012559152136091142
0.012510493646841496
0.012488810322247445
0.012565107545815407
0.012666571314912289
0.012713320928160101
0.012656086231581867
0.012538963344413788
0.012477784850634634
0.012494672269094736
0.012436872411053628
0.012176856363657862
0.01182397639611736
0.011583431754261256
0.011509150282945484
0.011530690102372319
0.01163253108970821
0.011834321396891027
0.011956452287267893
0.011951780519448221
0.011844714309554548
0.011808137269690632
0.011728177173063159
0.011511573956813664
0.011433575164992361
0.01154263221193105
0.011614815089851618
0.011524738213047385
0.0114472004910931
0.011318945314269514
0.011259072765242309
0.011255234016571193
0.011306973525788635
0.011441124426200986
0.011628943162504584
0.011817207129206508
0.011939461182337255
0.011963034679647535
0.0119811401842162
0.012079544295556844
0.012137961711268873
0.012121545653790235
0.012229909412562847
0.012315397532656789
0.012335766179021448
0.01233025850262493
0.012259120389353484
0.012158260999713092
0.01211419259896502
0.012054462761152535
0.011821841897908598
0.01185780034866184
0.01219781069085002
0.012641030810773373
0.013110668184235692
0.013452405170537531
0.013680057032033802
0.013806859981268644
0.013776598691474646
0.013600479210726917
0.013450120659545064
0.01343096571508795
0.013337215485516935
0.013379387601744383
0.013174706874415278
0.0130070267803967
0.01302468285895884
0.013118448180612176
0.013159772134386002
0.01318771713413298
0.01316902975551784
0.013045588587410749
0.01286861291853711
0.012786291057709604
0.012781340712681413
0.012726325073745102
0.012707939154934138
0.012624513974878937
0.012574545738752932
0.012578583252616227
0.012617855968419462
0.012703703481238336
0.012845217594876885
0.012927358616143464
0.012932461593300104
0.013042754335328937
0.013052314121741801
0.013043703860603273
0.013129501920193434
0.013207554726395756
0.01330915311584249
0.013381665505003184
0.013265929582994431
0.012981438017450274
0.0127612007339485
0.012678535839077085
0.012660845324862748
0.01271875194273889
0.012776034933049232
0.012917385324835778
0.013160042227245866
0.013320243905764074
0.013417866837698966
0.013446325021795928
0.013447491170372814
0.013444001728203148
0.013509876437019556
0.013656976162455975
0.013764481218531728
0.01372707009781152
0.013567488393746316
0.013497394714504481
0.01344547838671133
0.013484807154163718
0.013570963321253657
0.01358686922583729
0.013533392164390534
0.013522756593301892
0.01359556063544005
0.013690419017802925
0.013776950009632855
0.013839131151326001
0.013818489348050206
0.013901917401235551
0.01398856333689764
0.014020599753130226
0.014094738157000393
0.01424550837604329
0.014317851641681045
0.01443685992853716
0.014469765929970891
0.014380992688238621
0.014219038190785795
0.01402793981367722
0.013794226730242371
0.013494347191881388
0.01326285739429295
0.013157444193493574
0.013141585441771894
0.013142172887455672
0.013194499420933425
0.013207433549687266
0.013068484757095575
0.013128353145439177
0.013394685499370097
0.013722740639932453
0.014062193466816097
0.01434947330970317
0.014495461517944931
0.014572757128626108
0.014764352003112435
0.014713747857604176
0.014489603210240603
0.01420023490441963
0.013888157592155038
0.013547052079811692
0.013293440518900752
0.013184925378300249
0.013118882300332188
0.013093701633624732
0.013116382178850472
0.01323400700930506
0.013534841421060264
0.013878402523696423
0.014210212966427207
0.014363294620998203
0.014385034127626569
0.014332880836445839
0.014336747555062175
0.014335042121820152
0.014287854430731385
0.01436667720321566
0.01448214092059061
0.01439026532229036
0.014629046127665787
0.015014192592352628
0.01520890038460493
0.015318744389805943
0.015323281255550682
0.015263165859505535
0.015149757664185018
0.015019569536671043
0.014866956865880639
0.014781179309356957
0.015003588767722249
0.015239964637439698
0.015429630605503918
0.015473184366710484
0.015387591365724802
0.015184581400826574
0.014919774846639484
0.014716194027569145
0.014635900538414716
0.014630540502257644
0.014677135273814201
0.014833748345263303
0.015026133668143302
0.015139152666088194
0.015223070064093918
0.015221408654469996
0.015134738322813064
0.015074442750774323
0.015077539798803628
0.015071516239549965
0.015034624438267202
0.01498996070586145
0.014929016786627471
0.014872937365435063
0.014864165256731211
0.014905981172341853
0.0150053157703951
0.015054157667327673
0.015136050127912313
0.015115616503171623
0.01500761887524277
0.014933407241478562
0.014878934998996556
0.014708586963824927
0.014423201873432845
0.01420396938920021
0.014179870444349945
0.014307773795444519
0.014427911743987352
0.014413760651368648
0.014315666682086885
0.014245937122032046
0.014176513992715627
0.014043174916878343
0.013947286452166736
0.0140404544910416
0.014265102443750947
0.014424377677496523
0.01448202110361308
0.014563993136398494
0.01471444781171158
0.014831428669858725
0.014839644241146744
0.014914096968714147
0.014933414147235454
0.014867873231414705
0.014753098257351667
0.014678874567616731
0.014653398203663529
0.014547391673550009
0.01450067040976137
0.014496210152283312
0.0143598652491346
0.014082821258343757
0.013874372742138803
0.013787629783619195
0.013611592056695371
0.01346907029626891
0.013263900941237807
0.013400442176498472
0.013771729543805122
0.014183523124083877
0.014588356346357613
0.01507020770572126
0.015580458652693778
0.015857417786028238
0.015854929264169187
0.01597625060705468
0.016042990563437342
0.016191493386868386
0.016481650024652482
0.016670221558306365
0.016531456622760742
0.016702973847277463
0.016842305914033205
0.016913578531239183
0.01707686377456412
0.01719724529189989
0.017211808555293827
0.01730282646836713
0.01708438935223967
0.016835774537175895
0.01672653160057962
0.01675716753816232
0.01688731645233929
0.017047944962978363
0.017186692038085313
0.017245990848168732
0.017301420834846794
0.017420958266593515
0.01736001961864531
0.01722587698372081
0.017188731778878717
0.0172457190672867
0.017332579982466997
0.017511496909428388
0.017759068903978915
0.017900520574767143
0.017902565218973904
0.017886877248529345
0.017834452721290292
0.017678226702846588
0.0174900737288408
0.01734646030003205
0.017283372026868166
0.01727771289413795
0.017262324213515968
0.017197584062814714
0.017142371833324434
0.017156829775776716
0.017228222535923123
0.017305586284492164
0.017272423484828322
0.0173131350800395
0.01742646780796349
0.017404213894624262
0.017403029000852256
0.01748855693731457
0.017556820053141565
0.0176250613713637
0.017701379009522497
0.017736672414466737
0.017716691186651586
0.017731857111211866
0.0178712696605362
0.018087505490984767
0.018256436598021536
0.0183177677099593
0.018318153503350913
0.018356360024772585
0.018499443931505086
0.018696153138298543
0.018746891687624157
0.018956339296419173
0.019418819753918796
0.019534370189066976
0.0192027129791677
0.01896828132448718
0.01904348417185247
0.01895914793713018
0.019073566051665693
0.01939239588798955
0.019661034203600138
0.01965516202384606
0.019578015767037868
0.01956094817724079
0.019609488262794912
0.01966970445588231
0.019687748900614678
0.019686429826542735
0.019523153137415646
0.019191626629326494
0.018971574844326825
0.019054198374506087
0.019257911557797342
0.01939286993816495
0.01957720460370183
0.01969395366962999
0.01985062855295837
0.019652446466498077
0.01926110325846821
0.01893904705764726
0.01866718449862674
0.018273310209624468
0.017770244707353413
0.017582436047960073
0.017649215462151913
0.017433810408692806
0.01714404152473435
0.01671870176680386
0.01623277142411098
0.01594755773432553
0.016044361202511938
0.01593066879082471
0.015886865260545165
0.015933871399611235
0.01588302546646446
0.01575114473933354
0.015679671394173054
0.01564716551452875
0.015574422001373022
0.015497707254253328
0.0154425592510961
0.015341953099705279
0.015185249939095228
0.01507905279751867
0.01510456298943609
0.015218898539897054
0.015328880990855396
0.015393371130339801
0.015380545004736632
0.015207257980946451
0.015112710760440677
0.0150074697076343
0.015137142720632255
0.015323593507055193
0.015270731325726957
0.01511569591704756
0.015168292641174048
0.015362917415332049
0.015355090124066918
0.015558348100166769
0.016122152381576597
0.016581041403114796
0.016586930714547633
0.01637792063644156
0.01627908046590164
0.016317758637014776
0.01649476880673319
0.016708992780186237
0.016844523823820054
0.016872379053384064
0.016910584126599133
0.016799033277202398
0.01658986067166552
0.016576802423223853
0.01665314147481695
0.01673643193207681
0.016874501891434194
0.016963632062543185
0.01692930220393464
0.016864401332568377
0.016902456854004412
0.01700566477375105
0.01701340902829543
0.016864469868596643
0.01664308472536504
0.016454448457807302
0.016355947903357447
0.016337173730134963
0.016295816679485143
0.016189113559667023
0.01620910977013409
0.016067962651140986
0.015614348333328962
0.015400663297623397
0.015595829267986118
0.015772777476813646
0.015694053547922523
0.015680684046819805
0.015399946423713118
0.015026211708318441
0.014757896142546087
0.014562715450301767
0.014522432638332248
0.014599567737895995
0.014747232527006417
0.014863580635283142
0.014860359993763268
0.014760379001963884
0.014699635040014982
0.01480773308314383
0.014959079746622592
0.014885501360986382
0.01468562959227711
0.01454070902429521
0.014507365692406893
0.0144618339673616
0.014408076212275774
0.014355793783906848
0.0142278055800125
0.01410579874413088
0.013967003324069083
0.013910638487432151
0.014018525700084866
0.013990339583251625
0.013908145655877889
0.01393798406701535
0.014014718481339514
0.014103280415292829
0.014113413845188915
0.014088287258055061
0.014105321876704692
0.014109774236567318
0.013995402161963284
0.013796922576148063
0.013650017941836267
0.013599562309682369
0.013588023050688207
0.013580611750949174
0.013591493635904044
0.01363095895620063
0.013706703488714993
0.013830392363015562
0.013975893212482333
0.014092996015679092
0.01415548857068643
0.014157728687860072
0.014099657537881284
0.013979871207848191
0.013855000210460275
0.013859134803060441
0.013766605597920716
0.013800006043165922
0.013634649685118348
0.013288910055998714
0.013196770218200982
0.013320934041403235
0.013408401708584278
0.013393175851088018
0.013509624844882637
0.013364521542098374
0.012802578532136977
0.012399464177433402
0.012295666786376386
0.012304784578736872
0.012256406925152986
0.012219861852936447
0.012123234716709704
0.012024375672917814
0.011992709741462023
0.012001899627503008
0.011995553250890224
0.011959836804307997
0.011937822119798512
0.01185805963119492
0.011716045667417347
0.011485081394203006
0.0112083251751028
0.011021088089328258
0.011009139260277152
0.011080116066150367
0.011108872739132494
0.011112620395142585
0.011152638795319945
0.011217643143609166
0.011291489761788398
0.011384806181304157
0.01146322397980839
0.011463317601010204
0.011381896759849042
0.011262169533874839
0.011142014528159052
0.01105712364660576
0.011005013387184591
0.010930123995058239
0.010826463955454528
0.010764643889851868
0.010784807824529707
0.010890365389641374
0.011020536147989334
0.011059368052519858
0.011036921367049217
0.011165194043423981
0.011346149388700724
0.01139726937515661
0.011254434650763869
0.011099836993962527
0.011094930148683489
0.011232085910160094
0.01136144649470225
0.01131229474907741
0.011145998949650675
0.01116572527680546
0.011188769759610296
0.011112147085368633
0.010923614271450787
0.010808803818654268
0.010855900961905718
0.01100464022019878
0.01118107876740396
0.011249872266780585
0.01133281373884529
0.011440300967078655
0.0115425659972243
0.011663810932077467
0.011729400167241692
0.011716461947653443
0.01159245684510097
0.011450182467233389
0.011497992610093205
0.011608949170913548
0.011629483562428504
0.01157099387375638
0.011566497206222265
0.011676992399152368
0.011823165742680431
0.01187440891051665
0.011785577090922743
0.01170597317861393
0.011652870785910636
0.011732851054985076
0.011877412491012365
0.011961493352428078
0.011877615118864924
0.011747690187767147
0.011623918206896632
0.011479011452756822
0.011534481125418097
0.011620773859322071
0.01168832679046318
0.01173044233582914
0.011794550942722708
0.01201202689204365
0.012150770621374249
0.012216585457790642
0.012307558141183108
0.012191509220283479
0.01213021476753056
0.01196959781460464
0.011996556813828647
0.012119154618121684
0.012282972137909383
0.012376619160640985
0.012543239882215857
0.012708716371562331
0.01284055138239637
0.012945483482908457
0.012994039112236351
0.012907559962477534
0.012765552843920886
0.012711019322741776
0.012758905675727874
0.012845793096348644
0.012928266520611941
0.013076757157687097
0.013217237042263151
0.013291259317193181
0.013288746455218643
0.013236201459076256
0.013169401986524464
0.01312179752625525
0.013084210553206504
0.013010190038476139
0.012921420983038842
0.012896556078922004
0.01292138639371842
0.012920635659247637
0.012905880291946233
0.01291950706159696
0.012937903795391321
0.012954769446514547
0.013002432228531688
0.01305312493816018
0.013063810546882451
0.013062782811466604
0.013065562162082642
0.0130267050745897
0.012929799489211292
0.01281185882166028
0.012659268551506103
0.012588480154518038
0.012613358383532614
0.012578253168612719
0.012436669839080422
0.012358350611757487
0.01242618787335232
0.012523141074925661
0.012525412896648049
0.012424874713178723
0.012331767787691206
0.012369696802925318
0.01251735428115353
0.012560524449218064
0.012571733063086867
0.012612889173906296
0.012707393090240658
0.012787105629686267
0.012784125900361687
0.012771489124279469
0.012867682920768857
0.013058678340166807
0.013179674344137311
0.013133317572064698
0.013013673124369234
0.012971994352992624
0.01301742147654295
0.013072026788722723
0.013370888652279972
0.013620983974542469
0.013447659106459469
0.013424273140262812
0.01337747324956581
0.013318568642716855
0.013341572254430502
0.013440011977218091
0.01345435381634161
0.013291582011152058
0.013402598255779594
0.013422483208123594
0.013680482113268227
0.013717197554651648
0.013477271508891135
0.013259407987352461
0.013261374535504728
0.013329583548475056
0.013425519939046353
0.013592442080844194
0.01357912422157824
0.013582256485242396
0.013679665918461979
0.013775955520104617
0.013768353019841015
0.01351402944419533
0.013412921805866063
0.013497107243165374
0.013428842045832425
0.013452831879258156
0.013361503107007592
0.01333461576839909
0.01320577752776444
0.013129989847075195
0.013125422659795731
0.013090064525604248
0.012987152440473437
0.012873584786430001
0.012780234988313169
0.012683541316073388
0.01259461828507483
0.012546154593583197
0.012523699540179224
0.012502215274143963
0.012488159618806094
0.012490979135036469
0.01249193112598732
0.012458409620448948
0.012402967971283943
0.012398651468101889
0.01247220926452428
0.012548646659124642
0.012579038026742637
0.012609024227131158
0.012681302898563444
0.012766934612300248
0.0127913881232962
0.012719063989352434
0.012609024541452527
0.012527149231173098
0.012455968481954188
0.012384032786358148
0.01236172700067982
0.012366687445901334
0.012318796997424214
0.012272415978368372
0.012324591372162104
0.012421837523579598
0.012496820855885745
0.012588987709023058
0.01270596495596692
0.012766211617272347
0.012797035984694958
0.01279792288551107
0.012791653655003756
0.012799555361270904
0.012798761301673948
0.012732699671760201
0.012602913070004433
0.012495354942511767
0.012496442773845047
0.012600157998967916
0.012718156967312098
0.01278669785708189
0.012831829735077918
0.012900390974245966
0.01299842500826344
0.013119305882137269
0.013222486053127796
0.013213993390090764
0.01307246191892773
0.012902713352814317
0.012630743789486587
0.012346453913487494
0.012142761908471585
0.012180185948964209
0.01232221741694957
0.01234434597659856
0.012298311672639102
0.012210832075215877
0.01185301816323772
0.011574320213403553
0.01162244159495458
0.011430014742072671
0.01134594879578799
0.011358912603463977
0.0114293896779418
0.011378739825449884
0.011303692802321165
0.011467194799333811
0.011542908572591841
0.011739603003952652
0.011671953871846198
0.01164700807305053
0.011743702618405223
0.011802979216445237
0.011782334714662284
0.011711327177472412
0.011561916565988213
0.011368616551626473
0.011243836097419262
0.011192544752266258
0.011136606319341808
0.011100613484159113
0.011135941224638372
0.011202370303217322
0.011268393064383417
0.011328277175780386
0.011336139161139727
0.011291660042479635
0.011316944600548596
0.01130362800322473
0.011196162770502269
0.011059632909018546
0.01102058997610584
0.01105320667847991
0.011099525101017207
0.011200692749116569
0.011348400816787034
0.011464956088457257
0.011528361728414893
0.011550497310236097
0.011529324462171643
0.01148345295106992
0.011441454507876187
0.011392709705978632
0.011303255052771419
0.011204493008553982
0.01121421248652041
0.01137975406832993
0.011601083620917052
0.011768486765213311
0.011790639432147145
0.011824164462741465
0.01208760760491714
0.012304350305348634
0.012257854158524423
0.01219954239204526
0.012207636239472776
0.012243550450075419
0.01231514680199325
0.012355289917904884
0.01231075685005635
0.012263320942874998
0.01233980746474117
0.012522981683723629
0.012679389277473092
0.012743479527998716
0.01275757738854736
0.012759815833996982
0.012747663569170982
0.012760299902874977
0.012863864884711801
0.013037227534223348
0.013178659968543798
0.01323602878022939
0.013261007531546055
0.013300026103388518
0.013328038863837719
0.013311015316285193
0.013283110414631665
0.013169966682326048
0.01306125413859263
0.012981057441793382
0.012902003861963749
0.012808106697630137
0.01272646884433925
0.012660479575861245
0.012596452271100133
0.012582130969967693
0.012653410497587175
0.012712417382281273
0.012807955145835876
0.012908844845369458
0.013036673695314676
0.013019792339764535
0.012866497535724193
0.012764704765286296
0.012816851686220616
0.012959844830911607
0.013088146846275777
0.013108810787089168
0.013082240207586438
0.013155465691816061
0.013170754881575703
0.013201243469957262
0.01317001594696194
0.013133769652340562
0.013159853555262089
0.013187332709785551
0.013153888557571918
0.013085118785966188
0.013042178538162261
0.013073139295447617
0.013161844180431218
0.013220331289339811
0.013204298133496195
0.013133405616972595
0.013161486224271357
0.013232253296300768
0.013170349330175668
0.013179417233914137
0.01332290847087279
0.013484148394782096
0.013547765780240298
0.013487493407446892
0.013330761867109686
0.013173396096099167
0.013146983576007187
0.013264944315887988
0.01336489271838218
0.013535160752944649
0.01374225199688226
0.013938863712828606
0.014027574653737248
0.013923667764756828
0.013859013663604855
0.01393352783517912
0.013996339407749475
0.013939593874383718
0.01379192051012069
0.01368671951116994
0.013640615656040609
0.013645341438241303
0.013803729540668427
0.014020434939302504
0.014193010923918337
0.014310909553896635
0.014367387269157917
0.014327444564551116
0.014215859528630971
0.014124733842909337
0.014181199769955128
0.014211350516416133
0.01394812121288851
0.013677922659553587
0.01365400065202266
0.013621648540720344
0.013509559417143465
0.013425946303177625
0.013422959558665752
0.013522804258391261
0.013676126634236426
0.013792789289727807
0.013806994303595275
0.013697344060055912
0.013506327474024147
0.013321155996527523
0.013199229598976672
0.013130267928354443
0.013051331292372197
0.013035114230588079
0.012959384901914745
0.012822302568238228
0.012814409534912556
0.012873932807706297
0.012912491871975362
0.012932285056449474
0.012971604315098376
0.013031109261792153
0.013085920291487127
0.013259797915816307
0.013469832672271878
0.01363762082764879
0.013707899886649102
0.01364651822950691
0.013724266130011528
0.0137621855805628
0.013726683573331684
0.01368666822090745
0.013613931303843856
0.013616214368958025
0.01373296570731327
0.01386046203551814
0.013869971632957459
0.013795821382664143
0.013763898054603487
0.013822981079574675
0.013908857302740217
0.013938287203200162
0.013899868179578334
0.013874009288847446
0.01390438907314092
0.01399224748602137
0.014200635484885425
0.014396695352625102
0.01446682697860524
0.014438249308150262
0.01432923278072849
0.014195657474920154
0.014108056502882391
0.014099514971021562
0.014141164692118765
0.014178029175382108
0.014208077976945788
0.014212128364015371
0.014195019837934524
0.014357639683876187
0.01429680546047166
0.014336867092642933
0.014434360628947616
0.014315509581938385
0.01421888395678252
0.01422737456858158
0.01427406853530556
0.01430527564836666
0.01458657867508009
0.014853395167738198
0.014959096652455628
0.01492330788867548
0.014850140800699591
0.01479842236964032
0.0147126460284926
0.014502404229715467
0.014327687846962362
0.01429806208005175
0.014404233854729682
0.014435326119419188
0.014398360007908196
0.014403017039876431
0.014488234657328576
0.014577641598880291
0.01465847565094009
0.014704376007430256
0.014629050707444548
0.014544515092857181
0.014495395133271813
0.014434670004993677
0.014338386883027852
0.014238591771572828
0.01415992324706167
0.01406248917337507
0.013934175339527429
0.01386742175091058
0.013886014055460692
0.013892414963338524
0.013884771026205271
0.01394307967973873
0.014039459300693124
0.014089303370565177
0.014074598473962396
0.014025284152012318
0.01398704502498731
0.013997443292755634
0.01403027749620378
0.014036766141653062
0.01404826962389052
0.014104079562239349
0.014130816347897052
0.014078136056195945
0.01406953930389136
0.014079181763809174
0.014143022189382464
0.014214688034262507
0.014207976383622735
0.014286509638186545
0.014487597432453186
0.014668947826139629
0.014710000038612635
0.014672737224027515
0.014714080514386297
0.014629792820196599
0.014365691326092929
0.01409011045936495
0.014043273616116493
0.014214345305226743
0.014179483097977936
0.014052535961382092
0.013938658649567514
0.013958753659389913
0.01418143650284037
0.014425027302931994
0.014519081870093941
0.014365497084800154
0.014380311849527061
0.014537934397812933
0.014624345342162996
0.014672819303814321
0.01475694884546101
0.01485011585522443
0.014943629815243185
0.015092923939228058
0.015284963182639331
0.015420785697642714
0.01546277538407594
0.015445970664732158
0.015400966857559978
0.015375588946044445
0.015391584651079029
0.015393829371314496
0.015347312749363483
0.015245350843761116
0.015060595313552767
0.014842669249046593
0.014723916079383344
0.014785828520543873
0.014911178851034492
0.014819242691155523
0.014807730743195862
0.014689914339687676
0.014576859469525517
0.014583002799190581
0.01442897529574111
0.014166834221687168
0.014053466860204936
0.014120407765731216
0.013913619441445917
0.013647539294324815
0.01356527181342244
0.013657257012091577
0.013730621431022882
0.013705901075154544
0.013685468810144812
0.01378099260153249
0.013880684049800038
0.013996059764176607
0.013944168461021035
0.013817039956338704
0.013746037648525089
0.013734491160139441
0.01372795160394162
0.013719652891159057
0.013749820990487932
0.01381406411761418
0.013839110317640006
0.013862668902147561
0.014020472837146372
0.01425263639073819
0.01432078608078882
0.014265916894655674
0.0143825496500358
0.014572859674226493
0.014730208269320429
0.014767112643457949
0.014659320532809944
0.01460668543120846
0.014693284556269646
0.014810404505115003
0.014926506818737835
0.015032581693958491
0.0151162755000405
0.015168409978505224
0.015160923027433455
0.015103650083765387
0.01509474782506004
0.015197296699043364
0.015316463466733694
0.015328251305036247
0.015267620692029596
0.015261520037893207
0.015330338412895798
0.01541205490939319
0.015537247410975397
0.015744317781645804
0.01585401289863512
0.015606286763213574
0.015320602315478027
0.015051076167728751
0.014952323860488831
0.015127477110363543
0.015289697023108602
0.015302531458437442
0.01534281881293282
0.015451350999064743
0.015376736470498144
0.015240081339143216
0.015252421896439045
0.015430589218158274
0.015663782868068667
0.015800316415261476
0.015798657280392946
0.015659107451792807
0.015484601110219955
0.015488251859787852
0.01539228534558788
0.01526986536802724
0.015291063799522817
0.015311118457466364
0.01523081279359758
0.015202898113057018
0.015325065467040986
0.015469397637061774
0.015501928974408656
0.01540516406064853
0.015203171707689762
0.014995918984059244
0.014941376140341163
0.01495043797418475
0.01495718710590154
0.014939815783873201
0.014891635994426906
0.01484126353636384
0.014855382887180895
0.01489349566400051
0.014867170464713126
0.014764108629897237
0.014652315184939653
0.014610660672187805
0.01467118248809129
0.014705103712622077
0.01471483393572271
0.014710428400430828
0.014808147554285825
0.014986422727815807
0.015077646265272051
0.015082819166127592
0.015156152388080955
0.015313589202705771
0.015392149789258838
0.01530498218955472
0.015176343529019505
0.015140768077690154
0.015158417720813304
0.015128535081166773
0.015055616071913391
0.015012769761960953
0.015011556469835341
0.01500845561735332
0.014999240983743221
0.015008839059155434
0.015039196144789458
0.015081804892979563
0.015111153221223503
0.015085095684044062
0.015023414024617522
0.014994210090953856
0.014994103834033013
0.014952149223536253
0.014846264426596463
0.014914951517712325
0.014836235023103654
0.014672836069948972
0.01454592749942094
0.014465085261035711
0.014406655812636018
0.014455475248396396
0.0144962497218512
0.014518051345366984
0.014525555858854204
0.014497005613520741
0.014376836279407144
0.014198951977305115
0.014087042233441024
0.014091132045723497
0.014133342150598764
0.014143606112338603
0.014158182230312377
0.014239186751656235
0.01435111729428172
0.014377458055969327
0.014298062983434646
0.014224410941824316
0.014160687322728335
0.01396145515376702
0.013709065306466072
0.013822851523291319
0.013723365040495991
0.013863128661178052
0.014158513038419187
0.014251518605742603
0.014191419689450414
0.0142944327974692
0.014402777715586125
0.01435881238663569
0.014321674280799924
0.014305885368958115
0.014289743271656335
0.014238051169086248
0.014070472028106452
0.013962791501544416
0.013908702163025737
0.013826062511652708
0.013744027591310442
0.01365359595278278
0.013601752263493836
0.013511516524013133
0.013463237064424902
0.013433388150297106
0.01334056310588494
0.013150873254053294
0.012941362522542476
0.012762514287605881
0.01257471933029592
0.012393910593818874
0.012344518934842199
0.012464879255276173
0.01260523172095418
0.012742905486375094
0.012842306280508637
0.012910016211681068
0.012999142939224839
0.01313637817511335
0.013269758226815611
0.013394076800905168
0.013530914797447622
0.013680469458922744
0.01383847399847582
0.014018167406320572
0.014209251618012786
0.014347494239918887
0.014332780656404793
0.014469974043313414
0.014522338460665196
0.014487920268438757
0.01453304610447958
0.014607473544310778
0.014481060719117523
0.014394196693319827
0.014389197889249772
0.014489529964048415
0.014649230919312686
0.01475428564241156
0.014804509477689862
0.014876534284558146
0.01497795837931335
0.015057489685714244
0.015091391380410641
0.015111728734336794
0.015137762716040015
0.015132081422489136
0.01508086226414889
0.015016556133050472
0.0149520112760365
0.014896858246065675
0.014837946477346122
0.014682358223944902
0.014406059812754392
0.014194542937912048
0.014258076411206275
0.01427666561678052
0.01430735545931384
0.014415861931629479
0.014516570793930442
0.014587616270873696
0.014744583575520664
0.01482910621445626
0.014792047727387398
0.014581867889501155
0.014495060190092772
0.01446514633949846
0.014418586238753051
0.014699415271170437
0.015145550100132823
0.015464836063329131
0.015468489415943622
0.015291694859042764
0.015326000491622836
0.015471257292665542
0.015677222127560526
0.01590477324090898
0.016083723343908788
0.016076886164955794
0.015985452346503736
0.016091021078173073
0.016366187883540988
0.01648920149775222
0.016699933747295292
0.016695055027958004
0.01661585090914741
0.01660092849750072
0.016520332247018814
0.01631414211820811
0.016160610392689706
0.0161609444511123
0.01625790559919551
0.016406352168414743
0.016536976343486456
0.016639072075486185
0.01679531272267923
0.01678276259219274
0.016616670198272912
0.01655986892990768
0.016677705412730573
0.01683438292937353
0.016885204690042885
0.01697596461744979
0.017048239323776214
0.017038534057792275
0.016961645535193384
0.01689989655278623
0.01682244603522122
0.016724921541754156
0.01669489753199741
0.016785135290119796
0.016827578137163072
0.01669675820041448
0.01655243041459471
0.01653763626003638
0.016573352739214897
0.016583405749406664
0.016595917080994695
0.016621015027631074
0.01661784634226933
0.016565008340403437
0.01650638078805059
0.01650578044820577
0.01653991177678108
0.016486170953139662
0.016280563285108657
0.016082696514204145
0.016170232840813696
0.016148503762669863
0.016013193391263485
0.015936274323612453
0.015973054945934564
0.015972206625156103
0.01597022025613114
0.015880712720099836
0.015750626311637463
0.015688174779061228
0.015622839834541082
0.015565727101638914
0.015703273157123478
0.015840762110892682
0.015877662941347806
0.01584180674282834
0.015753474321682007
0.015614844372030347
0.015464801653288306
0.015356102362275123
0.015282129924744368
0.01524240966886282
0.015314820795319975
0.01550951283192262
0.015702457909937947
0.015795337485615166
0.015795477486681194
0.01575303915189579
0.015692424790468066
0.015597753401380032
0.015487169611733407
0.01544390537077561
0.015501246501225979
0.015579786377493292
0.015590535716619343
0.015522886940743774
0.015442694697994738
0.015471245625521988
0.015389710534363985
0.015305400958750397
0.015339447965379805
0.015166472482960672
0.014837241009809076
0.014496998274698853
0.01436163169099018
0.014434031932614744
0.01433872346766293
0.014095798826310783
0.013755801853258164
0.013453025370836258
0.01330619560321793
0.013357879333198071
0.013424899897072464
0.013365048540290445
0.013304781757760793
0.013254053534474224
0.0131303109950386
0.012932124258950352
0.012728596704546362
0.012551773192826658
0.012443026304244995
0.012550482866354287
0.012510469525586813
0.012601027328055353
0.012708277010824531
0.01267971228575334
0.012539436488877983
0.01237352860858664
0.012243470551911741
0.012227510667871684
0.012316805685404688
0.012386858111713082
0.012403754596598447
0.012479311455972492
0.012641443531028926
0.012750046986620873
0.01273665511282161
0.012704585352912546
0.012723263136576861
0.012722888602875173
0.012718417525757104
0.012795870520640164
0.012966670577879995
0.013103582672774792
0.01320297127822414
0.013328833116684109
0.013342552273534238
0.01312963258009404
0.01295203807996586
0.012876889838371425
0.01285524790873751
0.012750292173586785
0.012665174745488911
0.012756562170106917
0.012803958756849169
0.012677721215877681
0.012454494433477521
0.01234736581100151
0.01239061237545684
0.012437585745938123
0.012337414687499404
0.012196121206507086
0.01212397736730054
0.01207388831069693
0.012008835533633829
0.012118847507517785
0.01244815304176882
0.01271076114848256
0.012818547813221812
0.012754176994785666
0.012671479880809784
0.01259334966307506
0.01229719004360959
0.012004593038000166
0.01183483938453719
0.011842248786706477
0.0119207325973548
0.01195873366203159
0.011954387254081666
0.011985363350249826
0.012076147075276822
0.012148104559164494
0.012127203457057477
0.01205468944972381
0.012025680199731142
0.012078414850402624
0.012179700473789126
0.012260197466239332
0.012288716628681869
0.012306286492384971
0.012323611963074655
0.012292331999633461
0.012229506699368358
0.01220508781960234
0.012199216620065272
0.012136539348866791
0.012038523517549037
0.01198223688872531
0.011956142240669577
0.011902094520628452
0.011849957203958183
0.011763670102227479
0.011715089320205152
0.011732056934852153
0.011785238878801466
0.01181175359757617
0.011794412268791347
0.011796787905041128
0.011909826567862183
0.012107852643821389
0.012235609760973603
0.012241890991572291
0.012230210518464447
0.012183102313429117
0.01196971193421632
0.011754086639266461
0.011743408157490193
0.012007355603855104
0.012275666920468211
0.01243409952148795
0.012574465144425631
0.0125953528448008
0.012666528946720063
0.01265613800380379
0.012959324629046023
0.01343751815147698
0.01360023500630632
0.013717453954741358
0.01403707375517115
0.01425178224220872
0.014315124754793941
0.014317321556154639
0.014324577511288225
0.014427309222519398
0.014670188657473772
0.014915599199011921
0.015011364079546183
0.01500701263314113
0.014990811126772315
0.015102165404241532
0.015438621998764574
0.01573997238650918
0.015728083110880108
0.015460411407984794
0.015392542388290166
0.015382803680840879
0.015407070787623524
0.015557744863908738
0.015741670154966414
0.015937938101124018
0.016052947517018766
0.016148846608120947
0.016174564191605897
0.016004551558289677
0.01583902786485851
0.015813920507207514
0.015901614043395965
0.015926893695723265
0.01585300422506407
0.01579594017472118
0.015845169320236892
0.015927469148300587
0.016055926973931493
0.016189596620388328
0.016271691725123674
0.01622886769240722
0.01606503808638081
0.015925823715515434
0.01591207365738228
0.01595132179791108
0.015974744632840158
0.016023037410341202
0.016104884250089525
0.01610438090050593
0.016123497930821032
0.015966855676379055
0.015836160266771912
0.015865882858633995
0.015940304826945067
0.01593745026504621
0.015933693340048193
0.016011299630627036
0.016060403373558074
0.015958890703041108
0.01579734412021935
0.015738587325904517
0.015777572735678404
0.015803571895230562
0.015784045767504723
0.015755248840432615
0.015734501965343952
0.015714517151936887
0.015678911516442896
0.015617545715067536
0.015544187168125063
0.015510367443785072
0.015581234844867141
0.015741350518073887
0.015896866756957024
0.016008847914636134
0.016103406702168286
0.01632460372755304
0.016640686837490648
0.016958510926924644
0.01715108390431851
0.017155380870681258
0.017038916798774152
0.017021359177306294
0.017061156164854766
0.01720953953685239
0.017523377931211143
0.017861294834874572
0.017917321987915784
0.017936920966021716
0.018273482753429562
0.01856637364719063
0.01862930160248652
0.018460431075654923
0.018296441053971647
0.01824743954464793
0.01825070824008435
0.01825084169395268
0.018346795937977733
0.01836337846238166
0.018052944683004172
0.017707377099432053
0.017740595396608116
0.0177521667862311
0.017515962559264152
0.017421582064125685
0.017498626890592277
0.017559100040234626
0.01748982057441026
0.01722008268116042
0.016775375932920725
0.016492637186311186
0.01646571293240413
0.016501597752794625
0.016477754595689474
0.01650598901323974
0.016291198346298188
0.015972303953021766
0.015909989159554244
0.016154144324827938
0.016188388771843164
0.01613325998885557
0.01616666985442862
0.016225311267189683
0.016117369306739418
0.015869230369571597
0.01567506445106119
0.015604156341869384
0.015607329525519163
0.01565955638885498
0.015711285329889507
0.015699121884535996
0.015650163835380225
0.015611577343661339
0.015609725932590664
0.015651284174527973
0.015604632489848882
0.015602590919006615
0.01564976837253198
0.01562773412792012
0.015455564956646413
0.015285730194300413
0.015268871013540774
0.015307351106312126
0.015296751568093896
0.0153090052283369
0.015378158742096274
0.015426898987498135
0.015477956582326442
0.0156761042191647
0.015922222814988344
0.016200941796414556
0.016289358446374535
0.016238097532186656
0.016245840191841124
0.01629449472762644
0.016236751333344727
0.016309499018825592
0.016484782088082284
0.016617143750190733
0.016580135612748563
0.01672680101590231
0.016895623744931074
0.017046874817460776
0.017176583940163255
0.017270481700543315
0.01729040017351508
0.017215530048124494
0.017127506034448743
0.01712981765624136
0.017208497517276555
0.017265017400495707
0.01722101657418534
0.017097269392106682
0.017017063265666366
0.01704170702258125
0.017047765487805008
0.01688514230772853
0.01657766562886536
0.016260895112063734
0.01604154395405203
0.016006263848394157
0.016193543295376003
0.016376914074644446
0.01643920975504443
0.016288627786561847
0.015984206658322363
0.015656445268541576
0.01548532595857978
0.015355458506383002
0.015003171302378177
0.014726890113670378
0.014661800547037274
0.014633980023209005
0.014496216631960124
0.014294068946037441
0.014189901035279036
0.014142673674505203
0.013995970264077187
0.013927210066467523
0.013940658366773278
0.013920976568479092
0.013863499036524445
0.01382311745081097
0.013787370622158051
0.013723655671346932
0.01365590499015525
0.013609702771063895
0.01358877838589251
0.013641044681426137
0.013748496163170785
0.013667453941889108
0.013426688318140804
0.013288056594319642
0.013281192895956338
0.013198623054195195
0.013151576626114547
0.013192734685726465
0.013245932606514544
0.013271116048563271
0.013377606945578008
0.013577767496462912
0.013712810359429568
0.013742051247972994
0.013794482254888862
0.013912900595460086
0.013968880237080157
0.013905338025651873
0.013984997388906777
0.014249326142016799
0.014594819927588105
0.014765237846877426
0.014802606634330005
0.015128055706154555
0.015475491790566594
0.01568013761891052
0.015848560212180018
0.015925611606799065
0.015959080101456493
0.015969133181497456
0.015962776388041677
0.01591273633064702
0.01579544970532879
0.015684831484686582
0.015687644889112562
0.015808403121773153
0.015925649378914386
0.015908464023377745
0.015772592653520406
0.015615903101861476
0.015448644773568958
0.015263831347692759
0.01514460006263107
0.015128428749740123
0.015090456197503955
0.01505448593525216
0.015145378080196678
0.014879689058288932
0.014763282893691212
0.014873116528615355
0.015073044579476119
0.014887490763794631
0.014642398452851922
0.014572695440147072
0.014655071729794144
0.01475676457863301
0.014847012558020652
0.014970635520294309
0.015078668699134141
0.015078412904404103
0.01500327356159687
0.01495479540899396
0.014949648324400187
0.014918214196804912
0.014832009568344802
0.014696135399863124
0.014655071012675762
0.014721563691273332
0.014775089842732996
0.014762760216835886
0.014738441044464708
0.014735321041662246
0.014713863844517618
0.014634796995669603
0.014509951032232493
0.014376308287028223
0.014321829203981905
0.014490714664570987
0.01486884440528229
0.015111122394446284
0.015127581630367785
0.015142016115132719
0.01506094346055761
0.015027131862007081
0.01522692130645737
0.015511116210836918
0.015462374966591596
0.015615089347120375
0.015823579826392233
0.01575699599692598
0.01555091719608754
0.015418482958339155
0.015373183663468808
0.015361497104167938
0.015288166494574398
0.015190511271357536
0.01503592318855226
0.015053113722242415
0.015156629427801818
0.0152281717187725
0.015290984613820911
0.01540342487860471
0.015575560887809843
0.01572014327859506
0.015855930836405605
0.015907215690240263
0.01593998750206083
0.01599951259791851
0.016053139865398407
0.01605404172325507
0.01595609968993813
0.015733904012013227
0.015466253808699548
0.015236473442055285
0.01515433928463608
0.015199229535646737
0.015314500485546887
0.015450643352232873
0.015393920878414064
0.015142619649413974
0.014766684230417014
0.01449723441619426
0.014453771782573312
0.014186901065986603
0.013914488488808274
0.01369157132692635
0.013589548515155911
0.01356396839255467
0.013551242398098112
0.013586639226414263
0.013648314946331085
0.013659257255494595
0.013628083674702793
0.013610982839018106
0.013598661210853607
0.013525738327298314
0.01340556223411113
0.013354309711139649
0.013373862160369754
0.013325947527773678
0.013201803371775895
0.013155761938542128
0.013240011560264974
0.013337400478776544
0.013426670506596565
0.013530751701910048
0.013590454624500125
0.013774266864638776
0.013671965645626187
0.013444926992524414
0.013310464054811746
0.013300608301069588
0.013274290387053043
0.013118082589935512
0.012872057093773037
0.01265766725409776
0.01254044197499752
0.012496089471969753
0.012495018439367414
0.012535046956036239
0.012579130101948976
0.0125601996621117
0.012583101110067219
0.012582772732712329
0.01268912665778771
0.012876040507107974
0.012980991855729372
0.012996251811273396
0.013018638882786036
0.01306805853266269
0.01310975942062214
0.013152030175551771
0.013220219612121583
0.013323333798907697
0.013452279474586248
0.013550179889425635
0.013526722237002105
0.013325878474861384
0.013007919762749225
0.012739907910581678
0.012827992842067032
0.013046982451342046
0.01322117542149499
0.013301886378321796
0.013402026880066841
0.013184226134326309
0.013404200919903814
0.013242587742861361
0.01324904962675646
0.013440285557880998
0.01345232877181843
0.013569307781290263
0.013523406540043652
0.013362246875185519
0.013386095615569502
0.013437825490254908
0.013548712607007473
0.013577072967309504
0.013616421595215797
0.013695172800216824
0.013739367362577469
0.013743432627525181
0.013776276295538991
0.013862953050993382
0.013963474056217819
0.014029068108648061
0.014043541376013309
0.014011046651285141
0.0139385593845509
0.013862914459314197
0.013841906115412712
0.013893746973481029
0.01396375014213845
0.014027024337556213
0.013991852751933037
0.01385835578897968
0.013708544131368398
0.013598187190946192
0.013489623195491731
0.013375902206171304
0.013385275141336023
0.013572093420661986
0.013642548806965351
0.013569050303194672
0.01350179836153984
0.01362181397387758
0.013794466692488641
0.013898357518482953
0.01397890075808391
0.014087016328703612
0.014228018159046769
0.014391434192657471
0.014521415401250124
0.014468005690723658
0.014526620698161423
0.014865953538101167
0.015329942556563765
0.01560519912512973
0.015605544056743383
0.015907174833118917
0.016277927595656366
0.01652135619428009
0.016627190958242864
0.016720868402626366
0.016821350161917506
0.016810397123917936
0.016676107440143823
0.016552592136431486
0.016519102568272503
0.01652549033984542
0.016483593431767075
0.01646600868087262
0.016443090850953013
0.016551405251957477
0.01670961583033204
0.016804510648362338
0.016789188443217428
0.016682810923084615
0.01657484795199707
0.016567793872673063
0.0166661614109762
0.016812563631683587
0.016872911311220377
0.01698048711987212
0.01701720371376723
0.01700191567884758
0.016992372858803718
0.017010760833509265
0.017040197069291024
0.01704812079900876
0.01700231266207993
0.01686931573553011
0.016647840212099255
0.016427909315098077
0.01632134191226214
0.016312529139686376
0.016280276321340353
0.016179198969621212
0.016149945207871497
0.016149911803659052
0.016151710357517005
0.016108702369965613
0.01611042282078415
0.01607816735981032
0.015804308105725796
0.015785948545671998
0.01560126917436719
0.015612950094509869
0.015514880933333189
0.015347573440521955
0.01531176500953734
0.01508290380006656
0.015051325659733265
0.015280399010516704
0.01547970084939152
0.01558731445344165
0.015542865719180555
0.015357176146935672
0.015103615433909
0.014871067262720316
0.01471805015578866
0.01463724427158013
0.014565259979572148
0.014460780301596969
0.014347087806090713
0.01424891171976924
0.014151758975349366
0.014064205626491457
0.014019182343035936
0.014015140770934522
0.014053387837484478
0.014155157178174704
0.014281890864949673
0.014361630266066641
0.014404463900718837
0.014468421128112823
0.014563975643832237
0.014660321241244674
0.014694830724038184
0.014707995390053838
0.01472857630578801
0.01456662674434483
0.014563053471501917
0.014702437582891435
0.014767151384148747
0.014707458303309977
0.014628093647770584
0.014572175787761807
0.01447191703133285
0.014295549753587693
0.014111993964761496
0.013956732065416873
0.01379300638800487
0.013835274882148951
0.013733620119746775
0.01324718826683238
0.012933878446929156
0.012962647806853056
0.013221554581541568
0.01311340820044279
0.01290430105989799
0.012727261737454683
0.012520560720004141
0.012297949658241124
0.012139136125333606
0.01220865241251886
0.012432040115818381
0.012589549170807004
0.012530784767586739
0.012486493207979947
0.01269764567958191
0.012976574662607163
0.013175270359497518
0.013075006636790931
0.012999834960792213
0.013131945722270756
0.01338594309054315
0.013636821107938886
0.013798467251472175
0.013854624726809562
0.013864333310630172
0.013873573057353497
0.013865976750385017
0.013824830828234554
0.013762706553097814
0.013711896180175244
0.013705379236489535
0.01373015302233398
0.013755553907249123
0.0137914870493114
0.013845012141391635
0.013900292632170021
0.013949069152586162
0.013949806469026953
0.013862199643626808
0.013763167455326766
0.013752062912099064
0.013786007738672197
0.013739435526076704
0.013770160377025603
0.01369854603195563
0.013521230053156615
0.013407391847576946
0.013424019811209291
0.013492560430895537
0.013565739116165787
0.013642599675804376
0.013702539382502437
0.013763059647753834
0.01386633780784905
0.013968760878778994
0.013990564362611622
0.013918775049969554
0.013768552127294243
0.013589157611131669
0.013514222425874323
0.01362334654899314
0.013813651846721769
0.013950198185630142
0.014025525271426887
0.014070483082905412
0.01405347642255947
0.013944226067978889
0.013796403943561018
0.013721817662008107
0.013747174071613699
0.013708266927860677
0.013806633928325027
0.013811116016004234
0.013677989130374045
0.013719643680378795
0.013722941752057523
0.013697581607848406
0.013798310772981494
0.014032681218814104
0.014279181943275035
0.014446964184753597
0.014530611967202275
0.014600772766862065
0.014597331839613616
0.014496355513110758
0.014588075669016688
0.01460199035005644
0.014527459482196718
0.014438760580960662
0.014360022116452455
0.014209501859731972
0.0140376892616041
0.014015058127697558
0.014081324739381671
0.014045456054154783
0.014029097685124725
0.014058211075607688
0.01406445559579879
0.01411376572214067
0.014272734837140888
0.01414981143316254
0.013885775483213365
0.013766312694642693
0.013923449113499374
0.014227491247002035
0.014485140920151025
0.014635178889147938
0.01463606563396752
0.014725546932313592
0.014757870209868997
0.014633538220077753
0.014487494246568531
0.014673462840728463
0.014817691047210247
0.014702559527941049
0.01449746082071215
0.014381337345112115
0.014422499698121101
0.0144256916991435
0.014323062147013843
0.014166101266164332
0.014008491402491927
0.013874825378879905
0.013771565032657236
0.013719333456829191
0.013705702805891633
0.013661896409466863
0.013610155142378061
0.013543068713042885
0.013514372985810041
0.013438054453581571
0.013302231938578189
0.013193051328416914
0.013157174326479434
0.013188482630066573
0.013266102878842502
0.013354066058527679
0.013449670711997897
0.013564720428548753
0.013627618786413222
0.013568350067362189
0.013572601713240146
0.013580905571579933
0.013547932831570506
0.013503847275860608
0.013492630068212748
0.013561706044711172
0.01363082679687068
0.013642618856392801
0.013590627065859735
0.013535828373860567
0.013541778810322284
0.013567646506708116
0.013541391720063984
0.013501605631317944
0.013533101140055806
0.013623649806249886
0.013708946816623211
0.013729754397645592
0.013614625891204924
0.013533574668690563
0.013357697224710136
0.013362201754935086
0.01347119730664417
0.013493496305309237
0.013457803491037338
0.01349398475838825
0.01361748626921326
0.013735117088072003
0.013809113153256477
0.01394039640435949
0.013846714980900288
0.013770869350992143
0.013837670169305056
0.013745422309730202
0.013657132007647305
0.013588429985102266
0.013460634828079491
0.01323464050423354
0.012936689723283053
0.01266168853500858
0.012509429834317416
0.012519061737693847
0.012664326312951744
0.012812301067169756
0.012852834807708859
0.012866608491167426
0.012902160990051925
0.012926447119098157
0.012939351932145656
0.012929250923916698
0.012972156093455851
0.012916430591139942
0.01276742068817839
0.012682003232184798
0.012688553538173436
0.012664719519671052
0.012733580374624581
0.01278913249494508
0.012792403595522046
0.012782425868790597
0.01280770577955991
0.0127920340327546
0.012595677566714585
0.012214450377505272
0.011842064147349446
0.011739999037235976
0.011728935081046075
0.011720047579146922
0.011718140989542008
0.011814788791816681
0.011983883150387556
0.011955252825282514
0.011866406626068056
0.01176851260708645
0.011695190379396082
0.01172934881877154
0.01185114991152659
0.011904292374383658
0.011833145280834288
0.011759427664801479
0.011765442008618265
0.011764796262141317
0.011657515577971934
0.011526122228242458
0.011413210246246308
0.011397052526008337
0.011408417569473386
0.011510569285601378
0.011599490591324866
0.011694078748114407
0.01176976554095745
0.011800974349025637
0.011884822573047132
0.012068985989317297
0.012199185218196362
0.012140395706519485
0.011996285368222743
0.011856419758405536
0.011787631518673151
0.011831737777683884
0.011925742588937282
0.011956046477425843
0.012045149418991059
0.012178520513698459
0.01224899196298793
0.012221951875835657
0.012210968146100641
0.012228183038532734
0.012174168364144861
0.01219812671188265
0.012092955010011792
0.011898291138932109
0.011810600387398153
0.011806394199375063
0.0118519996968098
0.011925096304621548
0.011990871159359812
0.012047607831191272
0.012159748920239508
0.012182739300187677
0.012281397252809256
0.012207598751410842
0.012068919958546758
0.012087750509381294
0.012228673100471496
0.01231813472462818
0.012289213039912284
0.012211269845720381
0.012182115849573166
0.012234247364103794
0.012319879282731563
0.012371988529339432
0.012360849368851632
0.012282670030836017
0.012191169345751405
0.012117270824965089
0.012004944952204824
0.011975166688207537
0.012010401810985059
0.012030579885467886
0.011989796971902252
0.011910709645599126
0.011801944903563708
0.011654662527143955
0.01151990142883733
0.01149842371698469
0.011646891930140554
0.011926066188607365
0.0121806964231655
0.012446894319728017
0.01266508167842403
0.01286008185474202
0.013014947446063161
0.013064459324814379
0.013121859410312027
0.013299214981961995
0.013262263750657439
0.013075274757575243
0.012912701033055782
0.012857561155688018
0.012859632396139204
0.01276749137789011
0.012745169443078339
0.012962933380622417
0.013231395378243178
0.013331830860115588
0.013484889664687217
0.013551363127771766
0.013538807150907814
0.013383413506671786
0.013176771267317235
0.01294621184002608
0.012932272900361568
0.013091635464224965
0.013251036629080773
0.013310973772313446
0.01332580704940483
0.013398479740135371
0.013523181267082691
0.013595063886605203
0.013524519780185073
0.013545932478737087
0.01365070479689166
0.013649637890048326
0.013629452232271433
0.013640574731398373
0.013621419158298523
0.013638259049039335
0.013692438914440573
0.013712165700271726
0.013649160251952707
0.013523298206273467
0.013329649465158582
0.013085531485266984
0.012941392594948411
0.013031371051911265
0.013240937730297447
0.013441056173760443
0.013583647857885808
0.01367943887365982
0.013627132019028067
0.013602975602261723
0.013543598409742117
0.013486963862087578
0.013497462030500174
0.013502656060736626
0.01346082299714908
0.013442588618490845
0.013527877028100193
0.013477066166233271
0.01346906485268846
0.013546729914378376
0.013574438029900193
0.01350726923905313
0.013505922402255238
0.013370046603959053
0.013213823321275414
0.013203400520142168
0.013189890459179877
0.01312925293808803
0.01313814489170909
0.013247962712775917
0.013330838934052736
0.013327017792034894
0.013319226887542755
0.013332501212134957
0.013274944103322923
0.013224269163329154
0.013071871839929371
0.013005596685688943
0.013000163731630892
0.013020265195518733
0.013091504441108555
0.013267094348557294
0.013528852101881057
0.013833768991753459
0.014164422848261892
0.014342458636965602
0.0144268674752675
0.014529347009956837
0.014562905305065215
0.014612734448164702
0.014831007008906454
0.015052852197550237
0.015139651491772384
0.015130910214502365
0.015082649523392319
0.014882115551736207
0.014742034387309104
0.014694861532188953
0.014535197413060814
0.014315338034648448
0.014220342861954123
0.014359020087867975
0.014423477638047189
0.014379403251223267
0.014363263312261551
0.014430964367929846
0.014553352501243353
0.014666224857792258
0.014746715305373073
0.014909664187580347
0.015029113697819412
0.014973771660588681
0.014877091564703732
0.01479503527050838
0.014690068047493697
0.01453936668811366
0.014369447524659336
0.014271359767299145
0.014235837892629206
0.014308133537415415
0.014333355415146798
0.01426718122791499
0.01412199130281806
0.01394451096886769
0.013769571757875384
0.013599539194256067
0.013461296760942787
0.013421982645522803
0.013570099221542477
0.013705499090719967
0.013791234390810132
0.013898908379487693
0.014063698414247483
0.014286727448925375
0.014518162547610701
0.014483121105004102
0.014262183841783554
0.014080004557035864
0.014048429301474243
0.014116178518161177
0.014167447860818356
0.014089161204174161
0.014055207460187376
0.014002406690269708
0.013781162602826953
0.01369707913370803
0.013658358969260008
0.013619428111705929
0.013650100394152105
0.013782139297109097
0.013946802401915193
0.014076853359583766
0.014154404448345304
0.014176959854084998
0.014149547994602472
0.01410707329865545
0.014084761834237725
0.01406445847824216
0.014019376002252101
0.013996974499896168
0.014092389361467212
0.01434813388856128
0.014459563386626541
0.014509802255779504
0.014424190572462976
0.014366155201569199
0.014349895727355034
0.014279432580806314
0.014229826091323047
0.014295762688852846
0.014239116327371449
0.014296726174652576
0.014437842706684023
0.014458748856559395
0.014532650851178915
0.014683027181308716
0.014896896234713495
0.014855612148530782
0.01472163041587919
0.014583455654792488
0.014425825225189329
0.01428781720576808
0.01414430391509086
0.013972117335069924
0.01377783939940855
0.013620824981480838
0.013581958275754005
0.013667793639469891
0.013831916535273193
0.013822593297809362
0.01358517243526876
0.013450745122972875
0.013478649409953504
0.013447878307197243
0.013319495604373515
0.013344480961095542
0.013328714650124312
0.013170611443929375
0.013080796389840544
0.013082867951598019
0.013055208469741047
0.01293670809129253
0.012811370785348117
0.012775719724595546
0.012802308974787593
0.012800231359433383
0.01273502581520006
0.012644744724966586
0.012578049378935247
0.012523084951099009
0.012415301259607077
0.01225929772714153
0.0121671360055916
0.012204588404856623
0.012306021014228462
0.012388375343289227
0.012452562570106239
0.01254171801963821
0.012623390690423548
0.012660478584002703
0.012591639934107661
0.01249965563416481
0.012457790670450776
0.012441729418933392
0.012394101545214652
0.012430432389955968
0.012545601832680404
0.012619633262511342
0.01260397969512269
0.012607264439575374
0.012764334820676595
0.012956029816996307
0.012856860980391502
0.012716330005787313
0.012568494039587676
0.012501158632803709
0.012492751015815883
0.012572045270353556
0.012563281676266342
0.012531809655483813
0.012523358713369816
0.012501058662310242
0.012453652750700712
0.012356208798009902
0.012354503993410617
0.012275958312675356
0.012290000261273235
0.01241051553748548
0.01254211801569909
0.012659602377098053
0.012740945960395038
0.012740287100896239
0.012692177679855376
0.012652840754017234
0.012604059667792171
0.012538378140889109
0.012514442626852543
0.01257765142712742
0.012678884516935796
0.01269434483256191
0.012550242622382938
0.012315201051533222
0.012154744388535619
0.012180343510117382
0.012350030282977969
0.012352783274836838
0.012333067066501826
0.012408686466515065
0.012408430282957851
0.012277991932351143
0.01236814864911139
0.012372282634023577
0.012170547652058303
0.012013767971657216
0.011912515545263886
0.011714034918695689
0.011589190098457039
0.011707084686495364
0.011908008018508554
0.012075621068943292
0.012178556367289275
0.012181665536481888
0.012136553577147425
0.012065275607164949
0.011971382282208651
0.011889638453722
0.011791311651468277
0.011609419065061957
0.011549181099981069
0.011662785704247653
0.01182073085801676
0.011882945699617266
0.011877754314336925
0.011922250925563276
0.011996015238109977
0.011965370974503458
0.011861756120342761
0.011897171668242662
0.011920533748343587
0.01188208906678483
0.011858895237091929
0.011834159286227077
0.01182501764036715
0.011818642907310278
0.011793278567492961
0.011770656809676438
0.011777626464609057
0.011793461788911372
0.011775509503204376
0.011731550588738173
0.011735135649796575
0.01183529852423817
0.011975734727457166
0.012075776138808579
0.012128342825453728
0.01214716644724831
0.012148127590771765
0.012188521465286612
0.012301567869726568
0.012447669710963965
0.012557407112326472
0.012555232231970876
0.012669413620606064
0.01281012339051813
0.012824836000800133
0.012789754050318151
0.012680893139913678
0.01255390710895881
0.01246876958059147
0.01236422692425549
0.0121456516161561
0.01192021056311205
0.011926730927079916
0.011857179794460534
0.01179365212097764
0.011805999130010604
0.011851809290237724
0.011775561368558556
0.01176364057464525
0.011756598881911487
0.011831685213837772
0.011984550727065653
0.012038165433332325
0.012157838568091392
0.012347808224149048
0.012439193944446742
0.012388667152263224
0.012295491013210267
0.012214258229359985
0.012088511784095318
0.01190781130688265
0.011754868307616562
0.011687858728691936
0.011711895018815994
0.011821909160353243
0.011968548484146595
0.012080676467157901
0.012133963606320321
0.012135778844822198
0.012109140059910714
0.01208106690319255
0.01207046038005501
0.012036637964192777
0.011904644891619682
0.011748310355469584
0.011714606643654406
0.011766561926342546
0.01180624770000577
0.011837824254762382
0.011873158090747894
0.011842179812956601
0.011730855146888644
0.011653227377682924
0.011711472463794052
0.011871540013235062
0.012070245707873255
0.01213289184961468
0.012045577093958855
0.011953324959613383
0.011936316213104875
0.011926169078797101
0.011865978501737118
0.011772735682316125
0.011682072922121733
0.011660426871385425
0.011666115366388112
0.011699751280248165
0.011792666460387409
0.011771072172559799
0.0116882527875714
0.011627121940255164
0.011576835948508233
0.011500096987001598
0.011401470841374248
0.011343329215887933
0.011413511405698955
0.011600647522136569
0.011749556409195066
0.011938817515037954
0.012101254244334995
0.012214273524004966
0.012400184953585268
0.012570227745454758
0.012587197877001017
0.012511864239349961
0.012569559668190778
0.012634929607156665
0.012671846963930875
0.012723282922524958
0.012714254828169942
0.01261424052529037
0.01264715911122039
0.012691453690640628
0.012689599383156747
0.012671786274295301
0.012664095333311707
0.012647810687776656
0.012608351670205593
0.012579486307222396
0.012584489823784678
0.012588154326658696
0.012603950987104326
0.01249048840953037
0.012420141159091146
0.012488850133959204
0.012413789306301624
0.012349006696604192
0.012360799002926796
0.012415922190994024
0.012402946988586336
0.0123819176456891
0.012423999467864632
0.012468785683158784
0.01247394277015701
0.012489701751619578
0.012532418514601885
0.012594655025750398
0.012675266894511879
0.012745038806460798
0.012796598558779806
0.012742049943190068
0.012749134772457182
0.012818920549470932
0.012767763931769878
0.012583346976898611
0.012443304762709885
0.01240539716091007
0.01239612500416115
0.012352585750631988
0.012353358678519727
0.012465684020426124
0.012625576651189477
0.012730246970895677
0.01272815311793238
0.0125943348929286
0.01242512080585584
0.012286497266031801
0.012172173217404634
0.012139882063493132
0.012142071151174605
0.012163251375313848
0.01220835161395371
0.012297787913121283
0.012457791150081903
0.012647663010284305
0.012781815475318582
0.012812688224948942
0.012719044478144497
0.012639911361038685
0.012536019266117365
0.012541303276084364
0.012566450899466872
0.012488112687133252
0.01245593715691939
0.01232870267238468
0.01228142142528668
0.012279009234625847
0.012279996052384376
0.012263122757431119
0.012245132143143565
0.012243904923088848
0.01226044533541426
0.012328415387310087
0.012471745326183736
0.012612090033944695
0.012704614389222116
0.01270518327364698
0.012654377641156315
0.01267555141588673
0.012762376456521451
0.012816723803989589
0.012829438070766627
0.012864926662296057
0.012895496301352978
0.01282971415668726
0.012658807893749326
0.01246881308266893
0.01235425978899002
0.012360220784321427
0.01241970543283969
0.012348296334967018
0.012164286428596825
0.012070148116908968
0.01199086416978389
0.012034792462363839
0.011997585140634329
0.011944160235580058
0.011932784034870565
0.011949739521369337
0.012063449004199357
0.01226960358209908
0.012233891307841986
0.011973635742906481
0.01186129052657634
0.011712587710935623
0.011697820546105504
0.01182069541187957
0.011872438550926744
0.011749993981793523
0.011563810838852077
0.011477061996702105
0.011495677109342068
0.01150585561292246
0.01148914824007079
0.011540717531461268
0.011682465579360724
0.011766404041554778
0.011822783157695084
0.011877600231673568
0.011985393627546727
0.012050153790041804
0.011949825529009105
0.011856631946284325
0.011898205785546451
0.011879049884155392
0.01198532419046387
0.012082209149375557
0.012091590645723045
0.012078316505067051
0.01213255986571312
0.012216792185790836
0.0122442258708179
0.012238765007350594
0.012300479935947805
0.01243131716735661
0.012525924805086106
0.012523977376986295
0.012453399086371063
0.012414159311447293
0.012402906350325793
0.012345635327510535
0.012232394909951837
0.012141512630041689
0.012142280992120504
0.012207646952010692
0.012187318729702383
0.012246004869230092
0.012250394308939577
0.01243065065704286
0.012679441592190414
0.012834957665763796
0.012877553685102612
0.012871884689666331
0.012835829632822425
0.012714822976849973
0.012503097001463175
0.012438315930776298
0.01254372964380309
0.012628152540419251
0.012632594218011946
0.01253383297007531
0.012545494781807064
0.012683068618644029
0.01272148041985929
0.012817172927316278
0.0128366508660838
0.012838933139573783
0.01284319238504395
0.012839488387107849
0.012849330769386142
0.012934046366717666
0.01310323887737468
0.013245800642762333
0.01324910083785653
0.01314570930087939
0.013055678957607597
0.013038176835980266
0.013052006035577506
0.012991539465729148
0.012808868149295449
0.012628414542414248
0.012582994017284363
0.012630883590318262
0.012710010071750731
0.012878431633580475
0.013136650521773844
0.013303189950529487
0.013228599107824266
0.012990011677611619
0.012769799202214927
0.01266509983688593
0.012660797820426523
0.012591629787348211
0.01258835210930556
0.01262942868983373
0.012657051652204244
0.012709239386022092
0.012754790133330971
0.012737513268366456
0.012645606754813344
0.012525819626171142
0.01248591393698007
0.012607900870498269
0.012592247396241874
0.012630426629912109
0.012540776238311083
0.012339805169031024
0.012254318855702877
0.01233882024185732
0.012425636956468224
0.012414877961855381
0.012420689521823078
0.012536270914133639
0.012644541342742741
0.01262709577800706
0.012558867437765003
0.012531433606054633
0.012489553638733924
0.012366722663864493
0.012246376690454782
0.012256677767727524
0.01237578626256436
0.012356040314771236
0.01230655076680705
0.012281122165732086
0.01222121115308255
0.012203784217126668
0.0122477047983557
0.012297916673123837
0.012293601147830487
0.012215851028449833
0.012082176974508911
0.011908073336817324
0.011763211635407061
0.01166090564802289
0.011707262352574617
0.01184202269418165
0.011893544211052359
0.01182963265106082
0.011686926854308695
0.011688321530818939
0.011825978867709636
0.01193224961636588
0.011968718874268234
0.012056161074433476
0.012228812593966722
0.012210266606416553
0.012193619592580944
0.011973300548270345
0.011682424319442362
0.011510871585924178
0.011501403786242008
0.01141818190459162
0.011397793416399508
0.011540159680880607
0.01174943509278819
0.01180990852881223
0.011850116706918925
0.011941430617589503
0.012034716485068202
0.011986464946530759
0.011838756497018038
0.011772670887876303
0.011731891771778464
0.0116498736361973
0.01163476255722344
0.011746051330119371
0.011870286813937127
0.011897312614601106
0.011836417806334794
0.011738052053842693
0.011614989067893475
0.011454954990185798
0.011300988318398595
0.011282541255932301
0.011507228915579617
0.011844051915686578
0.012062575560994446
0.012106116756331175
0.012047169448342174
0.012136618955992162
0.012259268378838896
0.012391340718604624
0.012476392996031791
0.012362353978678584
0.012211611636448651
0.012312046254519373
0.012577428519725799
0.012799067583400756
0.012912716278806328
0.013023348285350948
0.013115749144926667
0.013217369362246245
0.013358553240541369
0.01342059635091573
0.01345542425988242
0.013450587335973978
0.013428249086719007
0.013450085883960128
0.013512442817445845
0.013570949751883745
0.013638527062721551
0.013763591235037892
0.013903191420249641
0.013959248852916061
0.01393657895969227
0.013911522317212075
0.013926931163296104
0.013871611384674907
0.013713597389869391
0.013711701007559895
0.013788459098432213
0.01385286659700796
0.013895084578543902
0.013922032930422575
0.013936379191000015
0.013956997143104673
0.014002111607696861
0.01405062855221331
0.013989439404103904
0.013858827052172274
0.013771287843119352
0.013757885417435318
0.01379608467919752
0.013991968436166645
0.014037134700920433
0.01395587963052094
0.013898612358607352
0.013933786002453416
0.014007563921622931
0.014058991107158364
0.01409076969139278
0.014162518905941397
0.014272002882789821
0.014406004732009023
0.014400399709120392
0.01428895967081189
0.01425643080379814
0.014322974365204572
0.01445133453933522
0.014482931131497026
0.014447298927698284
0.014397702948190271
0.01427173664793372
0.014064593147486449
0.013908955967053771
0.013898291080258786
0.013917189403437079
0.01387003250187263
0.013840420555789023
0.013867267202585935
0.013912193027790636
0.01407380105694756
0.014116360119078308
0.013973166106734426
0.01382061384851113
0.013760933403391391
0.013676151926629245
0.013508433389943094
0.013452868980821223
0.013646261647809297
0.013915695240721107
0.014055547371972352
0.014064218583516776
0.014061473745387047
0.01401918570511043
0.013800462598446757
0.013670638685580343
0.01370747379027307
0.013758566845208407
0.013771643738728016
0.0137957779946737
0.013874957051593811
0.01399193630553782
0.014039303187746554
0.013875233209691942
0.013563802796415985
0.013317347741685808
0.01326326333452016
0.013421603131573647
0.013508448624052108
0.013502012658864259
0.013386437136214227
0.013271410178858786
0.013286966891027987
0.013245152714662254
0.012984008982311935
0.012729503114242107
0.012625551715027541
0.012548606861382722
0.012454841253347695
0.012383846268057823
0.012255874406546354
0.012244849565904587
0.012311414782889187
0.012384726428426801
0.012383822321426123
0.012288461374118924
0.012161689712665975
0.012046287623234094
0.011889725166838616
0.011716227591969074
0.011546909492462874
0.01132702549919486
0.011419256182853133
0.011680606801528484
0.011882244397420437
0.011949612046591937
0.012014826086815446
0.01213931359583512
0.012101662401109934
0.011977868867106736
0.011834020863752813
0.011728391470387577
0.011746108510997146
0.011863585417158902
0.011937996922060847
0.011905448583420367
0.011852214648388325
0.01191439991351217
0.011989695329684764
0.011954327244311572
0.011955079578328878
0.011869633814785629
0.011865248682443052
0.011931988808792085
0.011987291255500167
0.01199972772737965
0.011929906820878387
0.011761869003530592
0.011595437803771346
0.011553870053030551
0.011617340045049787
0.01162648862460628
0.011465174064505845
0.01141991059994325
0.01137509964639321
0.011370569937862457
0.011396141655277461
0.011336011590901762
0.01121865485329181
0.011185612319968641
0.011301060286350549
0.011484984182752669
0.011658229434397071
0.011822399890515953
0.011956829358823598
0.012082305937074125
0.01224566029617563
0.012415706254541874
0.012491528443060815
0.012453844894189388
0.0124012465425767
0.012379946515429764
0.012296450901776551
0.012356337574310601
0.01233269585762173
0.012348935194313525
0.012489314817357808
0.012566003585234284
0.01248859938699752
0.012336347054224461
0.012231290494091808
0.012224947682116181
0.012238042112439871
0.012251277763862162
0.012378094396553933
0.012413548866752534
0.012330962291453034
0.012267903441097587
0.01225913783768192
0.012283189971931278
0.012336927568539977
0.012374919869471342
0.012314402752090246
0.012272351004648954
0.012209616908803582
0.012183147519826888
0.012158537858631462
0.012070452130865305
0.011882154382765292
0.011667343096341938
0.011518780991900712
0.011490673637017607
0.011536178018432111
0.011615112598519772
0.01168967496138066
0.011715213842689991
0.011699204295873643
0.01173312267754227
0.011802117757033556
0.011885038919281214
0.012056678633671254
0.012067334090825171
0.011913644729647786
0.011748586008325219
0.011731970545370132
0.011807584925554693
0.011812197633553297
0.011768201354425401
0.011866992169525475
0.012063313864637167
0.012196577917784453
0.012305342205800117
0.012106504586990923
0.011806119612883777
0.011661274284124374
0.01171038040658459
0.011783361127600074
0.011796424421481789
0.011770548522472382
0.011741186659783125
0.011728410520590841
0.01171781285200268
0.011658389295917004
0.01145087847718969
0.011457118161488325
0.011606297388207168
0.011768077705055476
0.011874912115745246
0.01195279480656609
0.012093861592002214
0.012224705924745649
0.0123092752834782
0.012170582779217511
0.011948454056400805
0.011824136786162853
0.011804594348650426
0.011812855468597262
0.01183253398630768
0.011864785829093307
0.011852205453906209
0.011772030699066818
0.011738366750068962
0.011880936985835432
0.01193591286893934
0.01198958138236776
0.011948092640377581
0.01183788076043129
0.01184222943847999
0.01192791469860822
0.011906109887640924
0.011752842681016774
0.011627804567106069
0.011579779349267483
0.01152912479126826
0.011471533831208944
0.011442566537298263
0.011402326920069754
0.011329726898111403
0.011268233605660498
0.011186672698240727
0.01105086575029418
0.011012904550880194
0.011218540479894727
0.011274996686261148
0.011299135277513415
0.01127176919253543
0.011178561600390822
0.011089774472638965
0.010988065681885928
0.010890336765442044
0.010837241457775235
0.010803368103224784
0.010777059174142779
0.010726787669118493
0.010573447726201265
0.010596796572208404
0.010689137892331928
0.01072713810717687
0.0107227444765158
0.010702678957022727
0.010673079153057187
0.010694335063453764
0.01082702410640195
0.010933285413775593
0.011052000124473126
0.011116090577561409
0.011161261121742427
0.01124096506042406
0.011367237421218306
0.01151140956673771
0.011635994876269252
0.011658954869490116
0.011616658146958798
0.011624295918736607
0.011727067634928971
0.01181133285164833
0.011759276459924877
0.011671025075484067
0.011608858059626073
0.011452226515393705
0.011325695363339036
0.011262794875074178
0.01125572225311771
0.01125740858959034
0.011236224614549428
0.011222188407555223
0.01129228260135278
0.011454772418364883
0.01157595539232716
0.011539117717184126
0.011411501658149064
0.011332477608229965
0.011348903037142009
0.01139894086169079
0.011422879120800644
0.011381865984294564
0.011316653715912253
0.01126695747487247
0.01126210851361975
0.011322863714303822
0.011427819468080998
0.011490587492007763
0.01147183132590726
0.011544382877182215
0.011487867808900773
0.011394733421038836
0.011308178442995996
0.011228098650462925
0.011148623584304004
0.01105718688108027
0.010972509395796805
0.010929975048638881
0.010935262222774326
0.010981357544660569
0.011035540057346225
0.011045340246055276
0.011026202796492725
0.01104351351270452
0.011109218110796064
0.011194516227114946
0.011272077357862145
0.011296833951491862
0.011237918334081769
0.011139688959810884
0.011101411208510398
0.011182004902511835
0.011321146083064377
0.01139753744006157
0.011394995292648672
0.011417421642690898
0.011463724123314024
0.011387301841750741
0.011320776981301605
0.01120092905126512
0.011200910131447018
0.011223527430556714
0.011229996611364186
0.011207484304904938
0.011142560034058988
0.011141028483398258
0.011195172630250454
0.011233073021285235
0.0111887315986678
0.011158393030054867
0.011234098705463111
0.011380270053632558
