57.13613005399704
57.72983526706695
58.36110002279282
58.8536759853363
59.262409987449644
60.2726889538765
60.976979720592496
60.94195315361023
61.61301277160644
62.5475964641571
61.938899433612825
62.08477574110031
61.486606123447416
61.060175535678866
61.901550490856174
59.51369428396225
57.71832156896591
58.231932721138
54.51586242437363
50.066408941745756
47.909749794006345
46.879187982082364
46.38956549406052
46.43744464635849
46.01865620136261
46.16918526649475
46.76534819602966
46.558577172756195
45.284592139720914
44.51895877122879
43.924046754837036
42.86156613826752
43.327791430950164
42.15545883655548
40.48276989459991
39.811405816078185
39.57003460884094
39.27833228588104
40.01553281068802
41.52554491996765
42.5558265542984
42.27306828022003
42.43514576196671
41.933761072158816
39.95411163330078
39.53754712820053
40.331325850486756
38.628116195201876
36.587982988357545
35.64986300945282
35.390097494125364
33.93456191062927
34.19321022748947
35.92656110525131
36.84943733692169
35.69058515310287
35.091966118812564
34.708026928901674
34.12511518001556
33.319383561611176
33.674363267421725
33.35002244949341
33.776879637241365
34.271558582782745
34.771954765319826
34.83066398382187
35.79799272298813
37.10752880096435
37.964476459026336
38.01858552455902
37.714775846004486
37.428274309635164
37.75910212278366
37.235644063949586
37.530357670784
38.15809271335602
38.19524181365967
38.077269434928894
38.46363812923431
38.15683118343353
38.49560165882111
39.00924824953079
39.26457089662552
40.48325391769409
41.922356855869296
43.23236837625504
44.333403086662294
44.56562763690948
43.75801753282547
42.515527877807614
41.71170781373978
42.62892297744751
41.82399557828903
40.301710300445556
40.20762413740158
39.44912650346756
38.778605496883394
38.74927573919296
38.33892839431763
38.23086919307709
38.5086799788475
39.08117386102676
38.08403402805328
35.52333444595337
34.029682579040525
34.078211290836336
34.03058114528656
34.60409193277359
34.48276395082474
34.839290850162506
35.237377064228056
35.84584915876388
36.48933878660202
35.92097347974777
34.78218391418457
35.8418446302414
35.45696121454239
34.67966106414795
34.86027096271515
35.45419120311737
35.82489920139313
36.70382128000259
36.51156630516052
36.60689368486405
35.77181872367859
34.74095022439957
34.54228427886963
35.63658769607544
36.10535930395126
36.47412757873535
37.44591927051544
38.740952391624454
38.40932557344436
37.721886096000674
37.88873074054718
37.95721131563187
37.38801012277603
37.43863787889481
38.79738199710846
40.14934695482254
40.16184291362762
39.555967531204224
38.88119884490967
39.19745474815369
39.47065877199173
39.32226465702057
39.50549530029297
39.331591944694516
38.812412734031675
38.34451291322708
37.8563872385025
37.339078493118286
37.3898161649704
38.23479205608368
38.41534804582596
38.355594696998594
37.71927334785462
37.032060604095456
37.101029953956605
37.410391063690184
37.99434409379959
38.07011147022247
37.12003603696823
36.45112828493118
36.35727908134461
35.3876938199997
34.06558161735535
33.083616042137145
32.4439096736908
32.03828997373581
32.09903075456619
32.12897576093674
32.715526175498965
33.24173903703689
33.2331956243515
33.54408344745636
33.776555421352384
32.466605896949766
31.67739399433136
31.639868392944337
30.989915006160736
29.88234863996506
29.795024034976958
29.17911027908325
27.792728095054628
27.18440426826477
27.424063909053803
27.02744005680084
25.7405025601387
24.321678938865663
24.71038814783096
26.185807511806487
27.96612238883972
27.71448518514633
29.051729340553283
29.683804795742034
29.997137603759764
30.7539675283432
31.200031147003173
31.373228869438172
31.31227038383484
31.201290211677552
31.12057058572769
30.616134238243102
30.287290377616884
31.076484003067016
31.492391920089723
31.456091215610503
31.346737642288208
30.734347734451294
30.295656001567842
30.562877545356752
31.286426694393157
31.32233816385269
31.340519063472748
31.76311376094818
33.65394129276276
35.520492339134215
34.97912425994873
36.1751695394516
36.968876657485964
36.773486144542694
36.895202991962435
37.4249431681633
38.501183154582975
38.9990473151207
38.9302204823494
38.94906812906265
38.81593154907227
38.42180367946625
37.10615091562271
37.05263213157654
37.74130034208298
37.76645058631897
37.54028182506561
36.774669785499576
36.0281749176979
35.926664943695066
35.54385609149933
35.18331063747406
34.60610390901566
32.71332365512848
31.232049782276153
31.09723379611969
30.727429060935975
32.32896510839462
34.32939551353454
35.151402657032015
35.09541406393051
35.14158254861832
35.516296210289
35.591314504146574
35.46713840723038
35.07743128299713
35.61034742355346
36.13888652324677
36.40449089288712
36.314700868129734
36.30559740781784
36.43947044849396
36.073066668510435
35.07443092346191
34.605479860305785
35.64772792577744
37.27971434831619
38.19430120944977
37.243397092819215
35.42513374090195
35.044548408985136
33.90756313323975
32.995183022022246
32.63998634576797
32.01342822313309
30.94898983001709
29.93801582813263
29.551413247585298
29.89874491930008
31.154222831726074
32.91644604682922
33.86589280128479
34.21471098899841
34.98714920282364
34.79799696922302
34.44581585407257
34.34440058231354
34.63431893825531
35.406080343723296
35.80176382780075
35.68516978502274
35.597244319915774
35.85738774299622
36.34140391588211
36.71485304355621
37.176247498989106
35.964499509334566
33.957632966041565
31.43006423711777
30.39575991153717
31.154570059776304
31.62244998931885
31.419974675178526
31.461101796627045
31.241313121318818
31.3896076130867
30.773672075271605
29.554153957366943
29.0121724319458
29.372401030063628
29.764552886486054
29.687333726882933
29.143435378074646
29.947943453788756
31.677114870548248
33.13203602552414
33.56366450786591
32.426670475006105
32.193922221660614
32.75683198213577
33.430393388271334
33.18129579782486
32.81402284383774
32.93129416704178
33.51432152986526
33.99288917064667
33.7717782330513
33.18913556337357
32.72657124280929
33.23969637870788
34.14058266878128
34.725463631153104
34.9004123878479
33.777198431491854
33.06236187934876
33.869352893829344
35.819365923404696
37.57250425100327
38.45856874227524
40.03352816104889
42.83381955385208
45.05275066375732
45.296761169433594
44.92752267599106
44.42917022705078
44.063843138217926
44.07673565626144
43.64734472513199
43.6276198554039
43.091530351638795
42.51228440284729
42.43845477104187
42.85998875617981
43.42062669038773
43.67425222635269
44.240868029594424
45.37666407823563
45.80099128484726
46.17953114509582
46.301783664226534
46.22255818843841
46.351111812591554
46.39516660451889
45.57464325428009
43.488783984184266
40.91848895788193
38.89685322761536
38.42692453861237
37.66281448841095
37.017000942230226
37.04401240825653
37.441688096523286
37.37353752374649
37.12542864561081
36.9291826915741
37.50032040596008
39.6097417473793
41.75073197364807
41.80958194971085
41.19662860393524
39.06770774364472
38.86297618150711
40.33441654920578
40.65134138822555
41.005921032428745
40.74136588573456
38.67067009449005
36.62601816177368
35.62230624675751
35.23328511476517
33.62898759841919
31.584202263355255
32.49826394319534
34.01004769563675
35.147819929122925
35.58238744735718
35.63546751499176
35.93090579271316
36.42716128110886
37.21401822328568
37.201179358959195
36.583268117904666
36.435960516929626
36.27427212715149
36.25857925176621
35.722398669719695
34.67287608623505
34.53249652862549
35.21200071811676
35.9686424779892
36.2538584947586
35.991007528305055
36.05730991363525
36.078296570777894
36.52226007461548
36.57773878335953
37.053572630882265
38.2657964015007
38.79472999811173
38.55736718893051
38.68776559114456
38.43267578601837
38.556677842140196
38.52177679538727
38.05942082881928
37.124615113735196
35.252556111812595
33.14626852989197
32.561362524032596
31.866117174625398
32.19870046377182
31.130973672866823
29.196796309947967
29.118423013687135
29.220875084400177
29.217033417224883
29.82480450630188
30.468763675689697
31.00574609041214
30.800499353408814
30.597097988128663
30.657874767780303
29.216679449081422
27.523873467445373
26.042980511188507
26.062656500339507
26.90471893787384
27.18353666782379
26.799089801311492
26.25584683895111
25.77187381029129
25.673780329227448
25.15619882583618
24.959243648052215
26.001604390144347
27.708226363658905
28.440068426132203
28.364636080265043
27.73099175453186
26.984082510471342
27.97077734231949
30.743109200000763
33.120665559768675
33.1530583024025
33.81170629739761
34.142681889533996
34.0569225025177
33.143267543315886
32.76274478912354
32.718811480998994
31.925042471885682
31.77955269575119
31.836111602783202
32.24231813907623
32.808095664978026
33.082651193141935
33.247693274021145
33.09997820138931
34.18161985397339
34.67563945055008
34.25520641088486
34.87777201652527
34.95056062936783
35.03144813299179
34.80587863922119
34.44499284267425
34.091573379039765
33.35414231061935
32.16426207065582
31.142832531929017
30.801919689178465
31.02204781770706
31.212136092185975
31.174672422409056
31.34647234916687
30.924717733860017
29.9393713760376
29.85134224653244
30.60902930498123
30.80866614341736
30.885112979412078
31.84241218328476
32.9661123585701
33.482414433956144
32.502785720825194
30.709560232162474
30.10027046442032
30.564878809452058
31.064722740650176
31.3933664894104
29.821328315734863
27.298249857425688
25.516325376033784
26.60202624320984
27.686826176643372
29.55535289525986
30.530931837558747
30.561018407344818
30.798226130008697
31.552539212703707
32.01994760274887
32.25917910814285
32.567924513816834
31.862426772117615
31.460135939121248
31.014414494037627
31.66225809812546
33.50157012224197
33.445034971237185
33.0940860581398
34.0499858880043
33.946115081310275
34.769855220317844
35.92503591299057
37.6501146364212
38.288276519775394
39.402296843528745
42.528009243011475
46.110529613494876
48.531439800262454
49.39093620300293
48.85572392225266
50.16078366041184
52.147678039073945
53.24639034032822
53.20483203649521
54.02756707906723
54.483315591812136
54.53452650785446
54.69712152481079
54.654532001018524
53.97752005338669
53.02786856174469
52.80040041923523
53.67227293014526
54.32375414133072
54.07537381410599
54.043575224876406
53.41888401985168
52.75319971084595
53.14133942127228
52.663999655246734
52.52663041830063
51.84754603147507
49.61755376577377
48.027863743305204
47.6124176645279
48.0519128537178
47.67718412876129
46.67521904230118
46.55812487363815
46.951731724739076
47.157169625759124
47.56761768817901
47.45874757051468
48.39323763370514
48.09572798728943
46.41294960260391
45.97927639484406
45.36593741893768
44.33704113721848
43.44256512403488
42.587212703228
40.97735891103744
39.125480720996855
39.01359516620636
38.67810245037079
36.13903926372528
32.62191072702408
29.854400048255922
28.416419909000396
28.878042392730713
27.971210238933562
25.80174161195755
25.2364097571373
25.31128923177719
25.302046871185304
25.41504212617874
25.36119976043701
25.56635328769684
26.326017446517945
26.521808462142943
27.165741159915925
29.21406904220581
31.150836181640624
32.38925680398941
33.37304094791412
33.38520936250686
33.55783849477768
35.54157643556595
35.74886033535004
38.44262064218521
41.47678967237473
42.7817686009407
43.733271992206575
43.94893433332443
43.09678020715714
43.595797317028044
45.76159214258194
48.40115031719208
50.2818216753006
50.406621866226196
50.52540581464768
52.247167911529544
53.99218425989151
54.113847420215606
53.67487771511078
53.77508738040924
54.0090030503273
54.63394467830658
54.34644326210022
54.84485430240631
55.318230409622196
55.652497839927676
55.83974586486816
55.10596945285797
54.72692458629608
54.95507603645325
55.458030138015744
55.951853017807004
56.57061460018158
56.44793769836426
56.28425675868988
57.10194179534912
56.416520547866824
56.54227779865265
56.54634081363678
57.30204949855804
57.81411406993866
57.582342338562015
57.21430478572845
57.453654203414914
57.60511740207672
55.77145030021668
52.66938293933868
51.42831416606903
51.057033405303955
50.4100918674469
49.96753300189972
47.893547554016116
47.92241982460022
46.10587487220764
43.056720609664914
41.36823447704315
41.38394043445587
41.03613803863525
41.07328286170959
40.25741240978241
38.15953542709351
36.42541913509369
35.08763402462006
34.85601366043091
34.42781851768493
32.62089376449585
30.744732847213744
30.32792083263397
30.12329071044922
30.671282086372376
30.4525688457489
30.176789121627806
30.947659134864807
30.66206851005554
30.41268053531647
30.626225666999815
30.61938872337341
30.78927182674408
30.5800723361969
30.392950658798217
30.109601163864134
29.770674958229066
29.234462943077087
29.245276012420653
29.66188093662262
30.10907738208771
31.29290584564209
31.42765516757965
31.149384899139406
30.141697630882263
29.137474794387817
28.533055686950682
28.03943552970886
28.131043796539306
28.606426634788512
28.994587779045105
29.2617959690094
29.002204213142395
29.234489517211912
30.446324434280395
31.478747572898865
32.07123122215271
31.578663396835328
31.432460746765138
31.55708960056305
31.791723108291627
31.926649703979493
33.16102040290833
34.60050252437591
35.14134606838226
35.26136306285858
34.60107407093048
34.78921540260315
34.93426687717438
34.843788661956786
35.43814628601074
35.40352643013001
35.23756980419159
35.27802011013031
35.304520659446716
35.878894743919375
35.69777567863464
35.71687298297882
36.49878708362579
36.80869360923767
36.05983842372894
36.25036916255951
36.477953605651855
36.5879109621048
36.7784111404419
36.816560339927676
38.28382316589355
39.66271337985992
40.10546363353729
39.79320526123047
39.12154282093048
38.08825257301331
37.72815551280976
37.407920274734494
37.52731628417969
38.760247764587405
39.865131816864015
39.94161750793457
39.3269220161438
38.30202334880829
38.44398783683777
40.20925838470459
41.39996190547943
41.33920512199402
40.28216344833374
39.13506289958954
38.50649634361267
38.4345622253418
38.238964281082154
37.928022809028626
38.21160161495209
38.682656693458554
37.95615258693695
36.67950700759888
35.9192057466507
35.66376474380493
35.54056295394898
35.11464423179626
35.08375240802765
34.92028754234314
34.471271557807924
35.470748438835145
36.17595621109009
36.69395308017731
35.934701423645016
35.13822945594788
35.42006472110748
35.67723289966583
36.048241868019105
36.18634286880493
36.361783323287966
36.45486968040466
37.13708466053009
38.456752395629884
39.91900899410248
41.206109800338744
39.97335112094879
38.57382705211639
38.31219922542572
38.80474360466003
39.62752583026886
40.05348026752472
40.49549860954285
40.838253078460696
40.089523644447326
39.039111227989196
38.12386839866638
38.319069790840146
39.158869519233704
39.92620059013367
39.30518641471863
37.39799129009247
36.549053554534915
36.47249334335327
36.877353048324586
36.99009464740753
37.65220812797546
38.87684575080871
39.429392461776736
40.18550173282623
41.062484664916994
41.048530149459836
40.56891081809997
40.18409101009369
40.40073727607727
40.6674365568161
40.53170725345612
40.02035123348236
39.345816588401796
39.26053004264831
39.065419330596924
38.109739127159116
36.9754784154892
36.441550245285036
36.363380422592165
36.213133997917176
36.47871788978577
36.38310806751251
35.21580793857574
35.22128402233124
36.42479685306549
36.51199190139771
35.44214717388153
34.205441966056824
33.32122214794159
33.337861227989194
33.61618609905243
33.46476526260376
33.29805606842041
32.82813227176666
31.49805619239807
31.30560921192169
31.089499087333678
30.721542048454285
30.655713081359863
30.68822009086609
32.310636744499206
34.32903250694275
34.89987005710602
34.21587702274323
34.08276624679566
35.5104753446579
36.55019428253174
37.067032499313356
37.00400204181671
36.82014583110809
36.52984331130981
36.056500210762024
35.57020436286926
34.73495487689972
33.75783139705658
32.37748869419098
32.0167231464386
32.536683883666996
32.98172288417816
33.58554546356201
34.03369749069214
34.088720407485965
34.30068340778351
34.46279533863068
34.942362904548645
35.61141872406006
36.67168223381042
37.729159364700315
37.69312041759491
38.55710449695587
38.21742632865906
38.1917105960846
38.683745455741885
38.64671926021576
38.74336321830749
38.27805555343628
38.90808247566223
39.27968913078308
39.33401352882385
39.47908450603485
40.07716203689575
40.92407528400421
41.18366517543793
40.64221078872681
41.738260293006896
42.70248561859131
42.96756423473358
42.89299726486206
42.91981074333191
42.383893404006955
40.73961832523346
38.58690498828888
37.12446840286255
37.32972301959992
37.62757623195648
36.63735504150391
34.94047984600067
33.60132759571076
33.09691097259522
33.10386100292206
32.95957521915436
32.69860075950623
32.55077751159668
32.31256085395813
31.805919919013977
31.76084876060486
31.73663432598114
32.05024164199829
32.44275105953216
32.27068145751953
31.83569899559021
31.794058718681335
31.56436628818512
31.357126874923708
30.98344443798065
30.478155732154846
29.27723626613617
28.11716232776642
28.687960848808288
28.500343642234803
28.8132227230072
27.904578542709352
27.699163293838502
27.28219500541687
26.878602452278137
28.492986116409302
28.88751386165619
28.264920687675477
27.928497924804688
27.270830469131468
26.673288288116456
26.470563015937806
26.47709611415863
26.707838277816773
27.388267431259155
28.133778228759766
28.514629096984862
28.576679644584654
28.75596950054169
28.907602066993714
28.55130582809448
28.40864290714264
28.345632281303406
28.01636269569397
27.916531949043275
28.21067370891571
28.409858207702637
28.696598467826842
29.479276876449585
30.70188228607178
31.915932717323305
32.59996901512146
32.84653892993927
32.843138751983645
33.2234108543396
33.807418913841246
33.99023413658142
33.3958262014389
32.27925573348999
31.503739314079283
32.06625942707062
32.75950421333313
33.427079949378964
33.86145064353943
33.64199607372284
33.88626459121704
35.121240429878235
35.890382051467896
35.51456476688385
35.45046612262726
35.49367205142975
35.63257411956787
35.191920704841614
34.82158569812775
34.1560785150528
32.706336245536804
32.26702991962433
33.20026385784149
33.98465065002441
34.34335255622864
33.99732811927795
33.769020705223085
34.226440167427064
35.25823482513428
34.25700468540192
32.25748946189881
31.40774676322937
31.272633361816407
31.11248441696167
30.837122378349303
31.39345840930939
32.11706011295318
32.38458414554596
32.291747121810914
31.82549954891205
31.199744606018065
31.59538656234741
32.027375168800354
31.499146385192873
30.247156319618224
28.79396209716797
27.733025975227356
27.161286010742188
27.213756594657898
27.028309679031373
26.533264026641845
26.41245544910431
26.425391964912414
26.61150562763214
27.287874302864076
27.19391147136688
26.623803067207337
26.560492520332335
27.290822057724
28.283690538406372
27.869446959495544
27.421765036582947
27.907569003105163
29.326835885047913
30.38685185909271
31.32884133338928
31.670126256942748
32.88242609500885
36.38894937038422
40.404757804870606
43.042022180557254
43.11926637172699
42.77032819271088
41.88946189880371
40.88426867485046
40.79248526096344
40.74698470592499
39.960613355636596
38.953994164466856
38.80607626438141
39.36984683036804
39.302394704818724
39.69709885120392
40.06663681030273
40.93995235919952
41.89306613922119
42.42825441360473
42.41268969058991
42.53682854652405
42.73696617603302
42.80469608306885
42.10676359176636
41.4075181722641
41.23028419971466
41.38256947517395
41.42139342784881
41.57329031467438
41.73253703594208
41.65665580749512
41.60611291408539
41.81126284122467
41.80669321537018
41.98138684272766
42.61658071041107
43.0868962097168
43.21503925323486
43.02297557353973
42.943878192901614
42.31158832073211
41.45211396217346
41.541426882743835
41.579957385063175
41.147944531440736
40.012952570915225
38.19294770717621
37.13621195793152
37.252504267692565
35.82817516803741
33.1269607925415
29.94071537017822
27.96671842575073
28.149208822250365
27.547123866081236
26.510083961486817
26.117449536323548
26.02254153251648
25.90997483253479
25.904274249076842
26.391486678123474
26.035288395881654
25.82985191345215
26.291610445976257
25.89964336872101
25.393794980049133
24.559683837890624
23.11395203590393
22.030090193748475
22.41520564556122
22.481703372001647
22.102153759002686
21.986486144065857
21.91953511714935
22.00419331073761
22.218890099525453
22.179280476570128
22.141294012069704
22.41229730606079
23.89441888332367
26.3597443819046
28.238879070281982
28.80330105304718
28.8076322555542
29.174039320945738
28.523906993865968
27.48579960823059
27.49395118713379
28.509654803276064
28.743746013641356
28.563499722480774
29.389458141326905
29.295501132011413
29.29675453186035
29.289015889167786
29.216686882972716
29.25615304470062
29.47121666431427
30.01447850227356
30.632390003204346
30.05252309322357
29.244285173416138
28.314098763465882
27.82471173763275
28.09270077705383
28.800654106140136
29.317435269355773
29.47874460220337
29.352599358558656
29.138730883598328
28.51180251121521
28.275723495483398
28.30442973613739
28.05449077129364
28.25521810054779
28.471707000732422
28.52976547241211
28.735164947509766
28.57349066734314
27.890124244689943
27.5632103061676
27.531308426856995
27.47145743846893
27.815282859802245
27.776584887504576
27.558194456100463
27.730014352798463
28.084601798057555
27.97054292201996
26.72852792263031
24.799197006225587
23.207007341384887
22.730055809020996
22.70114227771759
22.188986468315125
22.303904314041137
22.290651960372927
22.22042649745941
22.379410705566407
22.708714408874513
22.775582709312438
21.789315934181214
21.80920410633087
21.19934932231903
20.63652303695679
21.661717538833617
24.040385546684266
25.712352957725525
25.80944182395935
25.219029359817505
25.326556792259215
24.924967408180237
25.098775701522825
25.208342256546022
24.734566078186035
24.288946590423585
24.219855365753173
24.256682715415955
24.1776359128952
24.504359340667726
25.249223470687866
26.095987043380738
25.844275341033935
26.244444851875304
27.059442706108094
27.489482669830323
27.390305762290954
27.143054547309877
27.275459232330324
27.47964762210846
27.347716565132142
27.728303689956665
28.79221652507782
30.206901874542236
31.486067824363708
31.384100332260132
31.92948027610779
32.105573415756226
31.640463604927064
31.383737297058104
31.75059985637665
31.5578341960907
32.0219414806366
33.46564016342163
34.40477914810181
34.33971430778504
34.175954818725586
33.6027548122406
32.664260673522946
32.014317417144774
31.508509883880617
32.15999167442322
32.63035680294037
32.4195697593689
32.242365741729735
31.583153204917906
29.887389907836916
27.454379320144653
26.80053357601166
27.7981232213974
27.803943195343017
28.270661034584045
28.5369118642807
28.393340845108032
28.542331728935242
29.064159936904908
29.57814194202423
29.58994978427887
29.925619897842406
29.989277396202088
29.288883476257325
29.20534912586212
29.748545117378235
29.536125116348266
28.503981919288634
28.39710307598114
28.80640299797058
29.04607632637024
29.3430309343338
29.196167998313904
29.484810032844543
29.31178841114044
28.15058641433716
26.445136070251465
25.816787981986998
27.288312211036683
27.861299657821654
27.663700685501098
28.431532106399537
29.860638403892516
31.188417663574217
33.14814275741577
34.20479016304016
33.41418252944946
32.509435000419614
32.98872873783112
33.1581810426712
33.63298575401306
33.970433168411255
34.11627245903015
34.480076594352724
33.731451058387755
33.52043568611145
34.135872993469235
34.70392305850983
34.47731855869293
33.818602294921874
33.9282231426239
33.699237241744996
33.05305267333984
32.72338605880737
32.74070872306824
32.4000635766983
32.613125495910644
33.93367488861084
34.98263772964478
34.85595947742462
34.67358918190003
34.755437755584715
34.46392817497254
35.22971426486969
35.3030441904068
34.769706058502194
35.787609605789186
37.21118634223938
37.13150071144104
37.11538814544678
37.454672589302064
37.31280042648316
37.92754133224487
39.068741517066954
40.29511820316315
40.99164336204529
41.03567297458649
40.73260333538055
39.67050003528595
38.59522377967834
38.485373768806454
38.66199062824249
37.85719929218292
35.67446792602539
34.00317712306976
33.13698396205902
33.34665874004364
33.464466133117675
32.99113981723785
33.719983563423156
34.35899960517883
35.15349711894989
35.96577330112457
36.05835779190063
36.66759744644165
37.09510633468628
36.4736304473877
36.73302129268646
37.025341186523434
36.938895201683046
37.33850379943848
37.19161097049713
36.88081195831299
37.42932445049286
37.82291173458099
37.62204448223114
38.904454708099365
39.67338366508484
39.449725198745725
38.949459352493285
39.388610448837284
40.17162257671356
41.126968908309934
40.81053147792816
40.19407988071442
40.02512275218964
39.12409143924713
38.30746337413788
38.142650446891786
37.83279169082642
37.45542269706726
37.497272138595584
37.62624826431274
37.61327844142914
37.45016577720642
37.2043855714798
37.309138321876524
37.18801504135132
37.00884527683258
36.93407762050629
36.71885932445526
35.793613052368165
34.92532195568085
34.924129605293274
34.3836949634552
33.31042085647583
32.3246595287323
32.09825738906861
32.36662263393402
31.7476903295517
30.921441011428833
29.753763036727904
28.6951042842865
29.579121747016906
30.58126118183136
30.763568153381346
30.79235405445099
30.236300916671752
29.397700910568236
29.64252893447876
29.23921326160431
29.158619899749755
29.522536787986756
29.230054388046266
28.45925287246704
28.763516592979432
27.325452818870545
25.164177031517028
23.73554629802704
23.451655321121216
22.938688311576843
22.174878749847412
21.577944340705873
21.050647706985472
20.940857815742493
21.101153383255006
20.60243152141571
20.12581949710846
19.980665287971497
20.593785133361816
20.85562843799591
21.29018539428711
22.707215662002564
23.791000356674193
23.97566529273987
23.691349267959595
25.43989281177521
27.312861375808716
28.130244541168214
28.146826295852662
28.265454654693603
28.380314497947694
29.284475326538086
30.399329023361204
30.746938872337342
30.7711651802063
30.816479325294495
32.18987005710602
34.10419865131378
35.893174734115604
36.570633425712586
36.60616655349732
36.2267279291153
35.46218177318573
34.44939710617066
33.756900243759155
34.0002601480484
33.89963648796081
34.341430373191834
34.81576557636261
35.385715293884275
35.280210151672364
35.4960228061676
36.120502109527585
36.81670635700226
36.70584825515747
36.57206208229065
36.3921012878418
36.94196903705597
37.522706785202026
37.4834603023529
37.1240943813324
37.3177472114563
38.22807272911072
38.412937288284304
38.274888257980344
38.297350635528566
38.62023965358734
39.02381259918213
38.67344007968902
38.34670418262482
37.49040553569794
35.391267294883725
33.18493087291718
31.620700464248657
31.868549394607545
30.38143984794617
28.168072957992553
27.172718529701232
26.910916447639465
26.919888648986817
26.85724343776703
26.03761191368103
25.236292066574098
24.995870623588562
24.960572915077208
25.101027064323425
23.89305634498596
21.475400505065917
19.535795350074768
18.853889298439025
18.57399332523346
18.66067255496979
18.287967801094055
17.923475971221922
18.013215084075927
18.27612952709198
18.55362397670746
18.890351881980894
18.852728095054626
18.298905301094056
18.17760889053345
17.703266305923464
17.025213055610656
16.221089205741883
16.410709352493285
17.036561179161072
17.834475474357603
17.671526160240173
17.212781496047974
17.33420066833496
17.78551945209503
17.643149547576904
17.58977313041687
19.04034942150116
20.622416419982912
21.428862428665163
21.93356680393219
22.83009548664093
23.280063128471376
23.60133502483368
24.6594961309433
25.318969120979308
25.386321210861205
25.45221999645233
25.558558225631714
25.85385095119476
26.340167632102965
26.22530918121338
26.347446093559267
26.54186098575592
27.12419548034668
27.531422200202943
27.28641047477722
27.450772590637207
27.540860018730164
27.153927063941957
26.900347847938537
27.028330464363098
27.185920424461365
27.32889603614807
27.59660439968109
27.75692828655243
28.382448110580444
28.364098997116088
28.81521635532379
29.86645401477814
30.53359981060028
30.220632729530333
29.575818634033205
29.634541325569153
30.13859591960907
30.048310594558714
30.481895899772645
31.28058754444122
30.93291831970215
30.41891387462616
29.941826000213624
29.338372931480407
29.16160642147064
29.175660037994383
29.31470115184784
29.673696284294127
29.5949071598053
28.551766395568848
27.21692094326019
26.49178822517395
25.870191206932066
24.748670511245727
24.14596778869629
23.724797987937926
22.702789850234986
22.586813850402834
23.563048157691956
23.905321440696717
24.616010818481445
25.759270486831664
26.542606787681578
26.787185168266298
27.19439066886902
27.623195843696593
27.218672542572023
26.829659433364867
26.898171377182006
27.235682201385497
29.06153528213501
31.345916328430175
32.088869161605835
32.13042987346649
32.0425550031662
32.13316368579864
32.612221002578735
32.80061579227448
32.201180658340455
33.251014828681946
34.25302456378937
34.16653739929199
33.49786364078522
33.063103666305544
33.01421431541443
32.817421336174014
33.068019890785216
34.0779186630249
34.250595364570614
34.19792905807495
35.181815509796145
36.30711612224579
37.068135280609134
37.315032296180725
37.489050908088686
37.26127136707306
36.790583019256594
35.95858542919159
35.17314930438995
34.77676184654236
35.02451355457306
35.34190162658692
35.076218938827516
35.36845301628113
35.75887731552124
35.766335544586184
36.143001594543456
35.8908660697937
34.64227024555206
35.06972855567932
34.80235642910004
33.444746737480166
32.213477883338925
31.984204783439637
31.425155110359192
31.033275079727172
31.759382224082948
32.501579852104186
32.604933581352235
33.69781371593476
34.4984393119812
34.62878312110901
34.787037725448606
34.598601245880126
35.38444007396698
35.960929636955264
35.585468888282776
35.21668768882751
35.474884548187255
34.7222461938858
32.928660883903504
32.18853196620941
32.290632662773135
32.547573823928836
32.58066452503204
32.521393070220945
31.867171545028686
31.008670597076417
30.4099826669693
29.773254585266113
28.745001206398012
27.63306568622589
26.971522703170777
26.726815071105957
27.220965509414672
28.195346298217775
28.253104219436647
28.457607231140138
28.602111673355104
28.585434370040893
29.20885106563568
30.466538100242616
31.532028675079346
31.153246111869812
30.956975331306456
31.72939082145691
31.95455988883972
31.54884335041046
31.861960558891298
31.761822128295897
31.54620017528534
31.528238854408265
31.820891046524046
32.17239900112152
32.583256034851075
32.513458409309386
31.88415497303009
31.389900946617125
31.143881125450136
30.049632387161253
28.390153188705444
26.825437026023863
25.95084315776825
26.213642010688783
26.3043115234375
26.47186330795288
26.62353892326355
26.69470006942749
26.59296323776245
26.037480974197386
26.364746232032775
26.26156942367554
26.06498339176178
26.166502628326416
26.86333480358124
28.01297905921936
28.93571939945221
29.175769939422608
28.973355860710143
29.48129065990448
30.43524514198303
31.02204810619354
30.98476692199707
30.961055760383605
30.295906171798705
29.410313887596132
29.350347099304198
29.043459177017212
29.280316576957702
29.82975784301758
29.853262915611268
29.316441407203673
28.6252605342865
28.72027729511261
28.960860242843626
28.51125991821289
27.905092663764954
28.185833501815797
28.620245819091796
28.70147808074951
28.272858924865723
28.277240142822265
29.135755944252015
29.700643196105958
29.528511848449707
30.34526342868805
31.075873594284058
31.29547215938568
31.286833477020263
31.03405711174011
30.267165904045104
29.442843980789185
29.320327038764955
29.032705607414247
28.33082329750061
27.795343074798584
28.3051016664505
29.03989789009094
28.70994966983795
29.024499702453614
28.555370111465454
28.220580587387087
27.783030829429627
27.61889142513275
26.88715335845947
25.773106603622438
24.744081888198853
24.545765705108643
25.25976480484009
25.764025702476502
25.44904332637787
24.76526997089386
25.54005968093872
26.835480194091797
27.924484486579896
29.56635937690735
31.56446816444397
33.39104336738586
33.91531683444977
33.28704040050506
32.85336654663086
33.35059096813202
34.05212582588196
33.70164387702942
33.44127715587616
33.32766821861267
33.72093967437744
34.19350318908691
33.874553728103635
33.78919033050537
35.363897256851196
36.208814210891724
35.19862373828888
34.960875725746156
34.787208676338196
33.8413964176178
32.98015914916992
32.894197030067446
33.084673948287964
32.755021514892576
33.12844873905182
34.12918019294739
34.26920387744904
34.74377534866333
34.52633415699005
34.6796585893631
34.844715995788576
34.7076340341568
34.74295513153076
34.48876883506775
34.572327675819395
34.41617809295654
34.82547157764435
35.703055210113526
36.324208612442014
36.665915699005126
37.79305432796478
38.77656406879425
39.21314973831177
38.72025938987732
38.70090583324432
40.50933472633362
40.991627135276794
39.89970722198486
40.44712390899658
40.47835175991058
39.23622324466705
37.70089756011963
36.91784002780914
37.29990495681763
36.565248498916624
35.967153964042666
35.9602738571167
36.13276386737824
35.84158174514771
36.06386361598968
36.611987314224244
36.8700607919693
37.37251574993134
37.173024578094484
35.57190404891968
34.93756381511688
35.28399937152862
35.086878280639645
35.93383165359497
36.65689649105072
36.523066987991335
36.7926053571701
37.59997662544251
38.175487232208255
37.91360904693604
37.27840497493744
37.24415465831757
36.74093687057495
36.59522972106934
36.12319421291351
35.43359207630157
34.98969383716583
35.06083994865418
35.03696586608887
35.16713554859162
35.4275697851181
35.33827104568481
34.2737841796875
33.67457527160644
33.2620988035202
32.28130854129791
31.86223386287689
32.09853318691253
33.023052587509156
33.51498223304748
32.11321937561035
30.54929124355316
30.78188422679901
29.819606595039367
28.614844932556153
28.204101543426514
29.232989587783813
30.509567499160767
30.195640530586243
31.169716577529908
31.576302366256712
31.62839575767517
32.46083417415619
33.14429555416107
32.95618751525879
31.94843225479126
30.8840190076828
29.954876890182494
29.526285910606383
29.50456444263458
29.38358281135559
29.27872537612915
28.757080698013304
27.866837368011474
26.953762068748475
27.182880964279175
26.7493199968338
25.771751503944397
25.07228274345398
24.837613315582274
24.53232575893402
24.8700940990448
25.7691628074646
26.727870802879334
27.0253502368927
26.97183198451996
26.996165294647216
26.881078600883484
27.57798076629639
28.30802700996399
28.173191394805908
28.193077716827393
28.698479886054994
29.637813267707823
31.44835246562958
32.44205661296844
32.76208756446838
33.46218922138214
32.290665678977966
32.56567054271698
33.400555801391604
33.803669719696046
33.42613320827484
32.831244258880616
32.80288189888
32.89547936439514
32.23126700401306
31.491470999717713
31.716675653457642
31.130042533874512
30.98309087753296
30.964843854904174
31.0128089761734
31.405559134483337
31.836328291893004
32.12796754360199
32.486260900497435
32.74735402107239
32.88360417842865
33.05222646713257
33.13709449291229
33.11556632995605
33.32874471187591
33.94502779006958
34.25587671279907
34.49649052143097
35.23169641494751
35.7049130487442
35.89775454521179
36.12349916934967
36.23265267372131
35.82225436210632
35.11236796855926
34.21760151863098
33.58811293125152
33.050372724533084
32.9014377784729
33.20787310600281
33.77197616100311
33.90134304046631
33.702726955413816
34.19777494430542
34.62845492362976
34.400711770057676
33.0407452249527
32.22926471710205
31.478755350112916
29.67088363647461
29.38038553237915
27.848659529685975
26.449356064796447
26.12558532714844
26.134477939605713
26.232470750808716
26.299174509048463
26.409556074142458
26.22602069377899
25.690073204040527
25.815168061256408
25.5875084400177
24.69059302806854
24.11470537185669
23.523770403862
22.725532002449036
22.313303022384645
22.223798751831055
22.062209181785583
22.48845766067505
23.228882446289063
23.234404129981996
22.88416666030884
23.55661792755127
24.356510753631593
24.14655131816864
23.939784970283508
23.54914737701416
22.818789467811584
22.753237376213075
22.84025094985962
22.446808347702028
22.34777922153473
22.936025128364562
23.714164953231812
23.629834599494934
24.346210231781004
24.39204026222229
25.27027039051056
25.957930703163147
24.997479400634766
24.18567840576172
24.623288578987122
24.074416451454162
23.463355040550233
23.80374180316925
25.08575587272644
26.677725629806517
27.623031859397887
27.586637535095214
28.36549328804016
30.52553963661194
33.04075680732727
34.83706362724304
36.28794137001037
37.67969553470611
38.14932482242584
37.58137045383453
37.73761713981629
37.516442818641664
37.333534617424014
37.53129950523376
37.52418693542481
37.259188709259035
37.338220539093015
38.433816361427304
38.987208108901974
39.11684473514557
39.272313871383666
38.99829052448273
38.92710021018982
38.960845522880554
38.699677443504335
37.60519571781158
36.579025974273684
36.26530309200287
36.65401255607605
37.41955054759979
38.067493991851805
38.1295537853241
38.08156679153442
38.563377280235294
39.0566428899765
38.49209759712219
37.417624802589415
37.50917350292206
36.742701439857484
36.8619420337677
36.01533697605133
35.0287346124649
34.71277281761169
34.76361698627472
34.71164850711823
34.75867774009705
34.45977342128754
33.40653387546539
31.68305461406708
29.840690112113954
28.625783681869507
28.436917099952698
27.70299548625946
25.89323260307312
23.789306311607362
22.328257942199706
21.035096440315247
19.51991364479065
18.549651641845703
18.41372376918793
18.002891697883605
18.052535614967347
17.488607587814332
17.174106407165528
17.37888916015625
17.954969739913942
17.960921607017518
16.515580124855042
15.886597571372986
15.67243062019348
15.8288334608078
15.307458415031434
15.361536931991576
15.7304877948761
16.029139761924743
17.280863819122313
17.86243761062622
18.069852271080016
17.76176435947418
17.265513949394226
16.843313255310058
16.449212427139283
16.41260817527771
16.318298983573914
15.994337100982666
16.202673978805542
17.08608822822571
17.808855657577514
18.087509818077088
18.407303194999695
19.57999233722687
20.797175397872923
20.957404837608337
21.18719910621643
21.430955123901366
21.97994734287262
23.27414216041565
25.446775331497193
28.764918050765992
32.18432716846466
34.06583669185638
33.999093432426456
34.762078928947446
35.34776041507721
35.241436257362366
34.77881703853607
34.83366987705231
34.77609036922455
35.156908435821535
35.25729387283325
35.54226129055023
35.9979564332962
36.268679809570315
37.02606617927551
36.92928767204285
36.004054613113404
35.50827318668365
35.72487894058227
35.86536309719086
36.13197301387787
36.246173090934754
37.11263694286347
36.379023962020874
36.43002930164337
37.40609293460846
36.96727205276489
36.880741477012634
37.33779312610626
37.8078004693985
37.38105446338653
37.20082832813263
37.0861382484436
37.05525173187256
36.71389765739441
36.91862815380097
36.61813618183136
36.17945637226105
35.75721529483795
35.55812759399414
35.305443778038025
34.528721623420715
33.85868407726288
33.67314898014069
33.567010469436646
33.04506729602814
32.44255238056183
31.675846190452575
30.084118542671202
27.251483793258668
23.86084089279175
21.96966158390045
21.977918524742126
21.05041518688202
20.13372142791748
19.669929022789002
19.633833918571472
19.57739333152771
19.734419298171996
19.378508677482603
19.550625047683717
19.889674491882325
19.940694231987
20.095476489067078
20.361118259429933
20.325236945152284
21.220095958709717
23.188871326446534
24.980920042991638
25.429775581359863
25.44032154560089
25.430515327453612
24.867709469795226
25.138040471076966
25.38474256038666
25.389983010292053
25.293310227394105
25.14365360736847
25.730883450508117
27.1405766248703
29.235814881324767
30.519380044937133
31.576766567230223
31.517266421318055
32.71088069915771
34.5090892791748
35.356940474510196
36.49540209293365
38.33833936214447
38.92075041770935
39.269947061538694
39.31021899700165
38.831236877441405
39.35760597705841
40.24562149524689
41.540340166091916
42.41883849620819
42.72499411106109
42.70696959018707
42.326973609924316
42.859326410293576
44.07744624137879
45.410881481170655
46.16763559818268
46.24344177246094
46.32137958049774
46.2439111995697
46.051141982078555
45.870519852638246
45.74638368606568
45.55493252277374
45.34260685920715
45.650429515838624
46.02386423110962
45.32077479839325
45.03104609489441
44.29671593189239
42.366512861251834
40.335311813354494
39.64303464412689
39.48744462490082
39.10691578865051
39.03460188388824
38.73176577091217
37.618901624679566
36.27682199478149
35.73570777893067
35.69760586738587
34.85205795288086
33.482427945137026
32.087867221832276
31.123294596672057
30.749554138183594
31.15284294605255
30.070019068717958
27.84404197692871
27.10129256248474
25.77816996574402
23.65387237071991
22.99046907901764
22.62555891036987
22.189015417099
22.09702766418457
21.662295036315918
20.498119111061097
18.996152138710023
17.84816976070404
17.12419753074646
16.939656348228453
17.37139594554901
17.32657253265381
16.58724411010742
15.716112418174744
15.301132225990296
15.415342555046081
15.61915982723236
16.16387412071228
16.78241289138794
17.019200291633606
17.033905153274535
16.863423919677736
16.233910841941835
15.427766237258911
14.927646284103394
14.551371278762817
14.616488280296325
14.927779574394226
15.321805415153504
15.751854243278503
15.768416380882263
15.6157399559021
15.433567142486572
15.64817744255066
15.97791660308838
16.25148465156555
16.444002327919005
16.590862889289856
16.669924521446227
16.36274163246155
15.716205639839172
15.130990028381348
14.437778630256652
13.816570830345153
13.372509503364563
13.312225461006165
13.52942828655243
13.649495310783387
13.66391408443451
13.924224481582641
14.408978328704833
14.676455926895141
14.691487832069397
14.663588948249817
14.64931161403656
14.96961494922638
15.830840764045716
16.51995916366577
16.419381284713744
16.392475991249086
16.349769010543824
16.250060834884643
16.21132966995239
16.270338554382324
16.288472204208375
16.11698477268219
15.887428030967712
15.489925866127015
15.24735668182373
15.556147575378418
16.394046359062195
17.400638074874877
18.28307818889618
18.849104232788086
19.175127973556517
19.563540544509888
19.41086807727814
18.97049234867096
18.618291974067688
18.55858997821808
19.028652153015138
19.580903148651124
19.979967832565308
19.93674777984619
19.784305753707887
19.627465109825135
19.43793658733368
19.436652507781982
19.578670167922972
20.11274426937103
21.04982449054718
22.10542353153229
23.424627432823183
24.658394074440004
25.689728808403014
26.415859384536745
26.73103931427002
26.60582149028778
26.644449129104615
27.110145263671875
27.87396086215973
28.983300457000734
30.39818416595459
31.804989647865295
32.73823399066925
32.861303930282595
32.23871383666992
31.528148398399352
31.6011945772171
31.70339943408966
32.11651479721069
32.68630106925964
33.17208858966828
33.80778550624847
34.87967894554138
36.281647171974186
37.59877264976502
38.83549413204193
39.74764478683472
40.13230437755585
39.88225305080414
39.269039855003356
38.614649472236636
38.0877841091156
38.42771901607514
39.675059728622436
41.5766358089447
43.395166091918945
44.52649715900421
44.71773847103119
44.081846041679384
43.791132435798644
43.847988862991336
43.87252460002899
43.780705823898316
44.020350613594054
44.7573979139328
45.472325496673584
46.07297435760498
46.481672492027286
46.563197174072265
46.28522783756256
45.757456102371215
44.92544062137604
43.8408830499649
43.36814869403839
43.1387270116806
43.28269021987915
43.485920519828795
43.231757926940915
42.1639843416214
40.796380548477174
39.52521776199341
38.18786006450653
37.297793521881104
36.90404102325439
36.88203403949738
37.161555047035215
37.23117845535278
36.844349608421325
36.48454912662506
36.183463220596316
35.89606043338776
35.39678192138672
34.54558982372284
33.463505516052244
32.23138706684112
30.849118275642397
29.592164435386657
28.850053238868714
28.63156681060791
28.645187258720398
28.742948441505433
28.704555764198304
27.814533019065856
26.569124155044555
25.35435736656189
24.059176692962648
22.939529094696045
22.694816446304323
23.519015431404114
24.22663282394409
24.562009139060976
24.5872443819046
24.31217267513275
24.255584478378296
24.283036394119264
24.49509310245514
24.928738288879394
25.266920895576476
25.064692511558533
24.1348179769516
23.851679821014404
24.06672456741333
24.789320454597473
25.191408729553224
25.480401864051817
25.532865166664124
25.29446963787079
25.017338585853576
25.00255346775055
24.883534245491028
24.749962739944458
25.155867896080018
25.568195366859435
25.77324074268341
25.870851159095764
25.92052358150482
26.075433082580567
26.276117963790895
26.032991499900817
25.541676836013792
24.897313203811645
24.19222894191742
23.599618082046508
23.289457459449768
23.22063810825348
23.36346580505371
23.667949838638307
23.711822214126588
23.503050541877748
23.43092158794403
23.67013539791107
24.16533224105835
24.735995998382567
25.048488187789918
25.10797161579132
25.368407278060914
25.883076858520507
26.00412302970886
25.161833186149597
24.684431385993957
24.643630499839784
24.827980470657348
25.34779631614685
25.76800717830658
26.09122232913971
26.022210030555726
25.405647115707396
24.566373500823975
24.053518052101136
24.072244691848756
23.838785529136658
23.734964699745177
23.841254315376283
24.237302074432375
25.05659465789795
26.201030826568605
27.298647665977477
28.121513409614565
28.80059970855713
29.398081059455873
29.598705682754517
29.145053277015688
29.722713284492492
31.934002814292906
35.92662016391754
41.206977610588076
46.611603169441224
50.61139566898346
51.99030537605286
53.08336255073547
57.46807722091675
64.83733969211579
73.97635074615478
82.68480954170226
89.09952934741973
92.51487378120423
93.1466755104065
93.60631050109863
95.00485295772552
96.36480463504792
97.31019786834717
97.84916560649872
97.83516067028046
97.31161542415619
96.8105295085907
96.59780499458313
96.30491483688354
95.86554390907287
95.89504932403564
95.59724719047546
95.31897103309632
95.43898365497589
95.64871053695678
95.25174818515778
94.27403928756713
93.39748922348022
92.8997245311737
92.48772837638855
92.2564051437378
92.62499622344971
92.83648341655731
92.89164907455444
92.82336611747742
92.54854771137238
92.11332797050476
91.63272145748138
91.09102320671082
90.45840594768524
89.78604087829589
89.09793142318726
88.74577159881592
89.12072190761566
88.85383660793305
87.44344017982483
84.3250641489029
79.58729598045349
74.3993655538559
70.41180228233337
68.84761021137237
67.5615935754776
63.45135954380035
56.765410962104795
48.50416714668274
40.53420074939728
34.502208466529844
31.108307976722717
30.316739053726195
29.83116133213043
28.229811000823975
26.909348015785216
25.945374298095704
25.266418838500975
25.055532150268554
25.17086061477661
25.07329233646393
24.614521079063415
24.3168843460083
24.768834128379822
25.5478781747818
26.292666206359865
26.880190663337707
27.239154410362243
27.558297605514525
28.22454924583435
29.28177511692047
30.273877687454224
30.83972578048706
31.222319059371948
31.563247714042664
31.608478136062622
31.464250445365906
31.100491132736206
30.483312211036683
29.605209193229676
28.598436093330385
27.60033766746521
26.792062482833863
26.659659180641174
27.31701376914978
28.09371157169342
28.055193924903868
28.061887340545653
27.73595121860504
27.06785927772522
26.540768847465515
26.383973441123963
26.437976942062377
26.51854383468628
26.568692541122438
26.52066792011261
26.42047863483429
26.205422167778014
25.859611263275145
25.57254707813263
25.60129409313202
25.807616467475892
25.738603205680846
25.5769912481308
25.85733808517456
25.809807167053222
25.717316660881043
25.920298619270326
26.337028641700744
26.71266360759735
26.985453138351442
27.296139674186705
27.59248978614807
27.334557404518126
26.55604232788086
25.93100549221039
25.69979914665222
25.86624656200409
26.22012392997742
26.56449564933777
26.692552399635314
26.38673393726349
25.617539100646972
25.5877671957016
26.774168887138366
29.369483289718627
32.98501978397369
36.32468242645264
38.46439205646515
39.60813381195069
40.1672166633606
40.277053475379944
40.34210162639618
40.05200898647308
39.23051167488098
38.64244474887848
39.01695281028748
39.234241247177124
39.49604864120484
39.767943716049196
39.73560471057892
39.3668777179718
38.96322939395905
38.76482464313507
38.70593293190002
38.762891607284544
38.73077451229096
38.47457043647766
38.11038164615631
37.82768775463104
37.67021831035614
37.693643770217896
37.976008892059326
38.21346432209015
38.23691248893738
38.21854552745819
38.063909611701966
37.49202571392059
36.717960605621336
36.05273852348328
35.5542236661911
35.33854415893555
35.329460020065305
35.29055151939392
35.34964601516724
35.15853427886963
34.58834541320801
33.794170346260074
32.980403938293456
32.206978554725644
31.51951804637909
31.117076740264892
31.230684466362
30.845048203468323
29.4284016084671
26.59667022705078
22.640289301872254
19.101223826408386
16.87551673412323
15.783480582237244
15.339685621261596
15.356782264709473
15.331112084388733
15.448974895477296
16.043644948005678
16.641219716072083
16.85721399307251
16.72556420326233
16.346818947792052
15.792020716667174
15.323521180152893
15.160034775733948
15.077536516189575
14.916938285827637
15.134247546195985
15.562851014137268
15.94034653186798
16.330299429893493
16.490729007720947
16.31806411743164
16.19042107105255
16.646409654617308
17.845127482414245
19.100344705581666
19.553164539337157
19.20140387535095
18.8967648935318
19.437724585533143
20.635149960517882
21.95515914440155
22.982644720077516
23.25636794090271
22.927413477897645
23.104912023544312
23.291630082130432
23.237759675979614
23.067737588882448
22.689930443763732
22.110405025482176
21.47646359920502
20.912552962303163
20.53818033218384
20.429157042503356
20.449861512184142
20.434814476966856
20.5055769777298
20.828677520751953
21.042984833717345
21.060345497131348
20.99912157535553
20.940789918899537
20.82260594844818
20.770364346504213
20.734464378356932
20.544140496253966
20.54215281009674
20.932564148902895
21.68333676338196
22.91512825012207
24.627263083457947
26.123052053451538
26.651845297813416
26.502282881736754
26.450746521949767
26.134209780693055
25.75369382381439
25.396341462135315
24.937432498931884
24.770999751091004
25.021612529754638
24.953521370887756
24.36605845928192
23.105638723373414
21.673912086486816
21.02564016819
21.20918361186981
21.34161874771118
20.719931092262268
19.450169348716734
18.052451548576354
16.997518725395203
16.460616374015807
16.565091285705567
16.469940333366395
16.340366425514222
16.217556471824647
16.190640745162963
16.223851981163026
16.38866035938263
16.64278046131134
16.85318706035614
16.94272427558899
16.92830999851227
16.788804802894592
16.571707754135133
16.41922640800476
16.47800781726837
16.602437381744384
16.658452806472777
16.614481921195985
16.598678851127623
16.75297348022461
16.88628071308136
16.745929045677187
16.5369624710083
15.98531807422638
15.079681911468505
13.962971205711364
12.61639543056488
11.153000884056091
10.164073467254639
10.085741038322448
10.502019209861755
10.635711150169373
10.665202345848083
10.683260178565979
10.608998885154724
10.559529352188111
10.446963157653808
10.335381784439086
10.503720235824584
10.334879770278931
10.185668630599976
10.296851835250855
10.354263658523559
10.238746628761291
10.11201334476471
10.093972678184508
10.102049360275268
10.322558698654175
10.772715458869934
11.277342376708985
11.345999851226807
11.119469795227051
10.998256330490113
11.218081078529359
11.643147630691528
12.21820001602173
12.982303547859193
13.988661317825317
15.035689167976379
15.687590093612672
15.68583293914795
15.807422018051147
16.03723074913025
16.072971897125242
15.801348633766175
15.382996740341186
15.502697134017945
15.947549929618836
16.295482125282287
16.47099769592285
16.654572434425354
16.780768074989318
16.56019398212433
16.396420936584473
16.272381401062013
16.26467947483063
15.947637825012206
15.724781956672668
15.409113502502441
14.968959302902222
14.549734439849853
14.534773530960083
14.69457585811615
14.78498616695404
14.832431626319885
15.014595818519592
15.273931732177735
15.331061401367187
15.186605405807494
15.20304340839386
15.178142018318177
15.175005931854248
15.318547601699828
15.504338202476502
15.633384833335876
15.723530144691468
15.909640817642211
15.987297563552856
15.783445382118225
15.409436588287354
15.185012106895448
15.15299147605896
15.189643206596374
15.064237489700318
14.678765034675598
14.121257171630859
13.307943410873413
12.176709022521973
11.055313067436218
10.469035377502442
10.618675956726074
10.721773409843445
10.719903860092163
10.684381861686706
10.564351029396057
10.546175017356873
10.210837683677674
9.775295815467835
9.518289442062377
9.405362544059754
9.326483664512635
9.42953118801117
9.657728834152222
9.74042568206787
9.78380338191986
9.667823791503906
9.712483220100403
9.484874415397645
9.297539258003235
9.40697449684143
9.749899563789368
9.788261404037476
9.600466294288635
9.45276973247528
9.417458510398864
9.35021420955658
9.243530855178832
9.293653216362
9.517769169807433
9.678004002571106
9.640695633888244
9.511720972061157
9.404230766296386
9.337086367607117
9.347592859268188
9.38726727962494
9.233323955535889
9.010530433654786
8.725296893119811
8.774193634986878
9.004715423583985
9.135054273605347
9.164854526519775
9.23831045627594
9.351055197715759
9.387292370796203
9.37707115650177
9.41987714290619
9.429357271194458
9.326688838005065
9.219702486991883
9.164867148399352
9.1170778465271
9.124929614067078
9.283697762489318
9.532352342605591
9.737186222076415
9.78762357711792
9.737633547782899
9.72445945262909
9.779475884437561
9.811967072486878
9.882834630012512
10.192380328178405
10.67651144504547
10.981276578903199
10.940023260116577
10.999446239471435
10.91216293811798
10.657405395507812
10.418454031944275
10.305443797111511
10.253548674583435
10.20697112083435
10.045901327133178
9.825260558128356
9.671603622436523
9.391403512954712
9.16476839542389
9.117451229095458
9.31147180557251
9.651127552986145
10.000661025047302
10.290188989639283
10.489414019584656
10.68516185283661
11.020473427772522
11.261921520233154
11.524893970489503
11.591124830245972
11.531353001594544
11.49808629989624
11.558213038444519
11.640735387802124
11.700360207557678
11.763145189285279
11.759823088645936
11.609165787696838
11.375475082397461
11.165354223251343
11.056461324691773
11.069706983566284
11.104971899986268
11.049381203651429
10.925374579429626
10.868543334007263
10.9950160074234
11.243110785484314
11.4032373380661
11.392028427124023
11.316264066696167
11.215552878379821
10.978074436187745
10.53990430355072
10.026510429382324
9.686747784614562
9.678328557014465
9.647186522483826
9.774083399772644
9.934092860221863
10.04009467124939
10.202714323997498
10.433697662353516
10.516594138145447
10.476199927330017
10.527249836921692
10.491850833892823
10.610747666358948
10.767172651290894
10.902017545700073
10.920761260986328
10.719990439414978
10.315752000808716
9.927683396339416
9.723777251243591
9.58784417629242
9.355534224510192
9.05484878063202
8.802368845939636
8.67693627357483
8.718074831962586
8.891007866859436
9.07160668373108
9.14595437526703
9.069813590049744
8.90178514957428
8.8188134765625
8.92277410030365
9.117801971435547
9.267129926681518
9.287410402297974
9.194811615943909
9.137043557167054
9.182729992866516
9.193411278724671
9.044046902656556
8.781346201896667
8.529336400032044
8.37940173149109
8.338369240760803
8.355302844047547
8.417298011779785
8.525132493972778
8.618904719352722
8.681460065841675
8.80647762298584
9.018107190132142
9.19339506149292
9.265403237342834
9.314665503501892
9.384270281791688
9.380885257720948
9.249388670921325
9.107911648750305
9.122889475822449
9.165725479125976
9.199995894432067
9.081198010444641
8.787499613761902
8.529520754814149
8.383609409332275
8.34502064704895
8.474377574920654
8.718292818069457
8.917536444664002
9.053222193717957
9.235666251182556
9.506744041442872
9.757014546394348
9.894428253173828
9.965110454559326
9.912480425834655
9.615311279296876
9.277203679084778
9.21390872001648
9.375329947471618
9.497363548278809
9.474131464958191
9.35756622314453
9.211205673217773
9.115779571533203
9.147853140830994
9.279619908332824
9.448690624237061
9.657485141754151
9.910237550735474
10.182449769973754
10.404698629379272
10.448149099349976
10.29980978012085
10.112815103530885
9.970903296470642
9.857571883201599
9.810811190605163
9.866323280334473
9.938284320831299
9.884726753234863
9.686191053390504
9.50245451927185
9.463300104141235
9.499030723571778
9.535376348495483
9.668768615722657
9.933232984542848
10.158546261787414
10.25916425704956
10.3887509059906
10.603009872436523
10.841414828300476
10.927538924217224
10.909485907554627
10.897410879135132
10.789499268531799
10.495310411453247
10.13949938774109
9.860590348243713
9.667075510025024
9.557647686004639
9.597017135620117
9.759345817565919
9.87099603176117
9.942409033775329
10.156325788497925
10.372956042289735
10.293043928146362
10.038987679481506
9.913923902511597
9.7928195810318
9.81266926765442
9.967810153961182
10.12893482208252
10.155615859031677
10.063244433403016
9.930891971588135
9.77073974609375
9.57033775806427
9.351938824653626
9.18340853691101
9.161061058044433
9.274639115333557
9.402473149299622
9.506788048744202
9.639843559265136
9.82916464805603
9.995011625289917
10.024436178207397
10.039236092567444
10.22705554485321
10.42579119205475
10.370319666862487
10.159556584358215
10.065301556587219
10.071211967468262
9.957025527954102
9.70123736858368
9.521827201843262
9.40505615234375
9.32380576133728
9.260332174301148
9.258307251930237
9.290176730155945
9.330570240020752
9.430685157775878
9.595583996772767
9.781823601722717
9.967315440177918
10.101207962036133
10.126176323890686
10.031487560272216
9.83644856929779
9.618362789154054
9.472665824890136
9.407902340888977
9.414653902053834
9.538565874099731
9.7166490650177
9.786813097000122
9.846032586097717
9.763065423965454
9.64604703426361
9.581465678215027
9.582713284492492
9.684625940322876
9.911932020187377
10.17601722240448
10.324654550552369
10.305654072761536
10.25086907863617
10.28844358921051
10.340476565361023
10.26500678062439
10.071115460395813
9.841372985839843
9.563683524131775
9.248149642944336
9.019044942855835
8.90670889377594
8.819505605697632
8.741509590148926
8.757114295959473
8.887409300804139
9.045133171081543
9.2176154088974
9.476893672943115
9.813433346748353
10.118033804893493
10.409524102210998
10.595489349365234
10.7055006980896
10.77394031047821
10.756939630508423
10.604716215133667
10.377404713630677
10.200594711303712
10.060864520072936
9.871158490180969
9.66612808227539
9.490345363616944
9.352119574546814
9.316644625663757
9.39553159236908
9.487280111312867
9.533072872161865
9.588174471855163
9.700158557891847
9.838545141220093
10.00730903148651
10.268744707107544
10.570802764892578
10.753990802764893
10.769828667640686
10.675562944412231
10.494366931915284
10.255320873260498
10.037929039001465
9.909435033798218
9.858622875213623
9.78106942653656
9.624572005271911
9.521204805374145
9.5801247549057
9.68321074962616
9.731160645484925
9.852476959228516
10.116927947998047
10.373304319381713
10.527468495368957
10.6300719165802
10.70272590637207
10.728055443763733
10.722916460037231
10.661759161949158
10.448791880607605
10.13611870765686
9.899795761108399
9.706525139808655
9.420689401626587
9.094328265190125
8.842431430816651
8.711244983673096
8.710103116035462
8.829238514900208
9.044527740478516
9.272865710258484
9.439782314300537
9.595268592834472
9.83449721813202
10.170100717544555
10.486853227615356
10.660065913200379
10.698632264137268
10.62210659980774
10.422452807426453
10.256471228599548
10.29817952632904
10.42170781135559
10.359575343132018
10.033219504356385
9.825382790565492
9.630286436080933
9.523198871612548
9.58919894695282
9.66553162574768
9.721489343643189
9.851536788940429
10.07874768257141
10.31333255290985
10.556773467063904
10.85900846004486
11.07660002708435
11.060557713508606
10.950431180000304
10.923317046165467
10.907895112037659
10.829561252593994
10.749312515258788
10.626718726158142
10.42348515033722
10.299136095046997
10.336225547790526
10.431657991409303
10.55249568939209
10.71677218914032
10.836853394508362
10.88122661113739
10.961918864250183
11.08715585708618
11.164094605445861
11.213241205215454
11.23558367729187
11.107646889686585
10.860498061180115
10.61438479423523
10.48721387386322
10.389413785934448
10.208485770225526
9.947076911926269
9.681597952842713
9.44549075603485
9.251335458755493
9.169690628051757
9.303253345489502
9.613936290740966
9.82260492324829
9.75159393787384
9.63328565120697
9.770116286277771
10.162197904586792
10.374288153648376
10.576534881591797
10.793370790481568
10.896787838935852
10.856410965919494
10.68424864768982
10.477925209999084
10.186387977600099
9.941212134361267
9.704583644866943
9.394476504325867
9.157922582626343
9.17345202922821
9.422640924453736
9.722115964889527
9.96001084804535
10.100183119773865
10.156316275596618
10.232938551902771
10.395679292678834
10.548938961029053
10.548383831977844
10.362367630004883
10.0940229511261
9.894513740539551
9.826461462974548
9.741831207275391
9.56844434261322
9.391371278762817
9.49580548286438
9.805163702964784
10.008709778785706
10.058240451812743
10.061209454536439
10.107546033859252
10.130781207084656
10.179873824119568
10.334494571685791
10.577338552474975
10.804462642669678
10.963492116928101
11.103174676895142
11.220369601249695
11.195400099754334
10.990207748413086
10.74801362991333
10.581017618179322
10.465844969749451
10.390929627418519
10.33865481853485
10.222060894966125
9.995601425170898
9.676953649520874
9.360848512649536
9.26021297454834
9.383020367622375
9.50414562702179
9.656132144927978
9.86092399597168
10.22295114517212
10.690026865005493
11.025894446372986
11.122550568580628
11.001236271858215
10.72505506515503
10.369186611175538
10.042009906768799
9.831565399169921
9.721195077896118
9.60398841381073
9.467905673980713
9.44765787601471
9.564522519111634
9.653592114448548
9.637389302253723
9.627267208099365
9.781905183792114
10.073607077598572
10.432658486366272
10.601738939285278
10.59730532169342
10.729373202323913
11.02326159954071
11.141175289154052
11.202886657714844
11.20254819869995
11.063943710327148
10.874070534706116
10.692382316589356
10.589658951759338
10.536862125396729
10.367771120071412
10.105883116722106
10.032176833152771
10.238193783760071
10.457861828804017
10.51846528530121
10.532284827232361
10.545788197517394
10.49324923992157
10.425396809577942
10.44878526210785
10.623459806442261
10.916093935966492
11.13664635181427
11.15337661266327
11.057361745834351
10.966993188858032
10.807288246154785
10.437373299598693
9.967084007263184
9.671898212432861
9.616441164016724
9.719055147171021
9.94080071926117
10.140109724998474
10.210154576301575
10.3354287815094
10.639649057388306
10.938698005676269
11.087961168289185
11.135973300933838
11.122469968795777
11.017381858825683
10.89163857460022
10.781523900032044
10.826454887390137
10.885611534118652
10.726178240776061
10.355964531898499
9.957109236717224
9.598464317321778
9.345298137664795
9.380321793556213
9.424453430175781
9.41536831855774
9.446653118133545
9.534682564735412
9.717373294830322
9.9040638589859
10.018418917655945
10.154342107772827
10.344575052261353
10.426842350959777
10.332003145217895
10.238125028610229
10.23927442073822
10.208535451889038
10.074319067001342
9.943817796707153
9.964926266670227
10.086531038284301
9.993665404319763
9.86403941631317
9.880026531219482
9.89419692993164
9.83458969116211
9.718266739845276
9.785888700485229
10.16129602432251
10.613857474327087
10.822740330696107
10.852309999465943
10.940233898162841
11.0480366230011
11.064044070243835
11.026882691383362
10.882698073387147
10.524641857147216
10.115403661727905
9.838619141578674
9.748243384361267
9.737568955421448
9.850760207176208
10.130078330039979
10.50991868019104
10.676135120391846
10.661188616752625
10.771497912406922
11.112523684501648
11.437676224708557
11.578116044998168
11.63219349861145
11.675981297492982
11.690881590843201
11.71130476951599
11.739059658050538
11.648088803291321
11.367841186523437
10.973072681427002
10.654756984710694
10.486829400062561
10.394755291938782
10.316327819824219
10.26398362159729
10.248115081787109
10.322740545272827
10.543544216156006
10.82512990951538
11.023856139183044
11.102285537719727
11.161255321502686
11.36926260471344
11.4529771900177
11.361831154823303
11.37613519668579
11.524616980552674
11.632564854621886
11.557714529037476
11.333604879379273
10.884769382476806
10.739538297653198
10.756543579101562
10.68339686870575
10.635752339363098
10.782522993087769
10.997707271575928
11.14633490562439
11.301363096237182
11.509171648025513
11.7449622631073
11.864988927841187
11.882152795791626
11.854227333068847
11.732936568260193
11.461414308547974
11.135694103240967
10.89445116996765
10.712788228988648
10.49667742729187
10.250299997329712
10.005186686515808
9.893466663360595
9.736558785438538
9.705547432899476
9.901106133460999
10.215284357070923
10.562672853469849
10.831399412155152
11.021203899383545
11.216290140151978
11.441692271232604
11.609669981002808
11.685318365097046
11.702398858070374
11.640433640480042
11.450756773948669
11.184069652557373
10.91817481994629
10.639786005020142
10.414721078872681
10.159525566101074
9.984317030906677
9.866885161399841
9.797785415649415
9.801336073875428
9.874817190170289
10.037296967506409
10.188065643310546
10.26278615474701
10.50931799888611
10.564597997665405
10.507360939979554
10.440146327018738
10.299248867034912
10.08214334487915
9.939958620071412
9.911553568840027
9.88399423122406
9.766903944015503
9.521363615989685
9.251890568733215
9.191456232070923
9.366803030967713
9.562144589424133
9.667506704330444
9.73525064945221
9.80738802433014
9.895556406974793
10.008624138832092
10.147806072235108
10.26919734954834
10.179846272468566
10.126936464309692
10.005053386688232
9.677759237289429
9.267395429611206
8.98151656627655
8.942814407348633
9.128877186775208
9.428473129272462
9.733245024681091
9.956204280853271
10.011812295913696
9.926421031951904
9.882438035011292
9.955923547744751
10.008926186561585
9.99986608505249
10.095591411590576
10.297614140510559
10.610612602233887
10.830586514472962
10.952773795127868
10.988582978248596
10.904531559944154
10.708496580123901
10.482161612510682
10.253054733276366
10.023213896751404
9.771978659629822
9.618265199661256
9.52430169582367
9.428289589881897
9.386616287231446
9.440419263839722
9.518091721534729
9.595316519737244
9.714039144515992
9.89681468963623
10.178624329566956
10.494357843399047
10.629706258773803
10.53172471523285
10.401485714912415
10.361004109382629
10.331422247886657
10.24579342842102
10.142706212997437
10.060694561004638
10.008884463310242
10.037616591453553
10.194307804107666
10.420732097625732
10.680864558219909
10.988668632507324
11.290243964195252
11.435753755569458
11.3865020942688
11.20846932888031
10.919312143325806
10.54963722229004
10.255140628814697
10.202658734321595
10.361293725967407
10.515575923919677
10.54227831840515
10.521065769195557
10.465609469413756
10.334085359573365
10.231622190475465
9.910490169525147
9.719840931892396
9.616872019767762
9.613831248283386
9.745724472999573
9.954304718971253
10.184492392539978
10.476424131393433
10.792876591682434
11.082648620605468
11.224623284339906
11.29776002407074
11.38629542350769
11.434446167945861
11.401885490417481
11.307490062713622
11.12980574131012
10.921148347854615
10.75848662853241
10.576256260871887
10.34203625202179
10.161840977668762
10.080041604042053
10.038301563262939
10.038011169433593
10.128098468780518
10.259339003562927
10.326521692276001
10.348835549354554
10.46918954372406
10.691477074623108
10.80493480682373
10.71532534122467
10.53388433933258
10.333073101043702
10.169585871696473
10.126950888633727
10.14582679271698
10.097278356552124
9.981969714164734
9.873267602920532
9.804860792160035
9.784864935874939
9.821404819488526
9.884397382736205
9.864983325004578
9.715827708244325
9.658827266693116
9.839682555198669
9.998944678306579
10.240168337821961
10.276987342834472
10.297154278755189
10.33006953239441
10.272855348587036
10.1536789894104
10.071670627593994
9.976735968589782
9.815480723381043
9.70840747833252
9.720841069221496
9.734550733566284
9.697373151779175
9.677860927581786
9.66583725452423
9.66195827960968
9.793875980377198
10.070697708129883
10.315046691894532
10.429702143669129
10.477078533172607
10.49270911693573
10.409758887290955
10.239910626411438
10.11739990234375
10.084895124435425
10.06674729347229
10.03967520236969
10.01970920085907
9.944521951675416
9.795240230560303
9.7185023021698
9.7860276222229
9.867558712959289
9.876769843101501
9.869088063240051
9.913320555686951
10.032007007598876
10.21226239681244
10.401461205482484
10.49609486579895
10.427010498046876
10.261858530044556
10.138663477897644
10.175799798965453
10.42319037437439
10.725607981681824
10.763304295539855
10.6081307888031
10.32397337436676
10.278200979232787
10.379382214546204
10.426921916007995
10.427405576705933
10.479051294326782
10.527662978172302
10.460321235656739
10.375122361183166
10.412314901351928
10.482712965011597
10.495312786102295
10.524969186782837
10.560101127624511
10.492879066467285
10.408476042747498
10.421859126091004
10.342666993141174
10.022630639076233
9.670400495529174
9.535653400421143
9.656855201721191
9.87835798740387
10.082388820648193
10.196432909965516
10.192506790161133
10.140554304122924
10.173337440490723
10.318466138839721
10.454170727729798
10.520682673454285
10.570642066001891
10.595071730613709
10.558112149238587
10.512184319496155
10.51045253276825
10.47375967979431
10.276980452537536
9.955252075195313
9.60825933456421
9.30014817237854
9.130409107208251
9.166833939552307
9.304436078071594
9.411971549987793
9.42284261226654
9.30426568031311
9.17259045124054
9.254838967323304
9.42157021522522
9.700134544372558
9.847806339263917
9.914324460029603
9.95111699104309
9.906874117851258
9.796791877746582
9.782602376937866
9.91194938659668
9.965223379135132
9.825397315025329
9.685550141334534
9.694738640785218
9.779392137527466
9.890521106719971
10.013423833847046
10.014349975585937
9.887295594215393
9.88624716758728
10.117620015144348
10.392057514190673
10.520208463668823
10.478701128959656
10.405359363555908
10.39545928478241
10.461257691383361
10.541184334754943
10.576788420677184
10.48384786605835
10.195832467079162
9.928148412704468
9.79022723197937
9.84144983291626
9.982963171005249
10.107852087020873
10.137907614707947
10.090214428901673
10.040750017166138
10.074934368133546
10.191634559631348
10.301211519241333
10.3412646484375
10.362154173851014
10.462723469734192
10.648620972633362
10.743833451271056
10.671385178565979
10.62861102104187
10.657988719940185
10.510259432792664
10.37169011592865
10.101278219223023
9.988028011322022
9.979834518432618
10.07637722492218
10.204929327964782
10.214475932121276
10.075377545356751
9.946869864463807
9.98625681400299
10.117597794532776
10.142231192588806
10.04074996471405
9.942740550041199
9.873904356956482
9.824138541221618
9.890429334640503
10.07458200454712
10.194470820426941
10.122675194740296
9.972023034095765
9.91254237651825
9.882184653282165
9.788090095520019
9.74238778591156
9.830842819213867
9.945835580825806
9.950733489990235
9.952454352378846
10.171332411766052
10.420503973960876
10.51008888244629
10.396647458076478
10.205206942558288
9.954462962150574
9.81653238773346
9.756036810874939
9.886413507461548
10.04704761505127
10.080765728950501
10.060888648033142
10.182833242416383
10.413570184707641
10.484033150672913
10.316628756523132
10.168262391090392
10.189412608146668
10.198154892921448
10.122507915496826
10.188094611167907
10.235535297393799
10.41707471370697
10.418424253463746
10.327969508171082
10.224888076782227
10.186562309265137
10.274601316452026
10.423478875160217
10.518631038665772
10.533574204444886
10.511855158805847
10.499702425003052
10.502507286071777
10.493426804542542
10.46961431503296
10.411527018547059
10.267103204727173
10.090742754936219
10.024067363739015
10.087730746269227
10.149925761222839
10.133269424438476
10.107470593452454
10.10295564174652
10.054438285827636
9.971983623504638
9.945841460227966
9.991103954315186
9.976280312538147
9.807852339744567
9.65761679172516
9.695547971725464
9.796443710327148
9.869492416381837
10.047373461723328
10.25432888507843
10.47748534679413
10.508551526069642
10.427952303886414
10.359890546798706
10.31659514427185
10.225847930908204
10.091887264251708
10.001004090309143
9.97173580646515
9.956058235168458
9.964571952819824
10.077859768867492
10.242637271881103
10.251287136077881
10.122049160003662
10.103040504455567
10.198230390548707
10.169937896728516
9.969642214775085
9.77662986755371
9.703877749443054
9.712894821166993
9.748886198997498
9.8188388299942
9.924109511375427
9.99423969745636
9.972514615058898
9.887070503234863
9.784690837860108
9.745541038513183
9.867827396392823
10.086592159271241
10.233715229034424
10.27605396270752
10.284551644325257
10.317786231040955
10.400095043182374
10.463429894447327
10.411043996810912
10.281510677337646
10.196927423477172
10.218598809242248
10.32781831741333
10.432050828933717
10.402658791542054
10.214940662384032
10.009593200683593
9.921171555519104
9.89903992176056
9.801115670204162
9.636091146469116
9.580318093299866
9.723857340812684
9.963557147979737
10.15052882194519
10.205706572532653
10.182518010139466
10.211658606529236
10.289993767738343
10.306458282470704
10.232859320640564
10.078638648986816
9.89361388683319
9.81693998813629
9.836310257911682
9.800178570747375
9.754671049118041
9.811298398971557
9.868411908149719
9.860294241905212
9.918031487464905
10.030344033241272
9.967420072555543
9.70327600479126
9.532262992858886
9.63540433883667
9.861239151954651
10.029483695030212
10.11685866355896
10.109151873588562
9.983729000091552
9.81157476425171
9.714721179008484
9.78906412601471
10.001793704032899
10.136463527679444
10.068503193855285
9.994209065437317
10.101591854095458
10.241788206100464
10.170428538322449
9.968757829666139
9.852142505645752
9.750456423759461
9.786120991706849
9.965155849456787
10.042584943771363
10.04211636543274
10.128419699668884
10.358278217315673
10.648178253173828
10.829964332580566
10.822255215644837
10.729644298553467
10.697616009712219
10.747005500793456
10.719124703407287
10.503162989616394
10.305071887969971
10.337391934394837
10.491045007705688
10.655583701133729
10.895706205368041
11.154057807922364
11.257466268539428
11.194867253303528
11.102519574165344
11.113938517570496
11.264282412528992
11.380502700805664
11.25220658302307
10.99491792678833
10.911302752494812
11.030959401130676
11.100828537940979
10.967358775138855
10.759852867126465
10.679510903358459
10.778399701118468
10.997825379371642
11.24867525100708
11.433900723457336
11.491242747306824
11.412062802314757
11.26059687614441
11.1645317363739
11.18335889339447
11.20673758506775
11.070224494934083
10.895286865234375
10.94845745563507
10.951804981231689
10.846522760391235
10.899699506759644
11.04092493057251
11.149269080162048
11.254714827537537
11.296822686195373
11.191517906188965
10.95327612400055
10.760878252983094
10.766919274330139
10.894604201316833
10.970375194549561
10.967237305641174
11.00896095275879
11.181893858909607
11.35566553592682
11.277516603469849
11.006718487739564
10.763396773338318
10.636310858726501
10.464068417549134
10.335628261566162
10.425769424438476
10.602731280326843
10.64677604675293
10.612180585861205
10.668149876594544
10.796084713935851
10.883505387306213
10.92626823425293
10.980294365882873
11.029934978485107
11.015613150596618
10.957729849815369
10.944447035789489
10.993444423675538
11.01160427570343
10.941920318603515
10.834661564826966
10.71521966457367
10.558073239326477
10.361048822402955
10.12508409023285
9.891303343772888
9.682117013931274
9.509805545806884
9.61514702796936
9.847180099487305
9.90789939403534
10.015785269737243
10.181545343399048
10.278008923530578
10.282773127555847
10.29948152065277
10.382653017044067
10.382768983840942
10.22902590751648
10.140285048484802
9.973340888023376
9.714711494445801
9.512584981918335
9.47927294254303
9.556254506111145
9.571856021881104
9.494398226737976
9.489218740463256
9.68135293006897
9.88942087173462
9.952032690048219
9.864635705947876
9.765619339942932
9.619731945991516
9.4376092004776
9.36753360748291
9.422828154563904
9.426300811767579
9.293044304847717
9.21947696685791
9.40067228794098
9.724754595756531
9.96574914932251
10.039422850608826
9.98448429107666
9.900672688484192
9.856504545211791
9.799197010993957
9.692410202026368
9.610312843322754
9.606337718963623
9.671479949951172
9.755881729125976
9.802678227424622
9.862197260856629
9.983542761802674
10.116360626220704
10.204913296699523
10.127732620239257
10.018462581634521
9.972386674880982
9.90543487071991
9.769629650115967
9.703613123893739
9.74034635066986
9.690080223083497
9.517578687667847
9.424690461158752
9.519269208908081
9.620690512657166
9.778618297576905
9.872431077957152
9.839315299987794
9.780973806381226
9.781030907630921
9.797853879928589
9.723118896484374
9.562380895614623
9.43979751586914
9.43278995990753
9.471509251594544
9.444819588661193
9.418474159240724
9.54011293888092
9.740428452491761
9.821929550170898
9.771304230690003
9.740846204757691
9.77288851261139
9.734868340492248
9.587738404273987
9.48335265636444
9.48632158279419
9.514846668243408
9.595276217460633
9.824783024787903
10.112826266288756
10.272142572402954
10.246530351638794
10.091136021614075
9.945732884407043
9.844161834716797
9.764335265159607
9.654179677963256
9.605065088272095
9.58589454650879
9.729435324668884
9.87604865550995
9.880092349052429
9.827433471679688
9.90581847190857
10.161549563407897
10.432216868400573
10.544885325431824
10.540317807197571
10.550429768562317
10.586736159324646
10.62467695236206
10.698891911506653
10.789098773002625
10.779839448928833
10.608740243911743
10.59882541179657
10.56112244129181
10.337491779327392
10.1961891746521
10.352960972785949
10.712511448860168
11.044455423355103
11.227026391029359
11.390127034187318
11.643631715774536
11.792161750793458
11.675482983589172
11.480487298965453
11.433043041229247
11.490631365776062
11.481672205924987
11.378915400505067
11.298359689712525
11.25175901412964
11.092343282699584
10.80194839000702
10.570569343566895
10.448013195991516
10.267568440437318
10.010988636016846
9.875949950218201
10.001906137466431
10.332556734085083
10.648051753044129
10.914055910110473
11.221751084327698
11.578578667640686
11.768277525901794
11.824930362701416
11.70300320148468
11.564148740768433
11.538793559074401
11.558271579742431
11.385858254432678
11.047222681045533
10.774662890434264
10.720544242858887
10.585134873390198
10.247545380592346
10.039145708084106
9.981949467658996
10.006506338119507
9.951988334655761
9.97902126789093
10.309930667877197
10.604394164085388
10.821490216255189
10.992166967391968
11.093524227142334
11.214775199890136
11.302610363960266
11.162881970405579
10.796591868400574
10.393676748275757
9.975120720863343
9.781273760795592
9.821763749122619
9.852425022125244
9.736061520576477
9.556587934494019
9.418405303955078
9.389837317466736
9.477769956588745
9.588265495300293
9.62854411125183
9.603075366020203
9.618552856445312
9.788354792594909
10.029365882873535
10.138112139701843
10.111256437301636
10.071142406463624
10.040233373641968
10.013012266159057
9.970123300552368
9.853914365768432
9.703838453292846
9.596747450828552
9.502189936637878
9.422720966339112
9.442177929878234
9.526261954307556
9.602363057136536
9.787379832267762
10.066128635406494
10.21629487991333
10.031233625411987
9.874075245857238
9.996050834655762
10.227776017189026
10.411521873474122
10.447662754058838
10.494149379730224
10.504211854934692
10.3539617395401
10.088465666770935
9.865752439498902
9.714935097694397
9.474005765914917
9.074906845092773
8.710242767333984
8.558145279884338
8.5885706615448
8.70421775341034
8.999941563606262
9.25509707927704
9.377428016662599
9.509385514259339
9.73401505947113
9.961279406547547
10.14796404838562
10.297357020378113
10.327849955558777
10.197485146522522
10.08789632320404
10.206168508529663
10.409536800384522
10.36674355506897
10.083225626945495
9.858569684028625
9.789841947555542
9.745839314460754
9.665948925018311
9.539719662666322
9.35146342754364
9.181503534317017
9.140677781105042
9.259272270202636
9.473648190498352
9.64910291671753
9.708529720306396
9.69798798084259
9.655298910140992
9.505247502326965
9.224148302078246
9.057618627548218
9.242956523895264
9.526988568305969
9.591507334709167
9.421248598098755
9.293544540405273
9.283076453208924
9.339714241027831
9.490505757331848
9.703597087860107
9.852609195709228
9.932867197990417
10.055437598228455
10.223145794868469
10.320682516098023
10.277348828315734
10.182131032943726
10.350959610939025
10.56784646511078
10.64650043964386
10.757241086959839
11.255133814811707
12.220035872459412
13.126753492355347
13.228195552825929
13.48439133644104
14.125958533287049
14.919954791069031
16.515976309776306
19.21860775947571
22.28108446598053
24.607613768577576
25.54275331020355
25.723738150596617
26.296846799850464
26.423204803466795
26.375336437225343
26.612337217330932
26.93879285335541
27.016140122413635
26.89981855392456
26.76234751701355
26.62382882118225
26.50774383544922
26.48806799411774
26.5424328994751
26.632741951942442
26.82048103809357
27.22769232749939
28.050617346763612
29.360911030769348
30.734866728782652
31.42756384372711
31.47366257190704
32.72204717159271
34.60969295978546
36.899978218078616
39.35180605411529
41.36528697967529
42.485364274978636
42.72860642910004
42.583664507865905
42.7200945854187
42.75486674308777
42.72452826976776
42.81888693332672
42.98218816757202
42.817333726882936
42.49113737106323
42.13216617107391
41.8238271856308
41.362136106491086
40.39761516571045
39.288003125190734
38.948259797096256
38.56403052330017
37.817170691490176
36.83757807731629
35.18288480758667
32.54870132446289
29.51572322368622
27.18761196613312
26.365949354171754
26.478240628242492
26.281114888191222
26.470053634643556
26.704098076820372
26.544043021202086
26.28393708229065
26.32399603843689
26.51417459011078
26.563786783218383
26.467823286056518
26.341938223838806
26.24873185634613
26.179106216430664
26.040429759025574
25.76123305797577
25.311971769332885
24.512147941589355
23.192844562530517
21.728250322341918
20.991350593566896
21.068151898384095
19.980234422683715
18.11508587837219
15.805110297203065
13.457563953399658
11.588114690780639
10.512621145248414
10.23976402759552
10.321701145172119
10.142223830223083
10.16394476890564
10.24154414176941
10.043580932617187
9.989853539466857
10.044213638305663
10.052106580734254
10.050879964828491
9.963420658111572
9.813995752334595
9.903276805877686
10.249292492866516
10.613066067695618
10.849086613655091
10.974799857139587
11.089667143821716
11.165490403175355
11.228778762817383
11.226687240600587
11.123622307777405
11.006952476501464
10.88535994529724
10.631532316207887
10.169013676643372
9.87759732246399
9.637148084640502
9.492583646774293
9.332756733894348
9.126368269920349
9.066830320358276
9.160951452255249
9.185259251594543
9.043031649589539
8.861063508987426
8.818637962341308
9.121688776016235
10.035872569084168
11.55041980266571
12.9976375579834
13.560123791694641
13.378276190757752
13.286200275421143
13.051825060844422
12.867424397468566
12.737806935310363
12.392128715515137
11.996885814666747
11.76572440624237
11.678330307006837
11.697059092521668
11.703340735435486
11.63831136226654
11.713639998435974
12.067277803421021
12.161905035972595
12.06743766784668
12.127522959709168
12.248426332473755
12.391302227973938
12.536579174995422
12.540042614936828
12.353036699295044
12.013022618293762
11.782786512374878
12.015800824165344
12.595799293518066
13.150133218765259
13.485673966407775
13.779189491271973
14.076921887397766
14.139111232757568
13.937136902809144
13.78923553943634
13.896526265144349
13.952607488632202
14.07594883441925
14.156488423347474
14.262855935096741
14.483966917991639
14.661060028076172
14.73022225856781
14.83215549468994
14.956997504234314
14.917228980064392
15.057823891639709
15.146383256912232
14.704605588912964
13.518355269432067
12.083993515968324
11.702269859313965
12.348440918922424
13.11281458377838
13.970680503845214
14.471772794723512
14.572836265563964
14.66222336769104
14.808970866203309
15.080719614028931
15.524556159973145
15.936131777763366
16.234520721435548
16.451466817855835
16.451173501014708
16.181732988357545
15.942747898101807
16.01551598072052
16.096064338684084
16.049991998672485
15.893335337638854
15.72607711315155
15.626580071449279
15.552618637084962
15.525588631629944
15.396123628616333
14.956270990371705
14.305596284866333
13.605829033851624
13.160560874938964
12.68680862903595
12.326424918174745
12.318383364677429
12.61622395515442
12.85792649269104
12.745210514068603
12.722626705169677
12.699051961898803
12.85280258655548
13.327196483612061
13.898972783088684
14.465239386558533
15.272823634147644
16.360417518615723
17.365435109138488
17.95149338245392
17.701496601104736
17.51047541618347
17.27366068840027
17.188032350540162
17.414895238876344
17.293655505180357
16.60375874519348
15.727527680397033
15.089876685142517
14.960462880134582
15.113380393981934
15.130375189781189
14.910064487457275
14.508326406478881
13.850265316963196
13.285020031929015
12.952929725646973
12.824003133773804
12.844002141952515
12.988779101371765
13.197938985824585
13.40709406375885
13.569758515357972
13.568742256164551
13.77535747051239
13.930386748313904
13.78070665359497
13.629711227416992
13.646089453697204
13.709333772659301
14.159969434738159
14.854289493560792
15.639311380386353
16.415923480987548
17.41246747493744
18.096254954338075
18.118667221069337
17.88102514743805
17.805910496711732
17.96259801864624
17.795952072143553
17.99041127204895
18.325006260871888
18.28854814052582
17.81526240348816
17.050860891342165
16.158449244499206
14.888619265556336
13.841926441192626
13.355626525878906
13.353029341697694
13.28290252685547
13.589289951324464
14.444971671104431
15.620406141281128
16.64108856678009
17.151187191009523
17.321930356025696
18.276546182632448
19.932108268737792
21.957969522476198
23.980429015159608
25.580726251602172
26.319740657806395
26.43053490638733
27.17880822658539
27.97481906890869
28.32594738960266
28.06273337841034
28.45035002231598
29.29224224567413
29.948858675956725
30.038316044807434
30.054302773475648
30.072716431617735
29.949996886253356
30.268577432632448
30.484560351371766
30.48274003982544
30.659477224349974
30.481284685134888
29.749618978500365
29.26903606891632
28.357665009498596
27.679484190940858
27.109807300567628
26.877321038246155
26.84597674369812
27.02219048023224
27.360725073814393
27.76571783065796
27.596946234703065
26.991699738502504
26.560793180465698
26.401106657981874
26.44553609371185
26.417757115364076
26.61881959915161
26.80976531982422
26.952967290878295
27.027831563949587
26.85471257686615
26.394703278541567
25.538518133163453
24.49690721511841
23.69742106437683
23.506067090034485
23.62073823928833
22.865523347854616
21.173055291175842
18.933425455093385
16.851798839569092
15.46333031654358
14.991457266807556
15.172499561309815
14.560308289527892
13.800802564620971
13.531010975837708
13.994817943572999
13.792150020599365
12.994527521133422
12.265523691177368
12.038867025375366
11.939946970939637
11.853802080154418
11.868839502334595
11.545168676376342
11.536223983764648
11.808744072914124
11.870073733329773
11.77091567516327
11.958546156883239
11.707103004455567
12.210804347991944
13.048270149230957
14.291663284301757
15.33281991004944
15.597173414230348
15.734287056922913
16.424043760299682
17.78077366352081
19.69215853691101
21.71004964828491
23.406095395088197
24.911523160934447
25.99181064605713
26.319598813056945
26.27583333969116
26.20829083919525
26.168855962753295
26.783208394050597
27.284825019836425
27.215997200012207
27.332425951957703
27.22226266860962
27.179854302406312
27.58557282924652
28.08749845504761
28.205043354034423
28.11835437297821
28.207776808738707
28.407398729324342
28.401519107818604
28.1124222946167
27.861359167099
27.702640805244446
27.5901265001297
27.554457707405092
27.66796407699585
27.985718245506288
28.414778246879578
28.82399503707886
29.29735140800476
29.977293128967286
30.41193886756897
30.677092289924623
30.879634342193604
30.823732795715333
30.495671133995057
30.74177707195282
31.338098702430724
31.74038212776184
32.02366263866425
31.836630640029906
31.108573884963988
30.222192034721374
29.495891790390015
29.436573958396913
29.75325294971466
29.36801911830902
27.952392139434814
25.890222721099853
23.966210079193115
22.564124302864073
21.540110664367674
20.535937838554382
21.071080255508424
22.55717679977417
23.665825147628784
23.79209800720215
23.799100089073182
24.80013788700104
27.243692622184753
30.5324196100235
34.487031931877134
37.93009202003479
40.0811190700531
40.974322633743284
40.750701847076414
41.46787198543549
42.77076477050781
43.83730899810791
44.559020404815676
45.17841045379639
45.686396622657774
46.163036465644836
46.583391556739805
46.70743608951569
46.466961150169375
46.106038417816166
45.809957480430604
45.58369548797607
45.45274911880493
45.41723624229431
45.386568398475646
45.26820304393768
45.029845938682556
44.92510170936585
44.87688432216644
44.43103229522705
43.72042407035828
43.7105721950531
44.35581842422485
45.026496458053586
45.27322285175323
45.17366925239563
45.16452761173248
45.147689394950866
44.51850076675415
43.880915813446045
43.63017483234405
43.61582046985626
43.58087226867676
43.20777722358704
42.680136671066286
42.69118228912353
41.88093638420105
40.344022006988524
39.44133097171783
39.68804940223694
39.47375274658203
38.41087961673737
36.51738085269928
33.50385395526886
29.848121852874755
26.539928240776064
23.945871591567993
22.22892596244812
21.97253903388977
21.207288823127747
19.940314764976502
18.853646273612977
18.132671246528627
17.533797059059143
17.075151653289794
16.748790240287782
16.561339864730837
16.738709354400633
17.23761480808258
17.561173448562624
17.441448459625246
17.13563193798065
16.896327509880066
16.75279529094696
16.704123268127443
16.76996654510498
16.91615718841553
16.940235261917113
17.06624111175537
17.017435793876647
16.996089158058165
16.624085469245912
15.901876559257508
15.0711155128479
14.398659276962281
13.984572720527648
13.705195326805114
13.57585910797119
13.679782900810242
13.839189457893372
14.1447625541687
14.702784242630004
15.242644200325012
15.723385214805603
16.17679973602295
16.556809854507446
16.838322353363036
17.001841826438906
16.749431619644167
16.25954414367676
15.864352312088013
15.76645833015442
15.800958223342896
15.774834403991699
15.439744873046875
15.066312441825866
15.079803748130798
15.484310765266418
16.084381852149964
16.54493691921234
16.66891038417816
16.712449417114257
17.076376295089723
17.800035190582275
18.36870955467224
18.667277941703798
18.874955654144287
18.759322991371153
18.079468760490418
17.482957763671877
17.283067741394042
17.16733034133911
17.058177170753478
16.93868166446686
16.734230432510376
16.514590306282045
16.363570799827574
16.39054927825928
16.571754035949706
16.853264999389648
17.066621870994567
17.173674454689024
17.38079332828522
17.702333989143373
17.936902227401735
17.917482604980467
17.91188445568085
17.844619731903077
17.62108874320984
17.511190037727356
17.37940396308899
16.8188623380661
16.67469877243042
16.73104284286499
16.449773511886598
16.075615191459654
15.813394556045532
15.82701744556427
16.419744038581847
17.47067663192749
18.58649721622467
19.16057659626007
19.11669265270233
18.840649943351746
18.766659488677977
18.673954482078553
18.427688326835632
18.11357970237732
17.609941687583923
17.048779196739197
16.673144502639772
16.413320021629332
15.991857371330262
15.41278024673462
14.952249059677124
14.648396472930909
14.29593316078186
13.980955266952515
14.001813163757324
14.006008381843566
14.02607530593872
14.127559752464295
14.071651453971862
14.177864484786987
14.703206768035889
15.573523273468018
16.30903829574585
16.35477783203125
16.25104477405548
16.270802235603334
16.56394191265106
17.03796166419983
17.239036865234375
17.097747201919557
16.990613288879395
17.111622514724733
17.398066754341126
18.452957530021667
20.687846908569338
23.380281705856323
25.23321213722229
25.633011674880983
25.977436418533326
26.39387303352356
26.914061369895936
27.033322491645812
28.030518951416017
30.7519572019577
33.843690514564514
35.90353612422943
36.493290758132936
36.17283814907074
35.59184659004212
35.75044215202332
36.516677565574646
37.76833405017853
39.32933514118194
40.98330731391907
42.308491578102114
43.19284066200257
43.835015544891355
44.23207207202911
44.26269454956055
44.033826971054076
43.89029810905456
43.77385748386383
43.70986931324005
43.60897288322449
43.411088814735415
43.324758310317996
43.31629543304443
43.2597093296051
43.18881587505341
42.803504271507265
42.061022710800174
41.15279738426209
40.41
40.42285242557526
40.662757430076596
40.89258905887604
40.94373242378235
40.740941081047055
40.63366976737976
40.834275670051575
41.163990778923036
41.44617321491241
41.47154061794281
40.71121054172516
38.78275208950043
36.20478486537933
34.237244863510135
33.82703604698181
33.0751554107666
32.184822692871094
31.642717428207398
31.58195246219635
30.462599544525148
27.702227473258972
24.18269142627716
21.37000123023987
20.00567087173462
19.85488168716431
20.3836550617218
20.542510199546815
20.303395991325377
19.572408857345582
18.32524335861206
16.881504082679747
15.721459908485413
14.93752613544464
14.296795210838319
13.970918474197388
14.02583837032318
14.395822982788086
14.66621418952942
14.780033626556396
14.728230962753296
14.71446060180664
14.821666169166566
14.999323024749756
15.210503025054932
15.586612577438354
16.05184735774994
16.50707905292511
16.91775670528412
17.21807297229767
17.524789838790895
17.665600967407226
17.549794821739198
17.10433479309082
16.49838634967804
15.920863304138184
15.424793090820312
15.035287251472473
14.554027662277221
14.167594423294068
13.83211696624756
13.612084088325501
13.48300615310669
13.410204997062683
13.454221606254578
13.612417316436767
13.724289999008178
13.814531211853028
13.843319249153136
13.911355328559875
14.114410934448243
14.060536460876465
13.996935505867004
14.048817534446716
14.074355192184449
13.932702174186707
13.600775332450867
13.056864972114562
12.358666977882386
11.906613159179688
11.687299036979676
11.38277822971344
11.164091625213622
11.218251399993896
11.398675971031189
11.286723437309265
11.119730319976806
10.76605257987976
10.76693232536316
11.234410429000855
11.812646851539611
12.133298635482788
12.255044875144959
12.34517827987671
12.389129977226258
12.15471541404724
11.631349992752074
11.077941427230835
10.735891842842102
10.384293222427369
10.34964693069458
10.436186890602112
10.598276681900025
10.953416728973389
11.281073684692382
11.35968448638916
11.349993782043457
11.680912899971009
12.977457294464111
15.051223211288452
17.100568137168885
18.24185667991638
18.625966815948487
18.911418538093567
19.264475378990173
19.384568676948547
19.28875642299652
19.41518012523651
19.61129237651825
19.866486973762512
20.280774893760682
20.715758867263794
20.702574853897094
20.563813066482545
20.933566341400148
21.671295981407166
22.425639233589173
22.984438409805296
23.374010663032532
23.30250657081604
23.431969442367553
23.62986792564392
23.501047253608704
23.351709370613097
23.180419821739196
23.19734962940216
23.17878077030182
23.335156707763673
23.21987979888916
22.74467005729675
22.197502279281615
21.896348452568056
21.874588956832884
21.93706030845642
22.04844072341919
22.390656785964964
22.87714780330658
23.13765474796295
22.99351601600647
23.13035496234894
23.0652264213562
22.785796666145323
22.320490188598633
22.049961676597594
21.946907577514647
21.993376321792603
22.031171617507933
21.617545771598817
20.341180148124696
18.38097568511963
16.714910092353822
15.949857306480407
15.660329461097717
15.31868851184845
15.038410267829896
15.186580448150634
15.592932286262512
15.690786037445069
15.582650518417358
15.265694756507873
14.72540517807007
14.19469810962677
14.11341115474701
14.11345414161682
13.600818138122559
12.760762987136841
11.90148540019989
11.204393439292907
10.786218090057373
10.854393539428711
10.784113364219666
10.777436714172364
10.967585549354553
10.902882404327393
11.076464533805847
11.418883638381958
11.657612128257751
11.555238370895387
11.459001636505127
11.466792631149293
11.633039865493775
11.93898250579834
12.284604744911194
12.660284008979797
12.938720269203186
12.786000247001647
12.374839797019959
12.241987709999085
12.577592935562134
13.276442017555237
13.95501079082489
14.36819224357605
14.602960166931153
14.44004404067993
14.209278464317322
14.098534359931946
13.98989827156067
14.061462092399598
14.21929847717285
14.191847763061524
13.839923734664916
13.397755017280579
13.28210120677948
13.413136620521545
13.407761363983154
13.023147602081298
12.610554018020629
12.187263708114624
11.837095761299134
11.648398156166076
11.770510663986206
12.015860624313355
12.198912167549134
12.299707269668579
12.392370233535766
12.57169457435608
12.905438079833985
13.382024188041687
13.844767966270446
14.097384634017944
14.078974466323853
13.945788693428039
13.863265018463135
13.93446240901947
13.81956081867218
13.444692406654358
13.258910703659058
13.458399724960326
13.643503212928772
13.578463931083679
13.662226662635803
13.91956757068634
14.012632641792298
13.808207521438598
13.562071099281312
13.706726427078246
14.046727643013
14.097060379981995
13.759807181358337
12.950992732048034
12.133490104675293
11.789330158233643
11.787937545776368
11.875859832763672
11.889557614326478
11.822746143341064
11.850355048179626
11.739425702095032
11.554094910621643
11.545448746681213
11.827488260269165
12.280879702568054
12.544400744438171
12.58835840702057
12.68426468372345
13.02650691986084
13.205651702880859
13.238665356636048
13.286767525672913
13.484542798995971
13.561200141906738
13.386559948921203
13.017664127349853
12.641527419090272
12.256358542442321
11.907460289001465
11.551424698829651
11.072197637557984
10.788704023361205
10.849957065582275
11.26143624305725
11.754160904884339
12.011091208457946
12.017481827735901
12.01549651145935
12.125641112327576
12.052007422447204
11.799925508499145
11.61643503665924
11.82565260410309
11.94434705734253
11.729454345703125
11.401848602294923
11.078074345588684
10.671839537620544
10.17368046760559
9.925039520263672
10.246752123832703
10.881728758811951
11.173443479537964
11.143271236419677
10.9959965467453
10.826419258117676
10.867562947273255
10.997108402252197
11.13265033721924
11.223611731529235
11.322182388305665
11.44678041934967
11.481437029838562
11.320885486602783
10.98707942008972
10.674421977996825
10.473742246627808
10.269272375106812
9.989017100334168
9.76626801967621
9.760859942436218
9.918478841781615
10.058578486442565
10.188315811157226
10.473370351791381
10.87692494392395
11.099001388549805
11.107744221687318
11.099911918640137
11.00667501449585
11.158760557174682
11.139516587257384
10.779875583648682
10.202169432640076
9.698186922073365
9.500597105026245
9.558768658638
9.624353585243226
9.645942363739014
9.76471580028534
9.953455753326416
10.035551209449768
9.966225380897521
9.862818851470948
9.826884808540344
9.85016809463501
9.886396374702453
9.985196061134339
10.194672265052795
10.292538557052612
10.028609666824341
9.655944566726685
9.685128617286683
10.05392725944519
10.325694460868835
10.463926496505737
10.323590755462646
10.245489053726196
10.275044164657594
10.2991179561615
10.272562108039857
10.13321418762207
10.048938326835632
10.063942041397095
10.14890522956848
10.262712078094482
10.369432067871093
10.438644933700562
10.471512365341187
10.511833386421204
10.579494328498841
10.604317436218262
10.467833347320557
10.126300287246703
9.692556509971618
9.371817679405213
9.29532467365265
9.446905493736267
9.554235816001892
9.688686490058899
9.639353256225586
9.607853860855103
9.766292695999146
10.011175947189331
10.186250171661378
10.280167336463927
10.370477452278138
10.502442955970764
10.614858927726745
10.667335557937623
10.749959287643433
10.899866304397584
10.97214539527893
10.825370841026306
10.52686189174652
10.29524398803711
10.23293601512909
10.135282287597656
10.040883955955506
9.992089047431946
9.891945133209228
9.67858558177948
9.355667552947999
9.112698993682862
9.068460111618043
9.225689516067504
9.566690049171449
9.858901000022888
10.043170800209046
10.154443702697755
10.234703321456909
10.388416829109191
10.44026472568512
10.36401439189911
10.26887979030609
10.211392841339112
10.15984968662262
10.15037534236908
10.284926280975341
10.466987161636352
10.42526940345764
10.16381830215454
10.037670378684998
10.277329754829406
10.718966236114502
11.149651775360107
11.538667883872986
11.826142735481262
11.894228444099426
11.804121866226197
11.72970278263092
11.713523044586182
11.658129887580872
11.493237357139588
11.305364098548889
11.213007364273071
11.112660331726074
10.848326964378357
10.70464819908142
10.508684458732604
10.438800916671752
10.343692727088929
10.319125761985779
10.504724917411805
10.802328605651855
11.019671244621277
11.075016646385192
11.061023535728454
10.962138929367065
10.738132095336914
10.680602769851685
10.739686274528504
10.81769329547882
10.792509994506837
10.615297951698302
10.302500309944152
9.928165831565856
9.583825464248656
9.358795404434204
9.18952097415924
9.111515364646912
8.968149404525757
9.314817657470703
10.14856264591217
11.078519425392152
12.102563366889953
13.151361403465271
13.663938732147217
13.396711001396179
13.425342717170714
13.47935146331787
13.507677898406982
13.423648176193238
13.145092058181763
12.716378245353699
12.410170831680297
12.182182998657227
11.949178185462952
11.816183233261109
11.814931316375732
11.811320400238037
11.80164764881134
11.66561140537262
11.638763518333436
11.641898565292358
11.526341280937196
11.463202576637268
11.718548274040222
12.065398797988891
12.54633551120758
12.749749932289124
12.800515713691711
12.824483008384705
12.845838322639466
12.903189301490784
13.0275661277771
13.141399402618408
13.129137678146362
13.224398145675659
13.23225417137146
13.28409791469574
13.286086983680725
13.195243511199951
13.161840925216675
13.314467225074768
13.576521191596985
13.814787092208862
13.94113703250885
13.903360176086426
13.83936825275421
13.750927834510803
13.77336507320404
13.39069658279419
12.666624436378479
11.911881890296936
10.985955238342285
9.960975451469421
9.471037831306457
9.710242099761963
9.569537663459778
9.447969541549682
9.461861782073974
9.620512042045593
9.966086282730103
10.445231900215148
10.663383722305298
10.603488974571228
10.559961838722229
10.656384677886964
10.75560763835907
10.735936017036439
10.703184146881103
10.690815935134887
10.710243091583251
10.82848343372345
11.048761386871337
11.236099944114684
11.206563029289246
10.94087116241455
10.687562365531921
10.647045855522157
10.698782596588135
10.649015836715698
10.506937923431396
10.339683008193969
10.089566903114319
9.762692112922668
9.859601807594299
9.85120481967926
9.844656686782837
9.79012152671814
9.892538847923278
10.249161348342895
10.649967303276062
10.907661895751954
11.095739846229554
11.293543801307678
11.409026660919189
11.393010907173156
11.388097224235535
11.402694039344787
11.42219470500946
11.319999594688415
11.144220657348633
10.911861515045166
10.66349910736084
10.410550799369812
10.264287271499633
10.200558466911316
10.204480595588684
10.291569147109985
10.508495831489563
10.658946628570556
10.335570063591003
10.086241178512573
9.896656022071838
9.635264015197754
9.601525917053223
9.692624015808105
9.932150011062623
10.234034237861634
10.342334699630737
10.643829226493835
11.224702711105346
11.946560888290405
12.55967442035675
12.97487551689148
13.197367868423463
13.06724331855774
13.154455380439758
13.24933017730713
13.077455611228944
13.051035141944885
13.327432818412781
13.631079668998717
14.019712409973145
14.564132857322694
14.703565669059753
14.630286765098571
14.787083115577698
14.764704809188842
14.600707235336303
14.329451184272767
13.9468177652359
13.501973080635072
12.994737772941589
12.54953760623932
12.265730900764465
12.196981568336486
12.17968240737915
12.172407665252685
12.192409262657165
12.326229023933411
12.460314784049988
12.630818619728089
12.936685633659362
13.367297520637512
13.67495183467865
13.837060527801514
13.976066813468933
14.168114581108092
14.277133355140686
14.264230208396912
14.384368987083436
14.16804708480835
14.027535514831543
14.24151035308838
14.239353585243226
13.946188344955445
13.572214679718018
13.327566108703614
13.1738911485672
13.004240942001342
12.595268449783326
11.99157675266266
11.465190372467042
11.149521484375
11.08202817440033
11.390769338607788
11.432790532112122
11.416293034553528
11.643045082092286
11.706258702278138
11.484192190170289
11.248075976371766
10.843417258262635
10.403037323951722
10.463034868240356
10.856638951301575
11.217877044677735
11.662394814491272
11.926185011863708
11.864379453659058
11.879071025848388
12.084488868713379
12.61272569179535
13.50414670944214
14.755057973861694
16.11332830429077
17.224887986183166
17.87173421382904
18.151356682777404
18.39828848361969
18.646043329238893
18.41202474117279
18.641955256462097
19.076310091018676
19.35218994140625
19.364625263214112
19.06757171154022
18.989756922721863
19.055507669448854
19.39780529975891
20.374687280654907
21.899775862693787
22.97298522949219
22.91629487514496
23.168944873809814
23.34288724899292
23.510339403152464
23.523713612556456
23.686064043045043
23.678127570152284
23.544391212463378
23.48940670490265
23.33532292366028
23.208524813652037
23.320438818931578
23.561430788040163
23.571363248825072
23.217406301498414
22.852363600730897
22.69806185245514
22.71194628715515
22.77513964653015
22.843095359802245
22.73799823284149
22.507406640052796
22.21462791442871
21.977590193748473
21.965746369361877
22.201349511146546
22.467352204322815
22.33264274120331
22.116508202552794
21.567434477806092
20.81645264625549
19.80981812477112
18.662831225395202
17.68404273033142
17.17411520957947
17.07826805114746
16.973588428497315
16.731297035217285
16.88201195240021
16.56293062210083
16.00435492515564
15.530668778419495
15.328905549049377
15.48575629711151
15.37072500705719
15.084237823486328
14.71864140033722
13.995065579414367
12.843560156822205
11.959186549186706
12.009797863960266
11.815046610832214
11.898282203674317
11.941468029022216
11.922846179008484
11.748317565917969
11.687066192626952
11.68957178592682
11.573612632751464
11.588605823516845
11.586174349784852
11.28141417980194
10.84991117477417
10.732645359039306
11.012269606590271
11.33636637210846
11.567203831672668
11.670145621299744
11.650469455718994
11.727459745407105
12.0047465467453
12.001482639312744
11.977562866210938
11.943397960662843
11.696399483680725
11.307522888183593
11.007607707977295
11.114277367591859
11.278326535224915
11.646001415252686
11.835269479751586
11.81128366470337
11.780615615844727
11.902404599189758
12.021568779945374
11.99045892238617
11.948018288612365
11.979558339118958
11.953612036705017
11.85760832309723
11.833735227584839
11.864237275123596
11.78423156261444
11.600521478652954
11.463716158866882
11.408999004364013
11.286649146080016
11.028108639717102
10.765442900657654
10.653565464019776
10.69645384311676
10.765922293663024
10.769513421058655
10.843996481895447
11.13621684074402
11.413182435035706
11.518795962333678
11.55816967010498
11.683098411560058
11.769424886703492
11.77547567844391
11.864581151008606
12.019584846496581
12.020218720436096
11.79118639945984
11.45699773311615
11.130226135253906
10.823090720176697
10.47634795665741
10.273977603912353
10.225866713523864
10.251464748382569
10.251846294403077
10.340992913246154
10.469639472961425
10.631886978149414
10.901388230323791
11.058869671821594
11.03313895225525
10.834547181129455
10.644864602088928
10.575539412498474
10.520987024307251
10.416647472381591
10.387463269233704
10.457215642929077
10.472765049934388
10.437434077262878
10.452203917503358
10.426625719070435
10.287309727668763
10.210638537406922
10.370021076202393
10.665436868667603
10.90130154132843
11.025980868339538
11.16569905281067
11.417337551116944
11.712789216041564
11.880926847457886
11.850447916984558
11.73941351890564
11.64543701171875
11.454987392425537
11.10824219226837
10.870255088806152
10.705865726470947
10.601000146865845
10.419328970909119
10.313755850791932
10.430006918907166
10.633163776397705
10.763495726585388
10.838980708122254
10.945498914718629
11.07756362438202
11.144477381706238
11.178594188690186
11.363292212486266
11.50923481464386
11.56455849647522
11.701163964271545
11.741105580329895
11.430135898590088
11.085082025527955
10.909067969322205
10.76309636592865
10.52892641544342
10.33818380355835
10.261987957954407
10.227636680603027
10.267596950531006
10.423384151458741
10.539674439430236
10.482823677062989
10.3895245885849
10.40598955154419
10.428250622749328
10.380054445266724
10.369890203475952
10.451955080032349
10.547497496604919
10.558335661888123
10.495560536384582
10.454097876548767
10.412478685379028
10.281348276138306
10.087964282035827
9.918348417282104
9.825760288238525
9.827630338668824
9.899696502685547
10.029252662658692
10.23805805683136
10.45376130580902
10.485994215011596
10.546067280769348
10.63144392490387
10.717371535301208
10.617519068717957
10.27416446685791
9.85253664970398
9.477334156036378
9.162706632614135
8.960782885551453
8.937040190696717
9.037998657226563
9.127297005653382
9.181663208007812
9.25124270439148
9.269534902572632
9.195852613449096
9.16006628036499
9.227836356163024
9.272121224403381
9.23354377746582
9.258527960777283
9.447183508872985
9.716251997947692
9.945273818969726
10.035590448379516
9.938204550743103
9.73796877861023
9.572340364456176
9.436159868240356
9.224815020561218
8.969312233924866
8.875678119659424
8.928661985397339
9.015776677131653
9.139971470832824
9.257294974327088
9.283637199401856
9.240591216087342
9.187270135879517
9.171115136146545
9.213842315673828
9.245135073661805
9.17898859500885
9.038696022033692
8.914120554924011
8.826705770492554
8.672102909088135
8.407146983146667
8.221277155876159
8.246808128356934
8.321790471076966
8.313559784889222
8.353936204910278
8.602262172698975
8.993514828681946
9.33833194732666
9.594719405174255
9.814120321273803
9.890632276535035
9.782526903152466
9.695387082099915
9.529502139091491
9.332767205238342
9.139983100891113
9.013026900291443
9.022075953483581
9.099272575378418
9.154641766548156
9.156619563102723
9.142389030456544
9.171829924583434
9.227791275978088
9.247294383049011
9.283713388442994
9.453090615272522
9.692817482948303
9.857993731498718
9.970134167671203
10.139052653312683
10.37846968650818
10.601343865394592
10.642825684547425
10.517890949249267
10.314051885604858
10.022213253974915
9.685782465934754
9.403296365737916
9.25252498626709
9.130973820686341
9.02834310054779
8.99857346534729
9.015443325042725
9.103735756874084
9.236040110588073
9.358190760612487
9.479230961799622
9.645874099731445
9.87227117538452
10.084476857185363
10.224275889396667
10.37377426147461
10.582631015777588
10.706223683357239
10.5766832780838
10.247120399475097
9.95018693447113
9.79828730583191
9.717719559669495
9.689469151496887
9.653223443031312
9.594478430747985
9.62245653629303
9.592971210479737
9.60382887840271
9.494872722625733
9.395161633491517
9.329539303779603
9.190768604278565
9.263522443771363
9.528498940467834
9.872814054489135
10.237644300460815
10.583533658981324
10.74279800415039
10.594553933143615
10.380452027320862
10.417428040504456
10.64112871170044
10.824317221641541
10.874222359657288
10.764480218887329
10.617817025184632
10.687563586235047
11.000824971199036
11.32908800125122
11.551098999977112
11.774673357009888
11.9720649766922
12.102586994171142
12.164377927780151
12.226927380561829
12.379074621200562
12.54684663295746
12.672298531532288
12.795645599365235
12.933651747703552
12.922240343093872
12.736780295372009
12.889120874404908
13.017689938545226
12.887337055206299
12.53388333797455
12.355268244743348
12.466383590698243
12.761135449409485
12.827781376838685
12.798439779281615
12.848768873214722
12.788556861877442
12.793750405311584
12.760442600250244
12.709873847961425
12.898597612380982
13.088013458251954
13.40281020641327
13.620980734825133
13.673274374008178
13.802026076316833
13.845057020187378
13.792887892723083
13.707748494148255
13.575260081291198
13.323809094429016
13.146268854141235
13.302670183181762
13.580936646461486
13.57596722126007
13.280413732528686
12.893252229690551
12.801030478477479
12.914250078201293
13.109905071258545
13.28948399066925
13.396061635017395
13.430534973144532
13.362435264587402
13.148069348335266
13.030447578430175
13.274017601013183
13.851273527145386
14.215558676719665
14.133216271400451
14.11095974445343
14.631805391311646
15.39643466949463
15.76841495513916
15.829669437408448
16.064157466888428
16.17363606452942
16.25817490577698
16.31640766620636
16.46600305557251
16.62261100769043
16.79585020542145
17.025469694137573
17.532158508300782
17.949300198554994
18.014681963920594
17.966077089309692
18.274643239974974
18.866338238716125
19.570142464637755
19.80028209209442
19.48635003566742
19.194113545417785
18.87525028705597
18.69450623512268
18.60285614490509
18.498653111457823
18.277969632148743
17.941516470909118
17.651293268203734
17.549338607788087
17.522769503593445
17.39881353378296
17.23718664646149
17.23853334903717
17.50263395309448
17.95132222175598
18.090084376335145
17.978163895606993
17.84964412689209
17.695881881713866
17.347916150093077
16.944418482780456
16.75873429298401
16.930072746276856
17.08273398399353
16.86578796863556
16.242755360603333
15.745617461204528
15.64738248348236
