9.573056406974793
9.680528001785278
9.773354754447936
9.736349024772643
9.632151560783386
9.574112839698792
9.602647953033447
9.69765052318573
9.808563766479493
9.878438868522643
9.857137174606324
9.73933560371399
9.612082495689393
9.564700183868409
9.556621985435486
9.503938121795654
9.45339862346649
9.49024308204651
9.55167218208313
9.529273591041566
9.419687962532043
9.32082103729248
9.372349972724914
9.49838228225708
9.405009889602661
9.149031963348389
8.943339457511902
8.886086192131042
8.813114347457885
8.709364457130432
8.64092441558838
8.608591337203979
8.615449151992799
8.673121428489685
8.762503514289856
8.855149025917052
8.930264358520509
8.976316413879395
8.987339782714844
8.980079855918884
8.978871688842773
8.974339189529418
8.972388496398926
9.006259608268739
9.034224843978881
8.972695331573487
8.841640014648437
8.751212644577027
8.77123230934143
8.837395753860473
8.80675235748291
8.674282188415527
8.619958682060242
8.777268228530884
9.092706899642945
9.353369178771972
9.325950274467468
9.152428164482117
8.972617797851562
8.857744770050049
8.810592522621155
8.775782809257507
8.74126247882843
8.676787633895874
8.601576719284058
8.563092169761658
8.55869655609131
8.565174174308776
8.625281162261963
8.7750426197052
8.891304612159729
8.811555967330932
8.557481818199157
8.37550654888153
8.513677191734313
8.822177901268006
9.081954522132873
9.192275466918945
9.315502352714539
9.481970653533935
9.594308042526245
9.630755949020386
9.641343259811402
9.649080944061279
9.636396417617798
9.582450370788575
9.519531183242798
9.554378352165223
9.731623616218567
9.820139694213868
9.564097576141357
9.474633355140686
9.290481925010681
9.258959255218507
9.192543597221375
9.149447159767151
9.229053783416749
9.300588955879212
9.256509246826171
9.250772862434387
9.398147106170654
9.550254573822022
9.554980521202088
9.433575053215026
9.246486005783082
9.088304777145385
9.141239581108094
9.296881980895996
9.434788579940795
9.497932515144349
9.53798379421234
9.634082369804382
9.726596393585204
9.777718811035156
9.831726236343384
9.94601408958435
10.077940964698792
10.131097497940063
10.08921808719635
10.004178223609925
10.0385192155838
10.414235186576843
10.903049201965333
10.90309118270874
10.821781444549561
10.53097945690155
10.467461743354797
10.435964121818543
10.264974460601806
10.04419409751892
9.896691222190857
9.842602186203003
9.864668245315551
9.939643912315368
10.0053773355484
10.009975738525391
9.956093745231628
9.833276553153992
9.62388451576233
9.518046793937684
9.769377365112305
9.886755652427674
10.105693707466125
10.151676650047301
10.246079063415527
10.379215579032898
10.426119794845581
10.440205912590027
10.505928254127502
10.547968859672546
10.5454456615448
10.591408514976502
10.646308608055115
10.741158213615417
11.18806990146637
11.829237947463989
11.914789690971375
12.019392471313477
12.088701119422913
12.024104957580567
12.046857719421388
11.966605434417724
11.8297167634964
11.756112804412842
11.764914512634277
11.723599853515625
11.58110622882843
11.489699053764344
11.551265258789062
11.679870429039001
11.686642608642579
11.391720728874207
11.008368287086487
11.06066246509552
11.08875783443451
11.23959225177765
11.173525128364563
11.177445402145386
11.395933651924134
11.643129763603211
11.773651266098023
11.81656970024109
11.819601283073425
11.80747667312622
11.821636743545533
11.881318712234497
12.02344117641449
12.292318716049195
12.528741445541382
12.44065830230713
12.197926483154298
11.980240440368652
11.901363592147828
11.919974961280822
11.881946215629577
11.816002807617188
11.76968955039978
11.719788980484008
11.656630926132202
11.566914615631104
11.409013595581055
11.254639115333557
11.284741654396058
11.362830715179443
11.010389804840088
10.37083487033844
10.257921895980836
10.152989530563355
10.164659118652343
10.351270608901977
10.381726536750794
10.458013100624084
10.615979585647583
10.730724096298218
10.729099879264831
10.705000562667847
10.72198434829712
10.72779124736786
10.685110306739807
10.579586253166198
10.465540919303894
10.504373722076416
10.64664575099945
10.603336248397827
10.408111853599548
10.25230806350708
10.175761675834655
10.146443367004395
10.06267753124237
9.950070309638978
9.874219288825989
9.83618634223938
9.811864643096923
9.779539947509766
9.71938542842865
9.653746805191041
9.561507263183593
9.356917910575866
9.165529203414916
9.290145726203919
9.54213224887848
9.717149415016173
9.74774908542633
9.705379476547241
9.704715719223023
9.726986060142517
9.770921444892883
9.810619392395019
9.807415161132813
9.82447600364685
9.902096152305603
9.929204778671265
9.800069632530212
9.643037633895874
9.742346396446228
9.988564200401306
9.875527510643005
9.945291781425476
9.801640448570252
9.718882718086242
9.738009514808654
9.682404565811158
9.54835642337799
9.457861585617065
9.485666942596435
9.573129687309265
9.674588866233826
9.786737270355225
9.838876342773437
9.814948801994325
9.78600350856781
9.717822942733765
9.615597147941589
9.654094905853272
9.800796909332275
9.933970274925231
10.016880168914795
10.049013090133666
10.128139600753784
10.230761880874633
10.308985195159913
10.39008952140808
10.462695441246034
10.486750354766846
10.529364399909973
10.691933450698853
11.100130572319031
11.866968669891357
12.56847318172455
12.465284643173218
12.540477576255798
12.544825687408448
12.526623930931091
12.51593671321869
12.383854713439941
12.302748141288758
12.28994297027588
12.264059319496155
12.252388095855713
12.305263757705688
12.391237802505493
12.435903086662293
12.41560887813568
12.328729338645935
12.088389348983764
11.823044528961182
11.950082807540893
11.880199422836304
11.974928598403931
11.953338871002197
11.834106059074402
11.803540120124817
11.826752705574036
11.819999365806579
11.778450136184693
11.771716265678405
11.815118408203125
11.84972318649292
11.889870491027832
12.037479219436646
12.31016436100006
12.502516674995423
12.388197355270385
12.277118282318115
12.108158292770385
12.099090657234193
12.117855262756347
12.119469647407533
12.099182891845704
12.052380166053773
12.030891947746277
12.073564739227296
12.129546232223511
12.15048924922943
12.126849851608277
12.01791356086731
11.683430409431457
10.985440378189088
10.294286303520202
10.292703943252564
10.053297395706176
9.958757152557373
9.988617944717408
10.051111259460448
10.246629819869995
10.350414118766786
10.299271831512451
10.251407561302186
10.255394377708434
10.219945440292358
10.134149923324586
10.106844878196716
10.200006375312805
10.321493163108826
10.346492524147033
10.222341394424438
10.01803512096405
9.864136128425598
9.703889088630676
9.642351498603821
9.6425550031662
9.733384928703309
9.862203760147095
9.872417583465577
9.721605439186096
9.53753249168396
9.43479977607727
9.391844420433044
9.336312265396119
9.229368953704833
9.043976063728332
8.892775001525878
9.002104802131653
9.117182621955871
9.284085330963135
9.240216197967529
9.126326251029969
9.05750092983246
9.081637525558472
9.141980195045472
9.125623106956482
9.045492773056031
9.01212763786316
9.053267583847045
9.144842085838318
9.263314571380615
9.398310823440552
9.628057971000672
9.871741499900818
9.833173236846925
9.811896948814391
9.776946034431457
9.684855413436889
9.63352063179016
9.571790375709533
9.55295763015747
9.590083012580871
9.611178827285766
9.594211573600768
9.586285977363586
9.60077196598053
9.583104953765869
9.501049871444701
9.44006712436676
9.49376441001892
9.659247903823852
9.82862663269043
9.897571506500244
10.030760068893432
10.193655366897582
10.31475947856903
10.255995864868163
10.125652794837952
10.118044271469117
10.23437985420227
10.361605443954467
10.416016993522645
10.40004071712494
10.380061058998107
10.520980935096741
11.0848499250412
11.82043065547943
11.939946022033691
12.046428952217102
12.047123947143554
12.11396876335144
12.209356126785279
12.093009557723999
11.896294584274292
11.82336681842804
11.844568996429443
11.7605992269516
11.571349573135375
11.438097596168518
11.35889301776886
11.28715615272522
11.226761841773987
11.058837985992431
10.834303421974182
10.885332159996032
10.9246599817276
10.923625316619873
10.913651514053345
10.878912987709045
10.92963397026062
11.01375020980835
11.058105726242065
11.022377638816833
10.921441731452942
10.830339517593384
10.792422065734863
10.806774816513062
10.929492807388305
11.21769980430603
11.479690651893616
11.401658086776733
11.341859340667725
11.306821360588074
11.229608454704284
11.098864102363587
10.986742029190063
11.044240565299988
11.152727451324463
11.177581558227539
11.16868101119995
11.163458333015441
11.143519706726075
11.114009804725647
11.086139016151428
10.930860419273376
10.374313082695007
9.665208468437195
9.587643542289733
9.530219531059265
9.584424209594726
9.557519960403443
9.48479627609253
9.62742525100708
9.8340021276474
9.9127347946167
9.939856553077698
10.039681200981141
10.113676042556763
10.045117063522339
9.917045435905457
9.836046214103698
9.811455116271972
9.803344326019287
9.690428867340088
9.509969682693482
9.37407286643982
9.346547265052795
9.386043996810914
9.323849682807923
9.193770599365234
9.10354338645935
9.059566912651063
9.055834927558898
9.106792049407959
9.185323085784912
9.291279802322387
9.431322793960572
9.490846438407898
9.316431379318237
9.02639554977417
8.97191517353058
8.93084972858429
8.96244010925293
9.060291166305541
9.173584985733033
9.28451979637146
9.309887290000916
9.343158097267152
9.44282289981842
9.501325149536132
9.484002528190613
9.460935816764831
9.44923891067505
9.440665683746339
9.51784550666809
9.771818289756775
9.990312476158142
9.824324836730957
9.735064463615418
9.502958416938782
9.560768818855285
9.660604467391968
9.572882194519043
9.355699844360352
9.233660244941712
9.22022416114807
9.177938075065613
9.161045279502869
9.300235352516175
9.498742365837098
9.551574540138244
9.412032356262207
9.218568949699401
9.19292112827301
9.327878155708312
9.534987959861756
9.742308754920959
9.857976584434509
9.93153335094452
9.980431461334229
9.98678593158722
10.012018971443176
10.132953433990478
10.288447432518005
10.413484802246094
10.533337049484253
10.650777587890625
10.856273908615112
11.389292039871215
12.075638465881347
12.269434266090393
12.451473188400268
12.532854084968568
12.45725070476532
12.342083368301392
12.11063238143921
11.921379718780518
11.817004051208496
11.756901216506957
11.716061186790466
11.67754400730133
11.644514374732971
11.649312901496888
11.668541331291198
11.566365790367126
11.235036544799804
10.895001544952393
10.945963406562806
11.0145840883255
11.327046003341675
11.370489196777344
11.328870220184326
11.404185633659363
11.568174495697022
11.664732432365417
11.688740091323853
11.761653900146484
11.878933172225953
11.92848729133606
11.889826979637146
11.976835646629333
12.500493559837341
13.202147407531738
13.304174785614014
13.511542649269105
13.517302899360656
13.37101535320282
13.338934168815612
13.279232683181762
13.277260417938232
13.408868389129639
13.575550866127013
13.683617954254151
13.871682500839233
14.148086881637573
14.16252640724182
13.794806289672852
13.368934354782105
12.690374150276185
11.952769083976746
11.77787606716156
11.752418212890625
11.86490656375885
11.965207905769349
11.919685010910035
11.976797828674316
12.055541343688965
12.068119435310363
12.068792839050293
12.093243980407715
12.089383335113526
12.069131646156311
12.087502727508545
12.14423912525177
12.242555060386657
12.358466091156005
12.36063099861145
12.301854381561279
12.130542607307435
11.888230409622192
11.770227179527282
11.75595938682556
11.762160301208496
11.695127387046814
11.545422797203065
11.398621921539307
11.302181882858276
11.206411657333375
11.102969737052918
11.07270570755005
10.99723738193512
10.544081606864928
9.945013909339904
9.981671042442322
9.887444734573364
9.901229739189148
10.022555117607117
10.060857696533203
10.121886863708497
10.098087196350098
9.989936695098876
9.873775701522828
9.745496816635132
9.481098775863648
9.07859338760376
8.840719075202943
8.96852765083313
9.178955497741699
9.432116932868958
9.501726717948914
9.395484056472778
9.433951983451843
9.247821202278137
9.11726881980896
9.177763032913209
9.238255577087402
9.306890549659729
9.406311502456665
9.428053154945374
9.369391212463379
9.356108198165893
9.407193465232849
9.457883243560792
9.474970016479492
9.43790223121643
9.377283840179443
9.436486687660217
9.580957832336425
9.833135786056518
10.082028937339782
10.14632248878479
10.125959234237671
10.114239587783814
10.168834271430969
10.293545122146606
10.414529247283935
10.506068725585937
10.616177282333375
10.70494589328766
10.68512689113617
10.727693762779236
11.177993011474609
11.802981486320496
11.859948949813843
11.831482467651368
11.78045431613922
11.637624621391296
11.659333605766296
11.734323992729188
11.81133038520813
11.79680606842041
11.683165683746338
11.552427816390992
11.469644722938538
11.477701835632324
11.583335366249084
11.697277274131775
11.683450765609741
11.539396529197694
11.48602023601532
11.533832745552063
11.293095932006835
11.309708819389343
11.543457727432251
11.737460408210755
11.82320481300354
11.809648666381836
11.784399161338806
11.814082942008973
11.888522582054138
11.963871779441833
12.000768203735351
11.947680773735046
11.918739104270935
12.260028982162476
12.847481360435486
12.920277633666991
13.100795760154725
13.041840214729309
12.93118685722351
13.040999794006348
13.094150986671448
13.070816669464111
13.015592322349548
12.945220379829406
12.889343504905701
12.837235240936279
12.751633868217468
12.677586522102356
12.696516528129578
12.684911069869996
12.347187066078186
11.82685519695282
11.716610789299011
11.583868470191955
11.526516318321228
11.601447248458863
11.510922117233276
11.46719871520996
11.528934383392334
11.644242191314698
11.775556135177613
11.897181572914123
11.96988280773163
11.973981986045837
11.888616852760315
11.767618808746338
11.796309223175049
11.97393189907074
12.008571581840515
11.93344994544983
11.988282833099365
11.931770944595337
11.80208616733551
11.625267744064331
11.572228660583496
11.610362577438355
11.576545705795288
11.480651841163635
11.459325408935547
11.522440586090088
11.568492193222045
11.59416160583496
11.55429973602295
11.145830254554749
10.498694291114807
10.439791226387024
10.35800573348999
10.492827687263489
10.591413159370422
10.433181076049804
10.396374592781067
10.52272485256195
10.641442527770996
10.642531399726868
10.56188395500183
10.465497660636903
10.365157904624938
10.247539925575257
10.136841039657593
10.090600485801696
10.10543647289276
10.067608528137207
9.893536701202393
9.88273726940155
9.796493334770203
9.615335450172424
9.538378081321717
9.526019740104676
9.478806519508362
9.397210693359375
9.334374575614929
9.299531598091125
9.239438600540161
9.121726183891296
9.067330632209778
9.129703636169433
9.09540114402771
8.912674579620361
8.915881776809693
9.135993556976318
9.263690729141235
9.373151721954345
9.402064580917358
9.487146296501159
9.547876262664795
9.517680721282959
9.476538858413697
9.494926056861878
9.513799991607666
9.43395215034485
9.281895937919616
9.213178195953368
9.426175541877747
10.05350504875183
10.723185091018676
10.720224609375
10.700790557861328
10.349332609176635
10.368062887191773
10.508280782699584
10.489365968704224
10.309404134750366
10.159665818214416
10.178127794265746
10.277947597503662
10.339226064682007
10.403467774391174
10.522922019958497
10.598374338150025
10.509709720611573
10.309725375175477
10.20805510044098
10.329244976043702
10.326758189201355
10.388718090057374
10.55374719619751
10.626057295799255
10.581114354133605
10.503608503341674
10.481106486320495
10.524640760421754
10.587015919685363
10.659248657226563
10.768530693054199
10.849011926651
10.976271238327026
11.474722743034363
12.146220741271973
12.221118054389954
12.24721113204956
12.251594934463501
12.222907562255859
12.290878748893737
12.18753948688507
12.000331840515138
11.885115756988526
11.8408784532547
11.778206472396851
11.70459916114807
11.716868152618408
11.798762125968933
11.789080972671508
11.489348425865174
10.814204301834106
10.166279530525207
10.148662633895874
9.98140902042389
10.078212819099427
9.957371459007263
9.882366094589234
9.917879939079285
9.988382172584533
10.096258244514466
10.243487000465393
10.42358829021454
10.62225018978119
10.758134818077087
10.764482321739196
10.776608457565308
11.023186411857605
11.379773111343384
11.448714232444763
11.430141115188599
11.379898371696472
11.330751914978027
11.212573075294495
11.068234086036682
10.985044846534729
11.035043439865113
11.016195878982543
10.862942490577698
10.723836693763733
10.683989124298096
10.685039043426514
10.693901405334472
10.575494370460511
10.038362312316895
9.330744915008545
9.25254768371582
9.270492339134217
9.315909414291381
9.332793459892272
9.189222311973571
9.207197422981261
9.353885741233826
9.50675759792328
9.6349112033844
9.743856496810913
9.821716470718384
9.86673674583435
9.902903819084168
9.94506637096405
10.016026101112367
10.142981038093566
10.233967218399048
10.147691068649292
10.076923322677612
10.011517419815064
10.04516007900238
10.020574898719788
9.929098472595214
9.824539165496827
9.702324380874634
9.573616919517518
9.427934222221374
9.220748629570007
9.009132809638977
8.909141249656678
8.851361570358277
8.61640895843506
8.286180033683777
8.244266147613525
8.32566216468811
8.488483076095582
8.64466420173645
8.803768677711487
8.951923637390136
9.084831070899963
9.15178840637207
9.278240098953248
9.452650995254517
9.580503787994385
9.707883358001709
9.898741068840026
10.044167699813842
10.124674544334411
10.363400087356567
10.661263933181763
10.512844977378846
10.453810601234435
10.288696990013122
10.288157167434692
10.332704977989197
10.212273941040038
10.048927292823791
9.938003911972046
9.839403238296509
9.728328194618225
9.633294320106506
9.585837545394897
9.610388073921204
9.700256543159485
9.759585361480713
9.673314733505249
9.528593573570252
9.570719785690308
9.712358536720275
9.925337862968444
9.963826498985291
9.927378702163697
9.924457335472107
9.984698796272278
10.093017544746399
10.185804176330567
10.23274097442627
10.271385192871094
10.316137056350708
10.374853129386901
10.645556135177612
11.41062421798706
12.28623450756073
12.395555052757263
12.603428320884705
12.535473165512085
12.5809526014328
12.680607991218567
12.684006371498107
12.69692319869995
12.71976270198822
12.649574003219605
12.490482835769653
12.31148446559906
12.105229244232177
11.893282427787781
11.814028601646424
11.857093238830567
11.70814715385437
11.354628138542175
11.34583475112915
11.28645667552948
11.38766158103943
11.306552510261536
11.177022061347962
11.32517728805542
11.641812043190003
11.864445843696593
11.970898308753966
12.134546008110046
12.369885234832763
12.490881032943726
12.407702536582947
12.29520884990692
12.406300382614136
12.64186815738678
12.5913236618042
12.776912002563476
12.820837821960449
12.617128205299377
12.565129346847534
12.551956720352173
12.602570924758911
12.696423263549805
12.716400971412659
12.63796558856964
12.556803669929504
12.569709377288818
12.688873686790465
12.800716133117676
12.641754612922668
11.979338297843933
11.223780488967895
11.20005169391632
11.0145667886734
11.067308359146118
11.020443210601806
10.938994092941284
10.890270295143127
10.758203983306885
10.654327044487
10.710363454818726
10.843180341720581
10.933341007232666
10.978962197303773
10.99017427444458
10.913602094650269
10.765576333999634
10.720405306816101
10.819842128753661
10.82231432914734
10.641371684074402
10.50566900730133
10.53814190864563
10.580542640686035
10.45129159927368
10.199919142723083
10.02345179080963
9.947824244499207
9.810131759643555
9.594431009292602
9.505595231056214
9.636295623779297
9.75840073108673
9.598999409675598
9.317852349281312
9.36950734615326
9.219015412330627
9.235420637130737
9.518993535041808
9.628105716705322
9.65277093410492
9.603816795349122
9.514317293167114
9.46137686252594
9.443004660606384
9.418784041404724
9.3968492603302
9.349252996444703
9.245561161041259
9.215748229026794
9.433143434524537
9.702110157012939
9.59597333908081
9.556065425872802
9.378434567451476
9.400157518386841
9.331245164871216
9.230784029960633
9.28718246936798
9.424375057220459
9.495557637214661
9.535433793067932
9.631685695648194
9.726651339530944
9.724381384849549
9.68475269317627
9.673416166305541
9.614397950172425
9.540313181877137
9.613977117538452
9.797202758789062
9.916097459793091
9.925792284011841
9.90029676437378
9.918323407173157
9.966120972633362
9.990201835632325
10.027954001426696
10.118551239967346
10.17881625175476
10.119635858535766
9.988553204536437
10.02479579925537
10.514877877235413
11.207225213050842
11.4202339220047
11.413164763450622
11.182469639778137
11.065324902534485
10.969884014129638
10.89167365550995
10.901600465774536
10.9817262506485
11.029327988624573
11.035050539970397
11.098858795166016
11.20864263534546
11.288189482688903
11.34590380191803
11.300498003959655
11.020992503166198
10.741759090423583
10.845462851524353
10.84692807674408
11.003594098091126
10.969733357429504
10.993008351325988
11.085957727432252
11.079569997787475
10.942000041007995
10.809846744537353
10.738489694595337
10.637570767402648
10.515327157974243
10.488036556243896
10.64261176109314
11.086447854042053
11.613555507659912
11.662238092422486
11.698450398445129
11.550734987258911
11.601349368095399
11.679993824958801
11.73719181060791
11.87877278804779
12.04772445678711
12.089740467071532
11.955922818183899
11.766776823997498
11.677948818206787
11.691518368721008
11.685133323669433
11.492684903144836
10.96681062221527
10.38780502796173
10.32534194469452
10.41141526222229
10.60314245223999
10.561545057296753
10.500609397888184
10.591474580764771
10.740746803283692
10.795466475486755
10.790588898658752
10.841136107444763
10.91620632171631
10.939406471252441
10.92190137386322
10.910100846290588
10.984184937477112
11.112277836799622
11.055699648857116
10.92146122455597
10.86703999042511
10.73216046333313
10.679766883850098
10.658611087799072
10.711276707649231
10.849685144424438
10.970270810127259
10.99214415550232
10.970939388275147
10.955328106880188
10.899175133705139
10.810458278656006
10.663858938217164
10.24045142173767
9.682266392707824
9.62143970489502
9.63533576965332
9.8229776096344
9.746419701576233
9.671343364715575
9.743892407417297
9.770056591033935
9.673244681358337
9.605426301956177
9.689265818595887
9.85723524093628
9.959852652549744
9.950360202789307
9.884850215911865
9.864292120933532
9.999351177215576
10.173254098892212
10.09221275806427
9.948092303276063
9.78865487575531
9.679866852760314
9.66118378162384
9.611235756874084
9.485592002868652
9.37508086681366
9.353996291160584
9.330278606414796
9.216472020149231
9.129250102043152
9.214186906814575
9.37625319480896
9.39173761844635
9.270380597114563
9.290932002067565
9.413334064483642
9.492878890037536
9.592500357627868
9.531143856048583
9.478598952293396
9.451701707839966
9.3719695520401
9.273312153816223
9.242081270217895
9.280124187469482
9.388612027168273
9.588119201660156
9.792686133384704
10.01145519733429
10.511867666244507
11.16532747745514
11.310207209587098
11.266956882476807
11.135144028663635
11.121587038040161
11.145064477920533
11.036330709457397
10.93669068813324
10.957556982040405
11.033441987037659
11.060710940361023
11.039957075119018
11.051268439292908
11.112860941886902
11.185294461250304
11.215684924125672
11.094954509735107
10.872697920799256
10.81680865764618
10.796962928771972
10.84735761165619
10.955491633415223
11.072003350257873
11.236452555656433
11.402399849891662
11.4621652841568
11.396755986213684
11.351247010231019
11.430470061302184
11.492229242324829
11.35475694656372
11.25453721523285
11.692590026855468
12.46250602722168
12.675203657150268
12.743998475074768
12.760425248146056
12.7574937582016
12.835555214881897
12.756392488479614
12.626419281959533
12.586442675590515
12.620882139205932
12.651993675231934
12.639482583999634
12.584441351890565
12.500273957252503
12.40919499874115
12.228659629821777
11.744315218925475
11.144316749572754
11.061869983673096
11.146406321525573
11.30369598865509
11.351834416389465
11.377423787117005
11.499792857170105
11.544814348220825
11.447332787513734
11.349965462684631
11.363731327056884
11.413174047470093
11.415487790107727
11.444249176979065
11.579055256843567
11.78561933517456
11.920954132080078
11.829054117202759
11.820126390457153
11.883879017829894
11.794392495155334
11.697843403816224
11.539710078239441
11.393165736198425
11.32784299850464
11.327491126060487
11.31346848487854
11.22271867275238
11.111936416625976
11.080833811759948
11.09234389781952
10.929330596923828
10.345033373832702
9.59862958431244
9.411335039138795
9.311091041564941
9.295766649246216
9.35691662311554
9.341412329673767
9.5231600856781
9.843685154914857
10.043573451042175
10.005541787147521
9.856831965446473
9.756659293174744
9.730157113075256
9.729131808280945
9.75722969532013
9.869148397445679
10.066031174659729
10.183043537139893
9.999006118774414
9.847690329551696
9.601194376945495
9.541882991790771
9.522729024887084
9.417533135414123
9.329313659667969
9.394141049385071
9.558986840248108
9.661969976425171
9.649520015716552
9.553874411582946
9.406374144554139
9.246010842323303
9.078397564888
8.960548734664917
9.038463983535767
9.034170870780946
8.99164222240448
9.185461597442627
9.466114525794984
9.759637479782105
9.870586295127868
9.799376902580262
9.744996919631959
9.839601645469665
10.00710214138031
10.087958421707153
10.086645636558533
10.1473060131073
10.412068428993225
10.989455509185792
11.602929792404176
11.687113761901855
11.73845860004425
11.657890777587891
11.600163717269897
11.582762007713319
11.45591341495514
11.263762521743775
11.154622898101806
11.198806390762329
11.316905479431153
11.38609079837799
11.362041301727295
11.30394238948822
11.274870414733886
11.213091907501221
11.0114683675766
10.820849027633667
10.958463859558105
11.09846800327301
11.29672339439392
11.28678041934967
11.301738200187684
11.470490393638611
11.61495201587677
11.569770588874817
11.414732894897462
11.348979058265686
11.43297200202942
11.565977973937988
11.662709422111512
11.860372953414917
12.445352067947388
13.157971682548522
13.260880460739136
13.478753390312194
13.616195178031921
13.500961065292358
13.227148623466492
12.882626729011536
12.76928927898407
12.876665287017822
13.007156262397766
13.066696434020995
13.083532266616821
13.113861131668092
13.174029746055602
13.243594579696655
13.155598158836364
12.645268087387086
11.998087668418885
11.917912883758545
11.902613549232482
11.970687394142152
12.018417887687683
12.086679124832154
12.207705340385438
12.252115511894226
12.242252659797668
12.266259727478028
12.291070466041566
12.276279225349427
12.28407738685608
12.330892000198364
12.34959882736206
12.378933568000793
12.459162092208862
12.405476655960083
12.342754554748534
12.141513657569885
12.042081408500671
12.081316552162171
12.02461308002472
11.894040699005126
11.864943323135376
11.96595552444458
12.054772739410401
11.999073433876038
11.841247978210449
11.698424415588379
11.591129837036133
11.362603092193604
10.730757756233215
9.934029092788697
9.76783839225769
9.611361589431763
9.613963890075684
9.774360990524292
9.906662573814392
10.005861964225769
9.946249470710754
9.827385420799255
9.753665418624879
9.6851878118515
9.59450370311737
9.500790519714355
9.388370552062987
9.227464141845703
9.09801215171814
9.129840211868286
9.184087038040161
9.023704481124877
8.821855502128601
8.813977069854737
8.903088054656983
8.883025956153869
8.793561244010926
8.76933376789093
8.794859943389893
8.765612678527832
8.695177164077759
8.673643026351929
8.705559825897216
8.757164063453674
8.829988126754762
8.872657942771912
8.85764982700348
8.936106843948364
8.957500305175781
9.127007393836974
9.31530032157898
9.424897146224975
9.505092811584472
9.525120439529418
9.469108471870422
9.38427670955658
9.34879563331604
9.387714486122132
9.430709090232849
9.445328679084778
9.478874416351319
9.633470530509948
10.073674964904786
10.598543362617493
10.648551392555238
10.676607599258423
10.4542760181427
10.493721051216125
10.489656047821045
10.390753378868103
10.384513263702393
10.478084425926209
10.532639803886413
10.511584162712097
10.487030477523804
10.494136490821838
10.518187942504882
10.607037749290466
10.758762216567993
10.798984637260437
10.718762741088867
10.740242156982422
10.83540738582611
10.87244903564453
10.905581002235413
11.022106275558471
11.137334809303283
11.18118037223816
11.206885886192321
11.286157975196838
11.391488790512085
11.451846675872803
11.462662692070007
11.441506233215332
11.508921732902527
11.95078122138977
12.595088944435119
12.714067025184631
12.936427307128906
12.957991795539856
12.756338744163513
12.60860456943512
12.414971990585327
12.300380511283874
12.306990451812744
12.328849029541015
12.266321244239807
12.147263827323913
12.121337966918945
12.244730672836305
12.35252007484436
12.219111733436584
11.778163061141967
11.398418769836425
11.570423340797424
11.651100687980652
11.857316422462464
11.784762897491454
11.793217678070068
11.981099305152894
12.16835566520691
12.227563042640686
12.210865240097046
12.223484601974487
12.278102917671204
12.345976057052612
12.424072351455688
12.514162864685058
12.648785762786865
12.767991366386413
12.67948335647583
12.791230435371398
12.78488374710083
12.656996479034424
12.438785128593445
12.168357257843018
11.989891309738159
11.906791076660156
11.824075837135315
11.7040026140213
11.583856592178345
11.502742094993591
11.471062507629394
11.475766882896423
11.331176958084107
10.73434389591217
9.995804643630981
9.945145840644836
9.847418522834777
9.84241225719452
9.917245697975158
9.926261630058288
10.115004954338074
10.318244876861572
10.364702005386352
10.335937433242798
10.361765913963318
10.428329567909241
10.409344663619995
10.245256023406982
10.095261573791504
10.164037127494812
10.366425652503967
10.345430946350097
10.024579796791077
9.895894708633422
9.684301328659057
9.624395580291749
9.562560868263244
9.499456329345703
9.44918541431427
9.37582215309143
9.249841561317444
9.108123440742492
9.01971713066101
8.966182990074158
8.870258498191834
8.69605685710907
8.446802744865417
8.253223748207093
8.335808553695678
8.271032319068908
8.343863506317138
8.486502614021301
8.620143847465515
8.793718338012695
8.970693330764771
9.072749128341675
9.064395260810851
9.04437162399292
9.12589551448822
9.273347373008727
9.389342684745788
9.469001231193543
9.618719863891602
9.93046543598175
10.179065165519715
9.986663398742676
9.93214068889618
9.687839941978455
9.753295197486878
9.835499091148376
9.751909484863281
9.588629794120788
9.468391122817993
9.435828070640564
9.47118130683899
9.51781376838684
9.594116744995118
9.762735810279846
9.937532777786254
9.923691844940185
9.723133177757264
9.672614140510559
9.944305920600891
10.073621463775634
10.252603225708008
10.251547708511353
10.302962684631348
10.361847686767579
10.344868640899659
10.378605647087097
10.586597862243652
10.847662243843079
10.968581352233887
10.971275792121887
11.014463176727295
11.252155685424805
11.827751169204712
12.512390956878662
12.689160680770874
12.852568187713622
12.938540954589843
12.756570816040039
12.623395762443543
12.459836654663086
12.346334056854248
12.3160249042511
12.33311541557312
12.354481315612793
12.364406728744507
12.336135482788086
12.241351671218872
12.128394136428833
11.986712574958801
11.675914740562439
11.352188835144043
11.442704820632935
11.43379626750946
11.641223163604737
11.558932662010193
11.509149465560913
11.650814237594604
11.842851920127869
11.954090151786804
11.965578842163087
11.919569692611695
11.861916508674621
11.77301606655121
11.6614275932312
11.689673771858216
12.014897408485412
12.395521745681762
12.302771363258362
12.25846031665802
12.109014344215392
12.124232211112975
12.230957193374634
12.112423558235168
11.91921236038208
11.845636267662048
11.805968308448792
11.690943112373352
11.561953535079956
11.490815420150756
11.418435373306274
11.264450178146362
10.960394649505615
10.388341693878173
9.760027489662171
9.648201088905335
9.532393140792847
9.50604365825653
9.773797254562378
9.98354028224945
10.17835053920746
10.2879128074646
10.349452171325684
10.434564824104308
10.49425802230835
10.44286434173584
10.3682532787323
10.41995587825775
10.523358101844787
10.545043911933899
10.554153280258179
10.586740207672118
10.493179898262024
10.332686867713928
10.131102557182311
10.10793863773346
10.108824148178101
9.981853170394897
9.830697593688965
9.80068440914154
9.871847376823425
9.94876536846161
9.976663999557495
9.969468321800232
9.971402063369752
9.920475149154663
9.664509310722352
9.362353930473327
9.482165260314941
9.52306914806366
9.717132215499879
9.787740812301635
9.699535994529723
9.774195175170899
9.984572849273682
10.128440060615539
10.158007516860962
10.15035002708435
10.151511435508729
10.192837190628051
10.31495837688446
10.476845483779908
10.607650895118713
10.745895776748657
10.864098834991456
10.790086569786071
10.703521499633789
10.50030071258545
10.282742738723755
10.067853879928588
9.920390625
9.84347339630127
9.758337101936341
9.678516030311584
9.664756422042847
9.700228958129882
9.692188510894775
9.569037799835206
9.40753481388092
9.33465385913849
9.332982964515686
9.372595281600953
9.538837256431579
9.743416662216186
10.000741729736328
10.085108227729798
10.080793857574463
10.167245888710022
10.338295564651489
10.440385389328004
10.417134652137756
10.361882934570312
10.414324707984925
10.588049788475036
10.686253409385682
10.679570741653443
10.963345813751221
11.546383385658265
11.702224078178405
11.599186778068542
11.479337000846863
11.256674165725707
11.177000675201416
11.065447430610657
10.956939744949342
10.918258004188537
10.925815014839172
10.919722447395324
10.932068390846252
11.002420077323913
11.02285924911499
10.914878764152526
10.744328603744506
10.529070081710815
10.32078552722931
10.303178153038026
10.31585328578949
10.487064518928527
10.690062818527222
10.838246145248412
10.885885224342346
10.887930793762207
10.901022262573242
10.922905230522156
10.961073651313782
11.006661710739136
11.037280731201172
11.072262191772461
11.249800791740418
11.810110607147216
12.548811450004578
12.758383288383484
12.778461856842041
12.665155606269836
12.591455874443055
12.601226325035094
12.536420655250549
12.403130931854248
12.25523494720459
12.175003595352173
12.198272433280945
12.277217936515807
12.343456602096557
12.341995005607606
12.3060280418396
12.261318717002869
11.964282331466675
11.395431461334228
11.165060405731202
11.128237981796264
11.128782510757446
11.298785395622254
11.430936679840087
11.68137149810791
11.94857310771942
12.118778853416442
12.159271612167359
12.10963713645935
12.010884356498718
11.861985635757446
11.755338172912598
11.862814440727234
12.157974166870117
12.378248019218445
12.361311402320862
12.244944248199463
12.19121693611145
11.998006253242492
11.750832252502441
11.614887561798096
11.561158618927003
11.446173000335694
11.344752082824707
11.356183924674987
11.372143635749817
11.306255116462708
11.246228747367859
11.2726735830307
11.20621687412262
10.717152938842773
10.028417620658875
9.877709798812866
9.894002165794372
10.015965237617493
10.089874296188354
10.079064955711365
10.126261467933654
10.17496636390686
10.180388951301575
10.153456292152406
10.088819155693054
9.975264353752136
9.818431034088135
9.65799835205078
9.56433611869812
9.562345142364501
9.652629556655883
9.770615286827088
9.708168950080871
9.661231408119201
9.448503322601319
9.424433279037476
9.353475580215454
9.074435610771179
8.756472144126892
8.609756693840026
8.658491468429565
8.782406749725341
8.87129069328308
8.942744784355163
9.01336938381195
8.969056701660156
8.760423631668091
8.560752639770508
8.57881621837616
8.800948657989501
9.033898363113403
9.293825678825378
9.446901359558105
9.475578060150147
9.503846836090087
9.634866790771484
9.75206603050232
9.736358804702759
9.672340893745423
9.710822520256043
9.865442051887513
10.013781795501709
10.198537850379944
10.664458546638489
11.203387508392334
11.195251097679138
11.251582283973693
11.15833655834198
11.017356300354004
10.924974532127381
10.821242752075195
10.811387887001038
10.87483470916748
10.920607175827026
10.978249473571777
11.103094930648803
11.218476486206054
11.237609882354736
11.213093948364257
11.201720457077027
11.13809199810028
11.067292113304138
11.203943576812744
11.263842062950134
11.386829934120179
11.30599594116211
11.317462334632873
11.523060159683228
11.659653720855713
11.555671935081483
11.363593153953552
11.275023770332336
11.295772976875305
11.347575306892395
11.399281539916991
11.544408097267151
12.003081851005554
12.625294513702393
12.753146934509278
12.790080819129944
12.697215580940247
12.689004316329957
12.854983792304992
12.891586241722107
12.805571112632752
12.738782024383545
12.779906134605408
12.864318566322327
12.855960230827332
12.711810808181763
12.481231002807617
12.238942775726319
11.95342966556549
11.468616433143616
10.989618301391602
11.052819247245788
11.020249485969543
11.13313660144806
11.317068939208985
11.496874685287475
11.696427526473999
11.727315611839295
11.619589943885803
11.564659576416016
11.554227600097656
11.453737349510194
11.324422316551209
11.349738492965699
11.532396674156189
11.735464358329773
11.836050667762755
11.714429726600647
11.56870346546173
11.507396636009217
11.403270831108093
11.38949089050293
11.277415356636048
11.078078446388245
10.993074822425843
11.112626194953918
11.31681496143341
11.462516946792602
11.495477781295776
11.415531449317932
11.26374195098877
11.020381746292115
10.517364869117737
9.912487502098083
9.808492155075074
9.716192126274109
9.701870541572571
9.68071789741516
9.57170597553253
9.54557647228241
9.557612805366515
9.564297213554383
9.432862224578857
9.205656032562256
9.196825704574586
9.15155433177948
9.251857619285584
9.31198525428772
9.363683924674987
9.693574833869935
10.228484354019166
10.573440437316895
10.725342812538146
11.001769843101501
11.300753536224365
11.267899174690246
11.016306524276734
10.89962495803833
10.895164380073547
10.831490683555604
10.774957098960876
10.802928767204286
10.812196378707887
10.708695120811463
10.51102168560028
10.265859794616699
10.08480387210846
10.111991124153137
10.09365345954895
10.022819862365722
10.023287134170532
9.987387924194335
9.970031657218932
9.968162112236023
9.897429995536804
9.668869643211364
9.513356385231019
9.37037082195282
9.272026495933533
9.292092776298523
9.520561990737916
10.239002842903137
11.63381706237793
13.052416081428527
13.455152606964111
13.668538002967834
13.93628315448761
13.702911343574524
13.614988584518432
13.576407527923584
13.644225192070007
13.743393559455871
13.820023708343506
13.789066061973571
13.59550458908081
13.595715727806091
13.633669052124024
13.711320486068725
13.657957572937011
13.182539954185486
12.464603805541993
12.002888407707214
11.777150692939758
11.375152201652527
10.89899115562439
10.805596766471863
11.068926768302918
11.321881470680237
11.459769201278686
11.56565538406372
11.667318334579468
11.775803227424621
11.898944144248963
12.015307083129883
12.257035202980042
12.912399201393127
13.704218163490296
13.866916670799256
14.117405338287353
14.300945520401001
14.399917526245117
14.472839541435242
14.428804726600648
14.417109880447388
14.546449289321899
14.77795376777649
14.84195155620575
14.91272912979126
15.051056699752808
15.146775312423706
15.029404740333558
14.394249153137206
13.073760094642639
11.72237223625183
11.37308346748352
11.211347122192382
10.981455388069152
11.19347089290619
11.238598227500916
11.33406985282898
11.411956362724304
11.385367789268493
11.312969155311585
11.347712988853454
11.47034044265747
11.610578489303588
11.583391079902649
11.539295988082886
11.706830577850342
11.977853765487671
11.96026505947113
12.023002762794494
12.017675971984863
11.938460464477538
12.016587581634521
12.033606948852539
11.91557147026062
11.743946633338929
11.658012409210205
11.68233865737915
11.717307715415954
11.74292818069458
11.797022423744203
11.803486938476562
11.557026815414428
10.863917760848999
10.063668117523193
9.91784387588501
9.783861236572266
9.758190855979919
9.888278937339782
10.029176378250122
10.267464399337769
10.418496742248536
10.398876938819885
10.318891077041625
10.233700075149535
10.09668912410736
9.91761600971222
9.765062413215638
9.686522679328919
9.71235390663147
9.800710678100586
9.774739356040955
9.517644429206848
9.382433605194091
9.219483237266541
9.205007953643799
9.17471309185028
9.094499702453612
9.061806325912476
9.13397081375122
9.267195496559143
9.334532451629638
9.273971543312072
9.217990913391112
9.263931059837342
9.276484127044677
9.124706702232361
8.97302191734314
9.106768679618835
9.035810627937316
8.983043451309204
9.116299562454223
9.182897100448608
9.213452496528625
9.221393480300904
9.271367206573487
9.341510367393493
9.375391144752502
9.388046441078187
9.38053454875946
9.348566880226135
9.3365003490448
9.444658823013306
9.788537368774413
10.167572946548463
10.164230036735535
10.105406885147096
9.924009428024291
9.808500871658325
9.615747261047364
9.413568835258484
9.37057870388031
9.427159285545349
9.423827781677247
9.411537375450134
9.513100171089173
9.669254879951477
9.796410984992981
9.892886056900025
9.903965315818787
9.821046423912048
9.831764740943909
10.084458022117614
10.235475096702576
10.427159700393677
10.484225449562073
10.55108470439911
10.613670139312744
10.60841525554657
10.593029870986939
10.634674711227417
10.736636867523194
10.860323657989502
10.929538207054138
10.932097373008729
11.079364395141601
11.644085626602173
12.303998413085937
12.324862151145934
12.546195492744445
12.59917242050171
12.642222142219543
12.622350597381592
12.474833278656005
12.393912057876587
12.375120396614074
12.323525586128234
12.25265169620514
12.19531904220581
12.13509225845337
12.067553434371948
12.050576887130738
12.031776833534241
11.785219979286193
11.435847244262696
11.444069194793702
11.489329018592834
11.566340527534486
11.450931148529053
11.402411394119262
11.562534875869751
11.78549012184143
11.901525635719299
11.928938393592835
11.954133224487304
11.996520957946778
12.024693546295167
11.974487333297729
11.89536434173584
11.996642093658448
12.215455341339112
12.171839528083801
11.998402209281922
11.792841501235962
11.701040387153625
11.638747324943543
11.501008672714233
11.364190888404845
11.279386639595032
11.208626928329467
11.179185247421264
11.263535208702088
11.408573269844055
11.477184529304504
11.448172707557678
11.289474530220032
10.779316301345824
10.119244232177735
10.05714481830597
9.87155098438263
9.871735763549804
9.769697303771972
9.706178402900695
9.896433100700378
10.055697031021118
10.03771604537964
10.000169954299928
10.010825238227845
9.956897482872009
9.82093032360077
9.725613765716552
9.722147111892701
9.780512981414795
9.866002988815307
9.858492646217346
9.68933171749115
9.553931655883789
9.654188003540039
9.908335218429565
10.077002830505371
9.992658214569092
9.714769725799561
9.480752902030945
9.409830002784728
9.403783402442933
9.360925316810608
9.290807466506958
9.248859996795654
9.229597206115722
9.117896819114685
8.939465618133545
8.974898352622986
9.125406446456909
9.330516982078553
9.356064023971557
9.252905588150025
9.285828828811646
9.505822858810426
9.690639925003051
9.641179251670838
9.42417796611786
9.227600483894348
9.12836229801178
9.0976482629776
9.083366084098817
9.104239149093628
9.296581583023071
9.582254166603088
9.566588039398193
9.55319324016571
9.454360799789429
9.470410032272339
9.491444120407104
9.389458861351013
9.316042175292969
9.29674677848816
9.200099868774414
9.090824980735778
9.165025186538696
9.372496047019958
9.50028027534485
9.527475733757019
9.516122922897338
9.420142946243287
9.328970026969909
9.427897963523865
9.610886344909668
9.65941215991974
9.6392538022995
9.726404595375062
9.896785497665405
10.024675302505493
10.122279877662658
10.279983773231507
10.43558126449585
10.451012682914733
10.376582474708558
10.374870090484619
10.567358646392822
11.087474575042725
11.711485109329224
11.797153563499451
11.825588297843932
11.734443893432617
11.720309467315674
11.754260911941529
11.638927898406983
11.388358268737793
11.185790758132935
11.148833408355713
11.186300973892212
11.21702151298523
11.237891454696655
11.254704966545106
11.277027587890625
11.270061340332031
11.104138445854186
10.883236532211304
11.013616361618041
11.17591950416565
11.424514670372009
11.503638415336608
11.4524303150177
11.434653940200805
11.467992939949035
11.53905876159668
11.607591381072998
11.630170588493348
11.609837670326232
11.600448808670045
11.63255126953125
11.73958381652832
12.079416298866272
12.573043518066406
12.711990661621094
12.774571681022644
12.66068841457367
12.599822478294373
12.568883566856384
12.380662684440614
12.147940859794616
12.028552732467652
11.9662774848938
11.818390226364135
11.594550294876099
11.429725933074952
11.39429304599762
11.396562061309815
11.197268319129943
10.596560230255127
9.941640672683716
9.92323676586151
9.924592962265015
9.966521720886231
10.006133852005005
10.147895393371583
10.455048561096191
10.787030954360961
11.018251991271972
11.153646545410156
11.262529363632202
11.301292815208434
11.248033261299133
11.182277674674987
11.17869279384613
11.230500531196594
11.263268513679504
11.158567872047424
10.926137866973876
10.740969448089599
10.51536310195923
10.291433186531068
10.220268239974976
10.315539660453796
10.414395732879639
10.41305679321289
10.421001353263854
10.498490104675293
10.553870897293091
10.516119403839111
10.418060255050658
10.270085859298707
9.935348377227783
9.502353601455688
9.405028610229492
9.28321496963501
9.319860186576843
9.393293890953064
9.437463703155517
9.526649951934814
9.66397276878357
9.81075605392456
9.887875971794129
9.933587412834168
10.06041211605072
10.21517789363861
10.267686152458191
10.29659418106079
10.511525893211365
10.888051919937134
11.073541283607483
10.843092656135559
10.658992252349854
10.56896113395691
10.602037234306335
10.475452761650086
10.24239110469818
10.076088528633118
9.97561670780182
9.893788323402404
9.868577313423156
9.896682171821594
9.907308955192565
9.918940153121948
9.959898076057435
9.930990710258484
9.810205006599427
9.804707293510438
9.987889928817749
10.123571214675904
10.254721450805665
10.418271293640137
10.539563775062561
10.53120439529419
10.39953724861145
10.270020060539245
10.21342038154602
10.172898654937745
10.077564196586609
9.983547077178955
9.975882034301758
10.10682765007019
10.507053508758545
10.996359839439393
11.052363348007201
11.221790528297424
11.118320016860961
11.177795009613037
11.271245918273927
11.398127403259277
11.59051302433014
11.747887973785401
11.818180160522461
11.782558851242065
11.597822408676148
11.466251482963562
11.339658460617066
11.15644923210144
10.862102909088135
10.400193033218384
10.201996335983276
10.391102499961853
10.425791053771972
10.459844102859497
10.646182036399841
11.170384755134583
11.885028805732727
12.464792113304139
12.82233733177185
13.089152112007142
13.241896104812621
13.148189768791198
12.924558300971984
12.790811476707459
12.882133512496948
13.3840137052536
14.079396018981933
14.224717264175416
14.274293742179871
14.138191566467285
14.150258474349975
14.246418142318726
14.123002004623412
13.915038180351257
13.817333869934082
13.78136351108551
13.75159505367279
13.708494968414307
13.611270928382874
13.500959610939026
13.395271773338317
13.10159478187561
12.531919288635255
12.021643409729004
12.19499231338501
12.486787848472595
13.119590773582459
13.56134241104126
14.011148500442506
14.338697156906129
14.092952537536622
14.096028623580933
14.383985886573791
14.641515073776246
14.794163956642151
14.762013654708863
14.745860042572021
14.895006294250487
15.406961326599122
16.304686379432678
16.866890664100648
16.734128341674804
17.018638339042663
17.183701877593993
17.099058842658998
17.386665248870848
17.73214632987976
18.058848361968995
18.446835551261902
18.78540807723999
19.038162503242493
19.387189078330994
19.725781636238096
19.66599699020386
19.614058094024656
19.13787579536438
18.341387000083923
18.052375059127808
17.834219646453857
17.78017713546753
17.572545218467713
17.309212141036987
17.242958931922914
17.21047191619873
17.212257499694825
17.25847616672516
17.206597332954406
17.14916151046753
17.188988795280455
17.31861433506012
17.451839089393616
17.677642521858214
17.950522198677064
18.01793493270874
17.636633954048158
17.26579641342163
16.618710269927977
16.120827465057374
15.57081217288971
15.049895915985108
14.980440196990967
14.695719184875488
14.281052923202514
14.027968425750732
14.030727186203002
14.250347599983215
14.491931896209717
14.516899280548095
14.134003491401673
13.436417641639709
12.919623556137084
13.030395579338073
12.864036779403687
12.787295761108398
12.667645297050477
11.948886470794678
11.074341521263122
10.28345057964325
9.582047085762024
8.989596943855286
8.482126893997192
8.037317547798157
7.8454345607757565
8.074398231506347
8.115544505119324
8.422551321983338
9.018569135665894
9.261530194282532
9.31038170337677
9.216188097000122
9.356726222038269
9.501966361999513
9.619494552612304
9.842863249778748
10.061047697067261
10.259709877967834
10.5204647397995
10.723775472640991
10.84063925743103
10.856531944274902
10.832354760169983
10.76650929927826
10.59532066822052
10.486297345161438
10.689928698539735
10.745578365325928
10.956175260543823
10.88614368915558
10.736715440750123
10.69885232448578
10.778704371452331
10.868064703941345
10.927186455726623
10.991228513717651
11.02128385066986
10.97765296459198
10.949840922355651
11.135205092430114
11.74841360092163
12.49101565361023
12.579923477172851
12.726113300323487
12.762611541748047
12.641297154426574
12.589763627052307
12.429180827140808
12.23750448703766
12.08140778541565
11.948799090385437
11.894001283645629
12.035962853431702
12.321117768287658
12.539766759872437
12.618596744537353
12.538159022331238
12.1891535282135
11.794648871421813
11.80027850151062
11.846509985923767
11.968787112236022
11.971758375167846
11.99928572177887
12.000632252693176
11.947807145118713
11.87338755607605
11.771209454536438
11.632003736495971
11.483026676177978
11.376884641647338
11.364948434829712
11.478911957740785
11.70768548488617
11.892074809074401
11.81619924068451
11.65818055152893
11.485720167160034
11.408899574279785
11.291129736900329
11.191542372703552
11.215877804756165
11.273557381629944
11.238560161590577
11.145547671318054
11.077914724349975
11.026904830932617
10.95760066986084
10.901401009559631
10.741552085876465
10.139967641830445
9.325367450714111
9.17347677230835
9.032719178199768
9.029744138717652
9.200027613639831
9.334151148796082
9.538425979614258
9.643988375663758
9.650377731323243
9.716705141067505
9.836732349395753
9.831832880973815
9.632036271095275
9.374533848762512
9.242923007011413
9.293673253059387
9.421402621269227
9.42295359134674
9.188913388252258
9.18119469165802
9.126179671287536
9.06769992351532
9.131414518356323
9.27871524810791
9.355863823890687
9.318287410736083
9.310770888328552
9.401230521202088
9.500238928794861
9.544641613960266
9.55912649154663
9.522577519416808
9.321009907722473
9.01064419746399
8.894149031639099
8.92676227092743
9.012358736991882
9.012847118377685
9.180078659057617
9.46331596851349
9.571867423057556
9.509994211196899
9.513390173912049
9.629527196884155
9.725613393783568
9.766772661209107
9.834123096466065
9.922558879852295
10.030519018173218
10.333347845077515
10.73191529750824
10.734940762519836
10.708424496650697
10.552489442825317
10.410552592277527
10.296901140213013
10.125450263023376
10.00215500831604
9.99358772277832
10.016911082267761
9.957496938705445
9.875533924102783
9.909259142875671
10.017350120544434
10.066491708755493
10.024714245796204
9.908775267601014
9.819815092086792
9.967727875709533
10.022075300216676
10.167399959564209
10.264582886695862
10.258491606712342
10.189702987670898
10.108756394386292
10.098412318229675
10.1657728099823
10.270411658287049
10.383047776222229
10.463923540115356
10.467010474205017
10.556168675422668
11.150064768791198
12.10015293598175
12.503078393936157
12.689074673652648
12.721735520362854
12.783773560523986
12.809123768806458
12.612232398986816
12.437517514228821
12.441815629005433
12.501566820144653
12.460203008651733
12.364869256019592
12.349168019294739
12.379286942481995
12.339160437583923
12.15932337284088
11.76726680278778
11.34686942577362
11.329983386993408
11.325857243537904
11.519523234367371
11.774480347633363
11.965234751701354
12.12059245109558
12.187278656959533
12.166424827575684
12.135060138702393
12.165853309631348
12.254727411270142
12.347098298072815
12.391170587539673
12.408094100952148
12.53169801235199
12.744486842155457
12.739993968009948
12.739636640548706
12.723129920959472
12.539239974021912
12.367832856178284
12.220790247917176
12.188327994346619
12.28202166557312
12.360266618728637
12.311333322525025
12.192449140548707
12.125760617256164
12.123057527542114
12.113035655021667
11.922113809585571
11.260138864517211
10.378008103370666
10.139692788124085
10.12032871246338
10.20141662120819
10.146293082237243
10.001867051124572
10.041214694976807
10.12047474861145
10.081574182510376
9.971825408935548
9.920540242195129
9.966389327049255
10.03008201599121
10.042523703575135
10.039076957702637
10.102015295028686
10.22635151386261
10.260217175483703
10.151762022972108
10.087781300544739
9.80532012462616
9.493010892868043
9.18643162727356
9.021604137420654
9.071206560134888
9.165645895004273
9.159672484397888
9.134010243415833
9.168712124824523
9.206529054641724
9.196923236846924
9.122031087875365
8.92760232925415
8.702063860893249
8.711722593307496
8.666761293411255
8.642598371505738
8.83189067363739
8.967425961494445
9.033806629180908
9.065337061882019
9.078365745544433
9.090858325958251
9.077027068138122
8.98098054409027
8.852588696479797
8.816339879035949
8.865440225601196
8.990054636001586
9.352560048103333
9.805062947273255
9.811259717941285
9.808492197990418
9.760839114189148
9.64091157913208
9.689358959197998
9.70925142288208
9.695470781326295
9.699928412437439
9.74827944278717
9.826347651481628
9.884726552963256
9.91808440208435
9.970087494850159
10.040913805961608
10.049771857261657
9.939685530662537
9.881080451011657
10.053602075576782
10.241862516403199
10.499255084991455
10.599751172065735
10.726402897834777
10.88447380065918
10.891516890525818
10.786960625648499
10.752285861968994
10.757299857139587
10.668101649284363
10.538455338478089
10.50655469417572
10.69709026813507
11.257850613594055
11.888933491706847
11.910278887748719
12.201684832572937
12.264471597671509
12.261538391113282
12.329639539718627
12.241702160835267
12.076944246292115
11.968484954833984
11.94345326423645
12.013646430969239
12.182354745864869
12.353678016662597
12.417326598167419
12.413173546791077
12.351265177726745
12.036022481918335
11.58400599002838
11.527768344879151
11.456294083595276
11.466681089401245
11.60152440547943
11.535574307441712
11.447638554573059
11.467832970619202
11.595184164047241
11.691357192993165
11.671842579841615
11.576673412322998
11.440681014060974
11.27994239807129
11.239187526702882
11.560852599143981
12.104023694992065
12.280465888977051
12.22244309902191
12.005401377677918
11.85530664920807
11.835695099830627
11.72454080104828
11.542130794525146
11.462730116844178
11.534294261932374
11.614273567199707
11.63528859615326
11.711791048049927
11.908598141670227
12.142602353096008
12.184853830337524
11.735865378379822
11.06143943786621
10.935503902435302
10.52137170791626
10.313445153236389
10.200599102973937
10.309932055473327
10.805776147842407
11.262726740837097
11.348540081977845
11.22654954433441
11.186715650558472
11.209716062545777
11.124260463714599
10.939484124183656
10.779545664787292
10.72757414340973
10.791226420402527
10.7999259185791
10.807482223510743
10.819125804901123
10.632589592933655
10.650081505775452
10.72649627685547
10.787015748023986
10.733388032913208
10.54870376586914
10.414237408638
10.234937090873718
10.173143620491027
10.212614126205445
10.15574116706848
9.912295775413513
9.400599236488342
8.957217288017272
9.060179972648621
9.358863487243653
9.726902318000793
9.963073568344116
9.861340250968933
10.10149169445038
10.62847783088684
11.485144858360291
13.05520158290863
15.178006258010864
16.74163453578949
16.723208684921264
17.494474835395813
18.79726415157318
20.705285592079164
23.91161639690399
28.289157013893128
32.42769012928009
35.03322177886963
35.84851941108704
36.081149110794065
36.44547253608704
36.52758086681366
36.56353174686432
36.769996457099914
36.97289666652679
37.03569530487061
37.20343509674072
37.78987963199616
38.81873060703278
40.26844160079956
42.35366668701172
45.05640752792358
47.591682171821596
48.753611402511595
48.75569966316223
50.13545425415039
52.796809377670286
56.80559015750885
61.05085960388183
64.26789382934571
66.23123116970062
67.46212449073792
68.30395348548889
68.24271099090576
68.98121559143067
69.76956257343292
69.94273221492767
70.30089848041534
70.39460988521576
70.59400542259216
71.58079807758331
72.60643041610717
73.52308336257934
74.79158628463745
75.76240963459014
75.9626322555542
74.99070654392243
74.04595274448394
73.03295957565308
72.63730313301086
73.451718916893
72.90849858760834
71.36221176147461
69.17559516429901
66.10329048633575
61.907131357192995
57.894391794204715
56.14307403087616
56.55907117366791
57.65785964012146
58.33237156391144
58.56111993312836
58.08874581813812
58.056561384201046
58.29314617156982
58.62831102848053
58.86715434551239
58.81876405715943
58.40280863285065
57.276502366065976
55.36107682704925
53.24135507106781
51.126316542625425
50.01686601161957
50.175070714950564
49.336046719551085
46.96101430416107
43.254091329574585
39.618768887519835
37.13401391506195
35.52348390579223
34.19306980609894
33.555684928894046
34.137773146629335
34.47690842151642
35.00209056854248
35.70793341636658
35.93915560245514
36.46872278213501
36.39928542137146
35.91283339500427
36.77984679698944
37.957061610221864
38.425318636894225
38.79449530124664
40.06655108451843
42.139740772247315
42.75215370178223
42.20375202178955
41.35830725669861
40.62315542697907
40.072164115905764
40.064449853897095
40.06664381980896
39.763411331176755
39.79888382434845
40.413260774612425
40.599992928504946
40.31191569805145
39.72602462291717
39.1889813041687
39.13816279888153
39.66083034038544
39.4929939699173
38.95739634990692
38.44995017051697
37.86047797203064
37.472493257522586
37.65809734344482
38.61249839305878
39.60009548664093
39.55005764484405
39.23292413234711
39.14017230987549
38.96077719688415
38.5623859500885
38.106395902633665
37.762118310928344
37.25342397212982
36.62563242912292
36.218806824684144
36.29643913269043
36.09284792423248
35.46813286304474
34.371599111557
33.46546000003815
33.28563147068024
33.50409854888916
33.50128798484802
33.547700934410095
32.745631494522094
30.51052670955658
28.37031809806824
27.048624911308288
25.940816230773926
24.26504295349121
22.184673981666563
20.984466638565063
20.261645045280456
20.23423738002777
20.640426797866823
21.37195717334747
22.020460720062257
22.664407548904418
22.898065719604492
22.858565702438355
22.955732975006104
23.144799394607546
23.79139340877533
25.222666873931885
27.145255675315855
28.682715196609497
29.200358705520628
29.008915514945983
29.21034435749054
29.292710843086244
29.417474932670594
29.370036368370055
28.84275903224945
27.808675570487978
26.57192864894867
25.921411747932435
26.379781560897825
27.267543344497682
27.676822481155394
27.596731452941896
27.796241102218627
28.159238052368163
28.540920162200926
28.83753842830658
29.20179196357727
29.675209789276124
30.657204637527467
31.782530703544616
32.35193621635437
32.153063955307005
31.44953356742859
31.03815574645996
31.202457103729248
31.752806763648987
32.14295115470886
32.14582085609436
32.32989602565765
32.6917940568924
33.56115040779114
35.014573345184324
36.583478136062624
37.180793414115904
37.33639847755432
36.96404340267181
36.50664731502533
35.95163385868072
35.14899816989899
34.96698324680328
35.35340201854706
35.0447091293335
34.921574716567996
34.450321345329286
33.3896727848053
31.686318221092225
29.276699895858766
26.982445778846742
26.09012375831604
26.095006585121155
25.923627967834474
25.948350858688354
26.074746832847595
26.24990291595459
26.482321395874024
26.75912304878235
27.161633768081664
27.46514027118683
27.283822317123413
26.907588410377503
26.86685339450836
27.130076212882997
27.0587119102478
26.556741189956664
26.056595582962036
25.719538149833678
25.382034287452697
24.86691837310791
23.84016800403595
22.919337062835694
22.25948992729187
22.376531434059142
23.05313085079193
23.1710080575943
22.557073311805723
21.85035398006439
21.63798318862915
21.65830484867096
21.24680871486664
20.594971580505373
19.444660062789918
17.813488564491273
16.35197470664978
15.64815058708191
15.600635294914246
15.655279784202575
15.68613907814026
15.83303713798523
16.019302377700807
15.427650156021118
14.731087336540222
14.851531558036804
14.314337124824524
13.71643361568451
13.27245813369751
12.84735761165619
12.667886519432068
12.864954681396485
13.04996434688568
13.44494788646698
13.792094960212708
13.908829326629638
13.808319487571715
13.438530473709106
12.895858998298644
12.43088854789734
11.991665563583375
11.78631447315216
11.456951060295104
10.862225184440613
10.409862051010132
10.058508248329163
10.065401759147644
10.339142689704895
10.49458038330078
10.55482180595398
10.687027444839478
10.791094822883606
11.035617694854736
11.107946729660034
11.293201127052306
11.105022745132446
10.609942932128906
10.27079869747162
10.26003722667694
10.415816516876221
10.527766089439393
10.49435200214386
10.457176871299744
10.323980135917664
10.280034890174866
10.309395165443421
10.362046842575074
10.413477010726929
10.528822560310363
10.70319312095642
10.753238492012024
10.61275215625763
10.588627338409424
11.039019045829773
11.553105292320252
11.47941478252411
11.620203075408936
11.728625888824462
11.644356055259705
11.547162718772888
11.354901914596558
11.15263617515564
10.902083458900451
10.636346287727356
10.463056392669678
10.35741946697235
10.366003136634827
10.709320969581604
11.244315338134765
11.555850553512574
11.717667927742005
11.639199042320252
11.668550872802735
11.884778909683227
11.957021164894105
12.122919683456422
12.174381942749024
12.057178473472595
11.88484194278717
11.852424736022948
11.95152446269989
12.003797082901
11.908979387283326
11.744159250259399
11.632399668693543
11.78657027244568
12.523852458000183
13.490417022705078
13.6685187292099
13.240130252838135
12.89601095199585
12.968342046737671
13.089822192192077
13.061689248085022
12.85307955265045
12.711685638427735
12.6865816116333
12.645925040245055
12.484722480773925
12.23591076374054
12.010337924957275
11.885671534538268
11.768647956848145
11.44064429283142
11.0930277967453
11.260929827690125
11.071196455955505
10.971794118881226
11.203370018005371
11.477680015563966
11.778458170890808
11.975919790267945
12.067517619132996
12.085935530662537
12.10609712600708
12.246817688941956
12.421083374023437
12.397743124961853
12.285400848388672
12.455082054138183
12.80832224369049
12.771803855895996
12.889106450080872
13.082835054397583
13.175460033416748
13.17077244758606
13.08879849910736
12.949336476325989
13.027487869262695
13.1878999376297
13.285175952911377
13.315325775146484
13.334615387916564
13.416917185783387
13.57776454925537
13.561620087623597
12.953951683044433
11.999945840835572
11.569603056907654
11.565113587379455
11.65916160106659
11.701976866722108
11.753890080451965
11.93701235294342
12.10860622406006
12.198533368110656
12.25404200077057
12.30118800163269
12.359560766220092
12.463765501976013
12.627547626495362
12.813576951026917
12.969121146202088
13.078547458648682
13.064443011283874
12.83686312198639
12.708414711952209
12.57119842529297
12.388869199752808
12.089624090194702
11.806074080467225
11.756437559127807
11.744699792861939
11.621878328323364
11.463632593154907
11.339910321235656
11.22966814517975
11.078345623016357
10.775154285430908
10.272000308036803
9.888790287971496
10.100461540222168
10.14761842250824
10.026288547515868
9.942621593475343
9.918528971672059
10.004721741676331
10.259373354911805
10.323654980659486
10.171217279434204
9.949125499725342
9.812791199684144
9.823935480117798
9.903360633850097
9.918184394836425
9.915972123146057
10.142618236541749
10.530219202041627
10.631708569526673
10.630766324996948
10.451208872795105
10.46194965839386
10.510033478736878
10.435396876335144
10.25012155532837
10.067307205200196
9.93647849559784
9.903062291145325
9.866866521835327
9.732995109558106
9.561945962905884
9.464080429077148
9.41656165599823
9.334278264045714
9.303223338127136
9.486960911750794
9.629744563102722
9.792798948287963
9.904551429748535
10.060324335098267
10.252789368629456
10.288023405075073
10.303551106452941
10.426104397773743
10.546097230911254
10.529944887161255
10.4135471534729
10.318373103141784
10.470237712860108
11.116777143478394
11.856260409355164
11.81449951171875
11.794414019584655
11.761125130653381
11.755118212699891
11.883055257797242
11.879931960105896
11.853935475349425
11.915237078666687
12.014804005622864
12.095841641426086
12.170372557640075
12.223496055603027
12.180915575027466
12.040994277000427
11.807519435882568
11.378822388648986
10.952595949172974
10.968407263755799
11.036234192848205
11.100175671577453
10.92629497051239
10.815118975639344
10.910656938552856
11.141978616714477
11.365717883110046
11.519010062217712
11.57438057899475
11.669126076698303
11.88757140636444
12.117597026824951
12.329899120330811
12.723245019912719
13.215453896522522
13.319292855262756
13.320410294532776
13.36266481399536
13.24866656780243
13.071292190551757
12.907818441390992
12.739719758033752
12.598839001655579
12.571073293685913
12.660886311531067
12.74019154071808
12.758509402275086
12.812555689811706
12.909520511627198
12.80045244693756
12.220783562660218
11.522058057785035
11.486481313705445
11.342082867622375
11.2551078414917
11.243396778106689
11.118158664703369
11.055752301216126
10.990638723373413
10.911085319519042
10.899960985183716
10.95513433933258
10.95625410079956
10.852253613471985
10.744203662872314
10.72996931552887
10.820338683128357
10.952919907569886
10.970107321739198
10.822140822410583
10.69862877368927
10.693006234169006
10.678065190315246
10.602385268211364
10.532143006324768
10.472136955261231
10.390598549842835
10.312090001106263
10.245353417396545
10.11459114074707
9.873376441001891
9.60096293926239
9.311034789085388
8.835956020355225
8.268000988960265
8.106266317367554
8.123755593299865
8.176307730674743
8.334516062736512
8.446758456230164
8.551551613807678
8.73399917602539
8.88588493347168
8.8869233751297
8.776878781318665
8.687208967208862
8.653684220314027
8.60954843044281
8.539837927818299
8.541066455841065
8.71144476890564
8.919083666801452
8.87752965927124
8.69743655204773
8.565122256278991
8.510503034591675
8.492092838287354
8.439755692481995
8.389527416229248
8.370370001792908
8.321855850219727
8.22348494529724
8.19810872077942
8.33234121799469
8.513918409347534
8.573305358886719
8.483697695732117
8.372186908721924
8.380447115898132
8.491130304336547
8.61215320110321
8.80337459564209
9.099172129631043
9.293089771270752
9.238647627830506
9.068479957580566
8.937084164619446
8.870910301208497
8.920777192115784
9.15795781135559
9.519421782493591
9.854123716354371
10.226516819000244
10.953036198616028
11.846859097480774
12.120191531181336
12.142997388839722
11.971026630401612
11.91405439376831
11.986156125068664
11.938149085044861
11.840643858909607
11.821084308624268
11.835712070465087
11.814500527381897
11.776802744865417
11.736463551521302
11.704372372627258
11.751681399345397
11.849555401802062
11.779664072990418
11.551275868415832
11.538296456336974
11.742361345291137
11.928159441947937
12.02208740234375
12.134662647247314
12.325630803108215
12.442765545845031
12.433844885826112
12.440586323738097
12.542292547225951
12.612905550003052
12.523331842422486
12.346996221542359
12.388434000015259
12.913171081542968
13.544617586135864
13.574371008872985
13.591607613563538
13.499305520057678
13.445779709815978
13.329512453079223
13.150013108253479
13.06310483455658
13.1062779712677
13.239912853240966
13.394217200279236
13.422835602760316
13.237516689300538
12.98055905342102
12.834852199554444
12.645473613739014
12.049143490791321
11.28807478427887
11.125352210998535
11.076976284980773
11.095014677047729
11.020550503730774
10.92035102367401
10.979896779060363
11.08316686630249
11.142709164619445
11.192826318740845
11.216527872085571
11.181933736801147
11.163760523796082
11.19606373310089
11.199308400154115
11.152101154327392
11.094438285827637
10.991619830131532
10.790415897369385
10.566992955207825
10.452983226776123
10.394542117118835
10.218528060913085
9.95939664363861
9.81504864692688
9.805407161712646
9.75671486377716
9.594726848602296
9.447566928863525
9.440146460533143
9.517373557090758
9.445322995185853
9.035291185379029
8.61033329963684
8.736644892692565
8.788589816093445
8.897556943893433
8.869820284843446
8.803688135147095
8.879509820938111
9.077718482017517
9.254311184883118
9.310598707199096
9.29415650844574
9.29235092639923
9.339624614715577
9.376509079933166
9.291677150726319
9.159368009567261
9.212133984565735
9.364269037246704
9.269540772438049
9.19276219844818
9.045679187774658
9.108981037139893
9.182966375350953
9.147532353401184
9.121298685073853
9.184861369132996
9.231938786506653
9.210109210014343
9.20854630470276
9.214085597991943
9.09989996433258
8.877480835914612
8.707019171714784
8.70503927230835
8.840375871658326
8.997606329917907
9.108027520179748
9.179214315414429
9.271340579986573
9.44078356742859
9.656958837509155
9.845307817459107
9.990011749267579
10.137063002586364
10.326899809837341
10.528470649719239
10.662159357070923
10.703703899383544
10.786769466400147
11.121174511909485
11.504760155677795
11.37544439792633
11.417626533508301
11.508170647621155
11.34915615081787
11.300359563827515
11.212985172271729
11.15074562549591
11.180114831924438
11.261158423423767
11.347789025306701
11.482309412956237
11.667268829345703
11.807804322242736
11.915028371810912
12.03998522758484
12.071044249534607
12.018764853477478
12.11168622970581
12.086062045097352
12.09929398536682
11.952900333404541
11.898799786567688
12.002666172981263
12.045997676849366
11.930424628257752
11.827961030006408
11.851191029548644
11.907516269683837
11.980123291015625
12.186469497680664
12.614669070243835
13.331718230247498
14.064047808647155
14.201735200881958
14.313395748138428
14.354291567802429
14.419679737091064
14.510071477890016
14.40724946975708
14.215180583000183
13.995118379592896
13.720493502616883
13.457466402053832
13.296600108146668
13.217803721427918
13.12138256072998
12.986299200057983
12.833556437492371
12.529665780067443
12.173837418556213
12.26193654537201
12.140470333099366
11.974495239257813
12.14035611629486
12.326061940193176
12.564907479286195
12.67076220035553
12.619396090507507
12.50766513824463
12.37381084918976
12.197787499427795
11.973221335411072
11.77285300731659
11.711667475700379
11.825521907806397
11.936812090873719
11.774910793304443
11.736149768829346
11.769650554656982
11.870791702270507
12.094829068183898
12.211566400527953
12.187302770614624
12.13137089729309
12.123275923728944
12.162976760864257
12.203916158676147
12.194069447517395
12.094495840072632
11.87087550163269
11.444314103126526
10.700077676773072
9.913022203445434
9.732984976768494
9.615556206703186
9.58791344165802
9.552206835746766
9.519779586791993
9.657355480194092
9.810458855628967
9.966777057647706
10.207664756774902
10.435209512710571
10.536627173423767
10.585385346412659
10.70597288608551
10.873206024169923
10.97352195739746
10.98226725578308
10.84203592300415
10.564641680717468
10.57146759033203
10.444419288635254
10.473692722320557
10.335084829330444
10.09744746685028
9.976766233444215
9.943958826065064
9.909620666503907
9.889658355712891
9.908962507247924
9.988210411071778
10.121027927398682
10.193511881828307
10.084982352256775
9.915033340454102
9.984538755416871
10.00615890979767
10.109724316596985
10.219538369178771
10.118041801452637
9.989676513671874
9.943974556922912
9.929616856575013
9.878253030776978
9.804918451309204
9.762452578544616
9.771508092880248
9.841679801940918
10.018812198638916
10.389188771247865
11.004495878219604
11.575652050971986
11.651423316001893
11.601379718780517
11.520170383453369
11.594034023284912
11.475684628486633
11.21648775100708
11.061113185882569
11.013305978775024
10.886084961891175
10.68892134666443
10.53950047492981
10.420103769302369
10.289129242897033
10.20870822429657
10.174559783935546
10.103843698501587
10.112608757019043
10.287298340797424
10.291142172813416
10.590728182792663
10.781270251274108
11.0159991979599
11.217499175071715
11.246181058883668
11.154603214263917
11.059204525947571
10.989457969665528
10.922856421470643
10.829414978027344
10.714695205688477
10.770184426307678
11.297071747779846
12.012978439331055
12.114505672454834
12.257056102752685
12.130143566131592
12.274659724235535
12.476387639045715
12.48472490787506
12.471549363136292
12.612695631980896
12.80661427974701
12.871926794052124
12.828030681610107
12.815183458328248
12.834678354263305
12.777885212898255
12.543865265846252
12.051722207069396
11.539391503334045
11.47764567375183
11.571079401969909
11.717179346084595
11.633468050956726
11.666175107955933
11.917782139778136
12.210074729919434
12.366857714653015
12.44539083480835
12.547388343811035
12.644265294075012
12.665985646247863
12.629363918304444
12.669660849571228
12.925813302993774
13.222841291427612
13.175670347213746
13.112742986679077
13.095279603004455
12.804895086288452
12.494669923782348
12.182016110420227
11.982269229888916
11.958139877319336
12.076482973098756
12.274277639389037
12.479459662437439
12.640128922462463
12.755302748680116
12.833782234191894
12.721577110290527
12.163839707374573
11.483713917732238
11.457541456222534
11.344066147804261
11.403268146514893
11.132063636779785
10.829385886192322
10.758451499938964
10.72095908164978
10.579918675422668
10.429506711959839
10.375308141708373
10.443499617576599
10.585177159309387
10.686548538208008
10.709670763015747
10.80690975189209
11.075684661865234
11.283145570755005
11.191611523628234
11.009501719474793
10.935096864700318
10.936551866531373
10.830031871795654
10.594606437683105
10.302160181999206
10.030849533081055
9.832850441932678
9.710725502967835
9.644487028121949
9.60932879447937
9.601306943893432
9.571778821945191
9.394468631744385
9.17200767993927
9.285316972732543
9.462334661483764
9.55561083316803
9.742891755104065
9.820715022087096
9.937509689331055
10.093727388381957
10.233034806251526
10.272816681861878
10.157444534301758
9.963234763145447
9.809694046974181
9.713352174758912
9.626174874305725
9.62723093509674
9.885802860260009
10.197660961151122
10.094936847686768
10.104091482162476
10.042778611183167
10.15464481830597
10.375284333229065
10.493724660873413
10.576396985054016
10.716337876319885
10.84118369102478
10.864092998504638
10.784088444709777
10.64270432472229
10.528545150756836
10.463997383117675
10.27368155002594
9.872598609924317
9.5526797580719
9.551092767715454
9.61530348777771
9.61369833946228
9.671894469261169
9.879241704940796
10.092461504936217
10.291726961135865
10.582592720985412
10.894516825675964
11.074662256240845
11.1874130153656
11.36385112285614
11.506278672218322
11.63502736568451
12.105132217407226
12.71508270740509
12.609210619926452
12.751158094406128
12.809402651786804
12.664727334976197
12.61607093811035
12.479545702934265
12.375511951446533
12.32875373840332
12.3244549036026
12.456370701789856
12.774969625473023
13.144431648254395
13.357003564834594
13.372026224136352
13.259426703453064
12.994479146003723
12.745169506072997
12.870482120513916
12.78526626586914
12.72930844783783
12.598496551513671
12.478969631195069
12.441385612487792
12.324043922424316
12.098010511398316
11.968831286430358
12.030335187911987
12.13000823020935
12.172676253318787
12.190259566307068
12.245024108886719
12.473730969429017
12.813091397285461
12.917547640800477
12.857145643234253
12.81087857723236
12.94283519744873
12.971660499572755
12.779630451202392
12.569510846138
12.335340948104859
12.094873838424682
11.885524663925171
11.765732116699219
11.639378418922425
11.439600009918212
11.288920373916627
11.110196332931519
10.522372255325317
9.7524112033844
9.698145265579223
9.455498056411743
9.385635848045348
9.5689954662323
9.660554928779602
9.819496760368347
9.911823329925538
9.959060549736023
10.038611702919006
10.011245555877686
9.714794149398804
9.271824231147766
8.999555134773255
9.020570240020753
9.150609159469605
9.168943462371827
8.967680163383484
8.687327933311462
8.643461260795593
8.698997926712035
8.863505778312684
8.930822858810425
8.968407678604127
9.108796739578247
9.312701349258424
9.409498929977417
9.324023189544677
9.195454082489015
9.147173328399658
9.12915144443512
9.036626815795898
8.80796079158783
8.588086957931518
8.638838152885437
8.775849013328552
8.839142727851868
8.694746346473694
8.58691921710968
8.667907409667968
8.827794337272644
9.059637880325317
9.265129356384277
9.430026092529296
9.580513262748719
9.762049942016601
9.92060945034027
9.95881971359253
9.981878876686096
10.233285670280457
10.55937804698944
10.465567727088928
10.474292702674866
10.305997943878173
10.160390558242797
10.039416742324828
9.874313941001892
9.755118947029114
9.663035283088684
9.574167246818542
9.598681983947754
9.797194504737854
10.06076895236969
10.269537367820739
10.426829762458802
10.55746524810791
10.613432359695434
10.636669492721557
10.68034525871277
10.625018773078919
10.589650650024414
10.448702301979065
10.384355459213257
10.395852255821229
10.398056707382203
10.349674272537232
10.255873808860779
10.15561616897583
10.082410364151
10.089327411651611
10.229582600593567
10.596358723640442
11.330560369491577
12.095242838859559
12.19684766292572
12.282489404678344
12.367704396247865
12.382260980606079
12.377976598739624
12.292534351348877
12.190113372802735
12.019398641586303
11.783884773254394
11.597947421073913
11.492401900291442
11.421258101463318
11.420578680038453
11.54853069782257
11.657498111724854
11.50240276813507
11.297928519248963
11.579833035469056
11.756778168678284
12.002485203742982
12.113054819107056
12.197520999908447
12.41756042957306
12.61133551120758
12.625002102851868
12.470759053230285
12.254745178222656
12.064404067993165
11.8779554271698
11.634793047904969
11.454659757614136
11.598646063804626
11.951367993354797
11.992880854606629
12.169199042320251
12.325276489257812
12.38571002960205
12.494343070983886
12.484061808586121
12.43195173740387
12.422559518814086
12.455263328552245
12.525156502723695
12.664251503944397
12.842759680747985
12.892624735832214
12.737419114112853
12.396266465187074
11.719481825828552
10.912565059661866
10.69633903980255
10.575431084632873
10.544657697677613
10.579003262519837
10.61566653728485
10.7553382062912
10.89757049560547
11.038076934814454
11.232302050590516
11.440736083984374
11.556896243095398
11.55080457687378
11.471934943199157
11.355569605827332
11.246349039077758
11.167481813430786
10.970522928237916
10.769413356781007
10.492260265350343
10.155261497497559
10.087288517951965
9.987307572364807
9.736765608787536
9.535553221702576
9.52334547996521
9.620082840919494
9.75413465499878
9.968801822662353
10.2661496925354
10.512561020851136
10.50011152267456
10.11576720237732
9.683083891868591
9.780840029716492
9.849432339668274
9.883429198265075
9.892098455429077
9.7922158908844
9.828239822387696
9.902152509689332
9.836959705352783
9.628035087585449
9.440453443527222
9.390107989311218
9.405991821289062
9.398360981941224
9.38061324596405
9.46270802974701
9.800381007194519
10.227087979316712
10.318986167907715
10.2156094455719
10.132057499885558
10.165062603950501
10.089552526474
9.902398586273193
9.747203335762023
9.630949969291686
9.416445980072021
9.113537845611573
8.901589002609253
8.803259019851685
8.703357162475585
8.611176700592042
8.589499220848083
8.629176506996155
8.785021233558655
8.853502922058105
8.91988718509674
9.089791188240051
9.132236127853394
9.300866866111756
9.592912373542786
9.766935048103333
9.760783038139344
9.724798684120179
9.686472663879394
9.552581896781922
9.363219656944274
9.273365535736083
9.48464874267578
10.14188099861145
10.809748125076293
10.708301157951356
10.80099720954895
10.834121227264404
10.894888162612915
11.070549015998841
11.067998785972595
11.060924057960511
11.227398009300233
11.465982561111451
11.602433514595031
11.60125258922577
11.554734592437745
11.539099817276002
11.534942936897277
11.417699122428894
11.052295427322388
10.638638191223144
10.577536177635192
10.719747381210327
10.880545473098755
10.927643785476684
11.000584435462951
11.098661704063415
11.178170280456543
11.29499816417694
11.507323913574218
11.739902172088623
11.906540665626526
12.063601245880127
12.26045615196228
12.555097212791443
13.163402543067932
13.900481004714965
14.050754809379578
14.147884302139282
14.141214885711669
14.117101464271546
14.161300468444825
14.019842853546143
13.834934430122376
13.78708206653595
13.817186546325683
13.841851134300232
13.910910902023316
13.999779448509216
13.992998433113097
13.909283905029296
13.720524878501893
13.18968677520752
12.552545619010925
12.575676484107971
12.441179151535033
12.471616044044495
12.500821332931519
12.353331656455994
12.340829844474792
12.358983912467956
12.258051490783691
12.123903975486755
12.073846263885498
12.075447292327881
12.045584416389465
11.997131276130677
12.041486587524414
12.238683447837829
12.426270623207092
12.33149887084961
12.379618077278137
12.386102414131164
12.204192657470703
12.174384899139405
12.193011455535888
12.214903078079224
12.236527128219604
12.252140188217163
12.2353622341156
12.172029881477355
12.077681322097778
11.968998398780823
11.863503026962281
11.644575595855713
11.049804763793945
10.310739240646363
10.182768325805664
10.150683045387268
10.269124674797059
10.378421874046326
10.321563224792481
10.37713885307312
10.456181950569153
10.41105628490448
10.347762575149536
10.388814840316773
10.40740107536316
10.273969578742982
10.114950904846191
10.078829135894775
10.127827796936035
10.207492456436157
10.24438678741455
10.075481686592102
9.85847484588623
9.567597241401673
9.482947344779967
9.508910417556763
9.525042357444763
9.559035501480103
9.630858950614929
9.659454102516174
9.651080560684203
9.697316937446594
9.795218482017518
9.854572854042054
9.794941439628602
9.618121013641357
9.499816994667054
9.679616079330444
9.688979482650756
9.672606401443481
9.782500343322754
9.753461709022522
9.747136282920838
9.814061107635498
9.927988834381104
10.002040243148803
9.989175395965576
9.926635875701905
9.843174657821656
9.7566690826416
9.713554096221923
9.859538359642029
10.371885776519775
10.965906820297242
10.997834601402282
10.998908934593201
10.833128595352173
10.66978238105774
10.621393141746521
10.51839907169342
10.42154755115509
10.402338285446167
10.436126446723938
10.462309899330139
10.457140507698059
10.49385941028595
10.65082362651825
10.869380202293396
10.998922185897827
10.961259636878967
10.928328289985657
11.13301905632019
11.310491971969604
11.45644935131073
11.44403706550598
11.432231292724609
11.42680839061737
11.345279641151429
11.227688174247742
11.17606738090515
11.178363723754883
11.177312150001526
11.161165986061096
11.137801661491395
11.284827156066894
11.889571385383606
12.656857414245605
12.820302476882935
12.798802351951599
12.727074360847473
12.795007185935974
12.845025210380554
12.734618196487427
12.598153705596923
12.485165519714355
12.368640470504761
12.286511120796204
12.28340371131897
12.317113909721375
12.331363153457641
12.353648805618286
12.284645838737488
11.86528757572174
11.334725513458253
11.350497298240661
11.32594877243042
11.414406056404113
11.60040041923523
11.755756311416626
11.861147203445434
11.856763415336609
11.838547778129577
11.837483439445496
11.78597535610199
11.73633108139038
11.764785704612732
11.77174560546875
11.703950877189635
11.726575026512146
11.851633377075196
11.782508687973023
11.505194354057313
11.289046282768249
11.216389546394348
11.177592639923096
11.039923176765441
10.865132522583007
10.778609986305236
10.815172963142395
10.907162628173829
10.949943838119507
10.893289151191711
10.822015800476073
10.841388587951661
10.785638589859008
10.28494731426239
9.511724305152892
9.229929275512696
9.16618817806244
9.249953303337097
9.211446261405944
9.169373054504394
9.286796202659607
9.373003401756286
9.349317283630372
9.362436785697938
9.456103038787841
9.548439555168152
9.656012134552002
9.803016901016235
9.87207736492157
9.8290895986557
9.802344737052918
9.731281576156617
9.461545195579529
9.259213089942932
9.110008935928345
8.932437753677368
8.684426717758178
8.589424257278443
8.677160792350769
8.75445155620575
8.750961203575134
8.729996461868286
8.660012731552124
8.502170414924622
8.365712633132935
8.292087125778199
8.166851692199707
8.047810640335083
8.174811410903931
8.46974506855011
8.724869627952575
8.921753239631652
9.051781873703003
9.168147292137146
9.331358094215393
9.496570644378663
9.554385285377503
9.55445186138153
9.653938755989074
9.859068412780761
10.027463665008545
10.095279207229614
10.208892526626586
10.595608582496643
11.083575043678284
11.147733249664306
11.216795978546143
11.04971423149109
11.111496276855469
11.108315405845643
10.939564065933228
10.849672241210937
10.908496212959289
10.91221028327942
10.80765660762787
10.74438868045807
10.767383470535279
10.79817403793335
10.805011701583862
10.762720456123352
10.64475094795227
10.628404994010925
10.882044606208801
11.06579444885254
11.110655827522278
11.112635283470153
11.237040338516236
11.332922701835633
11.312698826789855
11.29735351085663
11.338758029937743
11.38748209953308
11.506434817314148
11.729068765640259
11.89464639186859
12.054594235420227
12.572316918373108
13.239109511375426
13.246060109138488
13.280318527221679
13.285025658607482
13.11729425907135
13.089316654205323
13.050623292922973
13.04969648361206
13.072423477172851
13.027045316696167
12.917496409416199
12.818218584060668
12.735120015144348
12.645392293930053
12.562189140319823
12.416714739799499
12.053525109291076
11.657517971992492
11.690995540618896
11.655256924629212
11.820263061523438
11.7557342338562
11.681990780830382
11.685720496177673
11.66639361858368
11.633027958869935
11.715068287849427
11.901669497489928
12.028880853652954
11.995896072387696
11.835730004310609
11.726209449768067
11.895655517578126
12.22852114200592
12.269516658782958
12.09763710975647
11.957318029403687
11.868892483711242
11.832639608383179
11.733368611335754
11.636249985694885
11.552385048866272
11.4424480342865
11.380463452339173
11.447368793487549
11.539806094169617
11.520983972549438
11.444104523658753
11.29057032585144
10.771669564247132
10.044060459136963
9.853706560134889
9.605314936637878
9.511088070869446
9.752877192497253
9.956111173629761
10.181910705566406
10.303530960083007
10.34616578578949
10.43882652759552
10.512224349975586
10.430997018814088
10.268992524147034
10.146436004638671
10.047777066230774
9.962937750816344
9.9305157995224
9.852281341552734
9.709927649497986
9.738782515525818
9.633724145889282
9.845435762405396
10.081374650001527
10.167216181755066
10.170312519073486
10.164840483665467
10.09064603328705
9.806983079910278
9.743116927146911
9.904877338409424
10.001859407424927
9.920419235229492
9.816255960464478
9.70862096786499
10.00444818019867
10.653704743385315
11.427767434120177
12.213923592567443
12.841836171150208
13.215146932601929
13.224063000679017
13.682235441207887
14.31240137577057
14.761687459945678
14.803413333892822
14.653346581459045
15.114865512847901
15.965946598052978
16.842744293212892
17.6539453125
18.181631712913514
18.077086992263794
18.395781531333924
18.51982768535614
18.292070932388306
18.044069871902465
17.811306562423706
17.73852460384369
17.944352326393126
18.129089846611024
18.138682079315185
18.039243397712706
17.896501107215883
17.866961183547975
18.01583508491516
18.011772480010986
17.854127564430236
17.652273082733153
17.909753136634826
18.163536581993103
18.3338703250885
18.17174600124359
18.679138498306273
19.768857493400574
20.77402561664581
21.42285313129425
22.10829782962799
23.135975279808044
23.840665559768677
24.123534579277038
24.436487913131714
24.75396881580353
24.505414638519287
24.687086510658265
25.207264890670775
25.542546620368956
25.098110823631288
24.816952447891236
25.473164768218993
26.53384412765503
27.246249594688415
26.722807927131655
26.178662490844726
25.815230741500855
25.92365472316742
26.353317079544066
26.368183012008668
25.967608523368835
24.950447702407835
24.628130202293395
25.13307957172394
26.79087950706482
28.196636853218077
28.982480001449584
28.980982518196107
29.736478095054625
30.549152245521544
30.868414287567138
30.426999974250794
30.360575757026673
30.788820099830627
31.386514525413514
31.96473970413208
32.32416367053985
32.36818912029266
32.448017301559446
32.58512353420257
32.87569375038147
33.07749977111816
33.38842626094818
33.60458480834961
33.70579226970673
33.810200481414796
33.72996325969696
33.921039576530454
34.76274899482727
35.94209777355194
36.74686698436737
36.60332459926605
36.48302134990692
37.197276496887206
38.219504289627075
39.677775373458864
40.83058753013611
41.98713623046875
43.34775208473206
44.699668984413144
44.845789451599124
43.545015892982484
42.33686412811279
42.267951140403746
43.342581024169924
44.272797899246214
44.69566834449768
44.49750123023987
45.20598402500153
46.33663655757904
47.167581949234005
48.01845518112182
48.17365296840668
47.73702822208404
46.39067882061005
44.816276869773866
44.366591010093686
44.61285638332367
44.80573760509491
46.26231838226318
47.75474896430969
48.09656627655029
48.565338234901425
48.82244089603424
48.60534644126892
48.53706174373627
49.29847443580628
50.74973155021667
52.00976665019989
52.64537713050842
53.01957307815552
53.285349307060244
53.247386755943296
53.099647274017336
53.131678261756896
53.33036904811859
53.811323986053466
54.105248060226444
53.759604229927064
52.77541764259338
51.53209848880768
50.965314736366274
51.45192816257477
51.319376826286316
50.750150260925295
50.26177334308624
49.80052004814148
48.39262161254883
46.00252142429352
44.30470715522766
43.786858086586
43.76522283554077
43.94243294239044
43.97237138271332
43.51084671974182
42.780356984138486
42.3658787727356
42.393025527000425
41.26883689403534
39.408327021598815
38.20120797157288
37.91781049728394
38.058857622146604
38.391924676895144
38.93998017311096
39.26990015506745
39.031919631958004
38.92686809539795
37.91253653049469
35.55446807861328
33.624712991714475
33.49736213684082
32.733374857902525
32.34594879150391
32.81942381381989
32.90271936416626
31.838411717414857
30.472091369628906
30.015370559692382
30.12151153087616
29.56163993358612
29.765734958648682
29.705335278511047
29.506119532585146
29.515081915855408
28.60814775466919
27.344213547706605
26.646301407814025
26.723321413993837
27.020340905189514
27.068543667793275
27.151787695884703
27.040039520263672
26.758117032051086
26.41065279006958
25.658452467918394
24.43047534942627
23.71213800907135
23.862816190719606
24.589846296310427
25.61216155052185
26.338370714187622
26.05716586589813
25.81794978618622
25.384967527389527
25.314326725006104
26.032649421691893
27.104508471488952
27.871188321113586
27.95569326877594
28.236855502128602
27.696748933792115
28.352940530776976
29.51172435283661
30.13304198741913
30.334247794151306
30.62251853466034
30.874939560890198
31.13133952140808
32.49081809043884
34.09863341331482
34.80795676708222
34.927111101150516
35.60841350078583
36.78086109638214
39.331655225753785
42.74549142360687
44.89658630371094
44.76425817966461
43.98816996097565
45.04090662002564
46.44550004959106
48.530498361587526
50.160073595046995
50.40261284828186
50.37206156730652
50.02008749961853
49.91555094718933
50.169148416519164
50.34047245025635
50.1466458940506
50.529276523590084
50.831332631111145
50.94391236782074
50.97984341621399
51.29162583827972
52.127669262886045
52.9249361371994
53.11574588298797
52.38036273956299
51.21480188369751
50.485446243286134
50.85178483486175
51.584542474746705
52.92723097801208
53.79030436992645
53.30909358024597
52.175940132141115
51.57125892162323
51.89798548221588
51.700047850608826
52.09536191463471
51.2368230342865
50.21060025215149
50.322920727729795
50.836158604621886
50.479094004631044
50.25863587379455
50.16239171028137
48.899558939933776
47.613479542732236
47.32336392879486
47.45383702278137
46.42565319061279
44.63183730125427
41.632934556007385
38.1137851190567
35.691759896278384
35.19740126132965
35.59242041110993
34.590193991661074
32.93919526576996
31.454305329322814
30.500193500518797
29.99854130268097
30.249295921325682
30.353764281272888
29.725851464271546
28.484594621658324
28.315342783927917
29.643318943977356
30.08424515247345
29.03852069377899
28.63855873584747
28.95753336429596
30.98600652217865
32.47139244556427
31.810844411849974
32.79806412220001
33.898628516197206
34.19218642234802
34.245968685150146
33.89736814498902
32.71371634960175
31.63117413043976
30.835168495178223
30.481297540664674
30.626389331817627
30.285525536537172
30.076927728652954
29.862656507492066
29.60440583705902
29.0201762008667
28.02224533557892
27.270149931907653
27.10817352771759
27.986500363349915
28.759830169677734
29.026047525405883
29.072280759811402
29.38357083797455
29.927044730186463
30.79138611316681
31.06426721572876
30.974793701171876
30.838856043815614
31.15911435127258
31.34492983818054
30.990194449424745
30.64681245326996
31.371375284194947
31.886657361984252
31.704189982414245
31.59873960018158
31.854945492744445
31.47694477558136
31.43108154296875
31.478088912963866
31.289046115875244
29.979420528411865
28.32491433620453
27.60006657600403
27.94316837310791
28.043017978668214
28.143438539505006
26.496181077957154
24.424265141487123
24.390780019760133
23.05137994289398
22.029975481033325
21.84446457386017
22.364826550483702
23.305278153419493
24.601037306785585
24.98912262916565
24.70739448070526
25.59060441493988
27.05683259010315
29.33591749191284
31.115480489730835
32.20551083087921
32.75979845523834
33.00623829364777
32.900429496765135
33.09179749965668
33.77068248748779
34.70611166477203
35.62383861541748
36.38833728790283
36.40990839004517
36.727078666687014
37.73834969520569
39.77571009159088
42.9152796792984
45.9341393327713
48.561933674812316
49.977549390792845
50.21078532218933
50.79727544784546
51.59448400497436
51.7007742023468
51.20991579055786
50.68402664661407
50.324598822593686
50.08333104133606
49.995315856933594
49.95252571582794
49.829673767089844
49.63103455066681
49.77977782249451
50.17452127456665
50.65833718299866
51.2439904499054
51.69369916915893
51.672527012825014
51.53128814220428
52.0187730550766
52.46592730998993
52.65364738941193
52.774468035697936
53.204198184013364
53.38149075031281
53.245754623413085
53.12235284328461
53.72313336849213
55.02567034721375
54.96362470149994
53.63418645858765
51.54264080047607
49.57102373600006
48.37783752441406
48.08806203842163
48.32972039699555
48.42419326782227
49.09960866451264
49.63911489963532
49.433182520866396
48.560655717849734
47.4167498588562
48.169900302886965
49.140588116645816
49.85798493862152
50.04414899349213
49.80020882606507
49.21071468830109
47.89437581062317
46.35225965976715
46.059885063171386
45.88694886684418
45.233556261062624
45.99585654735565
47.553808417320255
49.31697076797485
51.90328528881073
55.77062941551208
59.80323164463043
62.18577997207642
62.42662878036499
63.714919328689575
66.67392295837402
71.65819784641266
76.99204179286957
79.81956784248352
79.26004234313965
79.60736201763153
79.9364193534851
79.46334060192108
79.34140340805054
80.16198912620544
81.05967128276825
81.45170823097229
81.34565502166748
80.93910448074341
80.49953839302063
79.93952635765076
78.95782824039459
78.65571420192718
79.7349563884735
81.018032579422
81.98294443130493
83.02760578155518
84.38355360507965
85.87517005443573
86.42538958072663
86.2423563861847
86.27903141498565
85.62437846183776
85.74617661952972
88.90112409591674
92.97780116558074
95.78880711078644
96.61528986930847
95.94976577758788
94.30477509975434
92.2214063167572
91.49646039485931
92.81987015247346
94.6208595275879
96.55887784004211
99.39562309741974
101.68553403377533
103.49483288288117
104.9181166267395
105.0354780292511
103.073510222435
100.15994967937469
98.26400053024292
98.0158506155014
97.36533666610718
95.213664894104
90.87460401535034
85.91199215888977
83.21488344192505
83.80265085220337
83.60844702720642
83.60142713069916
84.22912357330323
84.10218958854675
83.13986255645752
81.98671298027038
81.40416944503784
81.3283573627472
81.41416538715363
81.60050170898438
81.90383060455322
82.17591161727906
81.65407700538636
80.47366822719574
79.01466775417327
78.5023969078064
78.3604678106308
77.705428814888
76.31710790157318
75.81955344200134
74.52600638866424
72.42395679950714
71.20799832344055
70.01617395877838
67.01755654811859
62.486745133399964
58.07563874721527
54.56077062606811
52.072346301078795
50.77083328723907
50.566552305221556
50.11538900375366
48.633232655525205
46.76794279575348
44.50526490211487
41.358446125984194
37.51679612636566
33.594462394714355
30.133654208183287
27.457720346450806
25.721567130088808
24.71924443244934
24.262349615097047
24.60374234676361
24.810861830711364
24.97592016220093
24.92827856063843
24.459528436660765
23.62491182804108
22.660088443756102
21.678345890045165
20.66230674266815
20.165767426490785
20.23792013168335
20.364151067733765
20.59715367794037
20.75057422161102
20.60396737098694
19.936722016334535
19.22941279888153
18.29024431705475
17.862412133216857
17.93910680294037
17.673187794685365
17.92042746067047
18.093182034492493
17.87349138736725
17.02218867301941
16.21811498641968
15.945141777992248
15.834651384353638
15.681022324562072
15.68326261997223
16.12383885383606
16.462550559043883
15.99765923023224
16.520607981681824
17.276082587242126
17.134130172729492
18.145763006210327
19.104693331718444
19.16807162284851
19.654200510978697
20.634129657745362
22.28974290370941
24.176381998062134
25.54048909664154
26.233638825416566
26.485927987098695
26.690444412231447
26.43838813304901
28.299601941108705
32.007544441223146
35.07647171974182
35.78716515541077
34.75987277030945
33.82952236652374
34.09878104686737
36.42389801025391
40.31297371387482
