0.010197411298868246
0.010151142316753976
0.01012860340764746
0.010112022762186826
0.010100725064403378
0.010111487443209626
0.010140054291114212
0.010161504566203803
0.010166341783478855
0.010163651818293146
0.010159132175613195
0.010160020615439863
0.010172581606311723
0.010183680937043391
0.010181788693298586
0.010175121198408306
0.010172134221647866
0.010175677802180871
0.010185544870910234
0.010202249365393072
0.010232828299049288
0.010265215580584481
0.010267596592311747
0.010242196113104
0.010223795399069787
0.010220169228850863
0.010209221366676503
0.010184970252448694
0.010167908010771498
0.010173929379670881
0.010192211930407211
0.010195599158760161
0.010172229898162187
0.010142276159022003
0.010133753152331337
0.01015463688527234
0.010198437372455373
0.010253857840434649
0.010299174090032465
0.010323597200331278
0.010348324322258122
0.010382511444040574
0.010403732957784087
0.010407637079479172
0.010411087303655222
0.010410600363393314
0.010385309282573871
0.010341093167080545
0.010321844061254524
0.010343020868604072
0.010363933771732264
0.010366678285063245
0.010373084597522392
0.010384992635808886
0.010400201789452694
0.010432533530984073
0.010468310714932158
0.010477982352022082
0.01046532207808923
0.010435975280124694
0.01042912881821394
0.010456996902357787
0.010420695614302531
0.01047803507070057
0.010557055133976973
0.010579004490864463
0.010550116749946027
0.010506533546722494
0.010457477711606772
0.010413621800253167
0.010398852146463468
0.010441234438912943
0.010600106493220664
0.010926974847679958
0.011333628923166543
0.011610975604853593
0.011647921960684472
0.011669264960801229
0.011763221407891251
0.011953508285805582
0.012288447105675004
0.012707796167815104
0.013059527509612963
0.013181453617871739
0.013249760727048851
0.013580175091628916
0.013947786436183378
0.01417256095330231
0.0142372712737415
0.014226917724008671
0.014220613237703218
0.014219624528777786
0.014221406923606992
0.014273788635618985
0.014362470275955275
0.014460497676045634
0.014430208931444213
0.014480632002232596
0.014660784882144071
0.014829547959961928
0.014962046483415179
0.015100822859094478
0.015240777331637218
0.01535943892027717
0.015451021444168872
0.015490494493860751
0.015464665350154973
0.015412389814155176
0.01537295026704669
0.015349991172552108
0.015311586356256157
0.015264820781885647
0.015257472298690117
0.0152993842063006
0.015345733683789149
0.015408667527372017
0.015530201789806597
0.01569354915525764
0.015799205058719963
0.015763374154339545
0.015776505839894525
0.015808499723207206
0.015802752941381185
0.015795427724951877
0.01576951221213676
0.01580213924695272
0.015792287813383155
0.01582192648376804
0.015902841315837576
0.015997676962870175
0.016088170182192697
0.016204682550160214
0.016382380707073027
0.016562695760512725
0.01665263819275424
0.016644228814402594
0.016586654631537384
0.01652460539364256
0.016485980676370672
0.016544824683805928
0.0166929194732802
0.01678858755971305
0.016777275585918686
0.0167822036560392
0.016789809917099774
0.016832426550099627
0.016785982266301288
0.01677536792238243
0.016759839801234192
0.01676999908639118
0.01690073617559392
0.017122240267926827
0.017297789831645788
0.017355228995438666
0.01735417930292897
0.017380029566702433
0.01741944785870146
0.017390287991729564
0.01735034310084302
0.017282528553041628
0.01729947235144209
0.017384641597163863
0.017470070163253696
0.017530487158801407
0.017610614827717655
0.017722675562254153
0.01775183850200847
0.0177612038445659
0.01794122818741016
0.018115446427254937
0.018178581988904624
0.01813713179377373
0.018179720753105356
0.01831185971328523
0.018437593347625805
0.018534477468347178
0.01865252252551727
0.0187834599748021
0.018825905004050583
0.01879836433217861
0.018858627863810398
0.0188669327320531
0.01880717606516555
0.01877817678323481
0.018831941515090874
0.01898120220634155
0.01916585837432649
0.01934690826688893
0.01953509832790587
0.019710020026541316
0.019795643276884222
0.019762044349918143
0.019812640244490465
0.019951236986671575
0.02017318683443591
0.02039479923725594
0.020440755537711085
0.02051085773855448
0.02072819554770831
0.02099083854292985
0.02117264074331615
0.021205619095708242
0.02119373163674027
0.021174430450191722
0.021152567628305405
0.021088057597517036
0.021035902241128498
0.021072065734188072
0.021166021632379853
0.021180134954629466
0.021168871644185856
0.02116529047372751
0.021148930890485643
0.021155019164434633
0.021197609560913405
0.02128011519671418
0.021394500610185788
0.02148922634834889
0.021511488559772262
0.021455478456919082
0.021399446898140013
0.02136294913536403
0.02152592212660238
0.02191288123081904
0.022363868816755714
0.022690774860675448
0.022822985471575522
0.022777180284028874
0.022888992233783937
0.023086875603767112
0.02334040651039686
0.023695250999880953
0.024123240614426323
0.024439673369633964
0.02451316414750181
0.02449506350560114
0.024491933525423518
0.024510364634916185
0.02461528527433984
0.024778380314819513
0.024893441564636305
0.02494108469109051
0.025007645714795218
0.02513149450183846
0.025265282792970536
0.02538310125877615
0.025504365214146674
0.025610740868141874
0.025649959293659777
0.02563924994377885
0.025647004031343387
0.0256776193814585
0.025702897277660668
0.025759572332608515
0.02588819849130232
0.02603740828228183
0.02614212204120122
0.026234151833923535
0.026378220866317862
0.02655425554898102
0.02657080814242363
0.02674301029648632
0.02714109037828166
0.02736771804455202
0.027395321930525823
0.027374930868390948
0.027374097647843883
0.02736617022426799
0.027345852929283865
0.027371037793927827
0.02744416677101981
0.02752755808935035
0.027503303412813693
0.027302002576179804
0.02704656388319563
0.026946817570133133
0.027085108147002757
0.027233463990851307
0.027294080485589803
0.027182903756038285
0.02680263301997911
0.026448383309179917
0.026141482102684677
0.025995998639264144
0.02587207224278245
0.025527762292767875
0.025247213699040004
0.025132501983898693
0.025061184799997135
0.025165273329475893
0.02533518721116707
0.025500772793311626
0.02565591241174843
0.025729426118778063
0.025677021340816283
0.025506181048112923
0.02555191027466208
0.025594139042659662
0.02557631613512058
0.025655283412779683
0.02587917796394322
0.02614796292502433
0.026345778387621976
0.026407915268209764
0.0263001566240564
0.026340159863466397
0.02654326904390473
0.026817478542798198
0.02706999291491229
0.027243064105859957
0.027308689741767013
0.027339285977068358
0.02750470479542855
0.027664657030254603
0.027750293342396617
0.02773730901069939
0.02763494057697244
0.0275024422473507
0.027428491256432607
0.027444087277399377
0.027395521866274065
0.02739654040313326
0.02744696114095859
0.027480348118697293
0.02746300382190384
0.027500842984882184
0.027688340792083183
0.02783253771311138
0.027853463491774165
0.027793877818621696
0.027735465543228203
0.027762648694915695
0.027898183221113867
0.028071892933221532
0.028161518695414996
0.028123210810590535
0.028301375705632383
0.02852846148016397
0.02874606364115607
0.028931543159415013
0.02905738091561943
0.02910312341817189
0.02915218545938842
0.029344264894607477
0.029616774354944937
0.02988835964642931
0.03022586529434193
0.03046114937053062
0.030622788378386757
0.03063275301014073
0.030494622529949993
0.030376041838899255
0.030336153035750612
0.030335153969353996
0.030310927634709516
0.030277684643515386
0.03023850216763094
0.03030334440234583
0.03033682901528664
0.030353700591949747
0.030326560752582735
0.030377660012454726
0.03058801068284083
0.030865524965338408
0.031036758142290635
0.031072728757862933
0.03109458101040218
0.031014926729840228
0.03093152441375423
0.03090795097290538
0.030959371794597245
0.031101997850928455
0.03113775164121762
0.030975665701553225
0.030966298357234336
0.031069755905773492
0.031120167082408442
0.03098415765212849
0.031013380698277616
0.031121242054505272
0.031044990426744336
0.031249627596116623
0.031635019437526356
0.031937974730390124
0.03198319133371115
0.03180268440337386
0.03169552395876963
0.031635347704286686
0.03155289576505311
0.0314265454292763
0.03132478253508452
0.03133506007958203
0.03133800350828096
0.031247144831577315
0.031029209340922535
0.030826473407796585
0.030834062263020313
0.03079203742381651
0.030562871943693608
0.030335291610099374
0.030306743551045658
0.030503104691160843
0.03070832467812579
0.030778703970136122
0.030833630841225385
0.03101418456644751
0.031083579505211675
0.031033920141053387
0.030976585922762753
0.030930399590288288
0.030896279140142723
0.030873700077063405
0.030885663699009455
0.030900269949925133
0.030925501039018855
0.03119575676159002
0.03149210198549554
0.03161863637738861
0.0316279804968508
0.03164872716879472
0.03163268378528301
0.031664027326623906
0.03154768366308417
0.031189230051240885
0.03073221167549491
0.030396741940639915
0.030231092183385044
0.030320863383240068
0.030435780107509344
0.030568220597924665
0.030594299578806387
0.030385128175257705
0.03000971555535216
0.02968474693130702
0.02968064905318897
0.029942583326483144
0.030310809872462416
0.030580936945043505
0.030543129107682036
0.0302934980095597
0.03017198720423039
0.030214683372178114
0.030315985253546385
0.030308639018330724
0.030168745167320595
0.030018448085756974
0.029984701077337375
0.030108702777069993
0.030322673583286816
0.03048022887785919
0.030452702411566862
0.030450705809053034
0.030534436799935064
0.03057454132591374
0.030406292472034694
0.030424331083195283
0.030680140682379717
0.03090887758182362
0.030904836752451956
0.030809509247192182
0.030879275588085876
0.03067147905472666
0.030401716236374342
0.030204706658259965
0.030110706629930064
0.030292144034756347
0.03053130108921323
0.03072309092618525
0.030808562008896843
0.03082161599129904
0.030851725373067893
0.03084923598798923
0.030883127417764625
0.030989604810019954
0.031064938521012664
0.030939447044511327
0.03089422810531687
0.030987311606877482
0.03100760673871264
0.030977826960734093
0.031041670132544823
0.031033000538591295
0.031123542956775056
0.03133445351908449
0.03152327931951732
0.03156870350125246
0.031464316562050954
0.03132423761533573
0.0313285890489351
0.03129968035616912
0.031204772961791603
0.031044892271165737
0.030890447344281712
0.03075733624282293
0.030788700333214365
0.03087620565202087
0.03083612431481015
0.030817606070777402
0.030766414058743977
0.030676647577201947
0.03048102115339134
0.030128033651271834
0.0298071824334329
0.02959894564235583
0.029660281455726363
0.029608123223297297
0.029405024959123692
0.02917166011466179
0.028985562162124553
0.028856666248757393
0.0288489595457213
0.028952219240600242
0.028942019050591624
0.028845576597959735
0.028737849729368464
0.028674317508121022
0.028621987514779904
0.02857780117949005
0.02853024878888391
0.028536914228461684
0.028522562762373128
0.028507302016369068
0.028454520883387888
0.028446508503402582
0.028457350726239384
0.02834490435954649
0.028157636647229083
0.02796390168252401
0.027841212179046126
0.02777029472461436
0.027816613844479435
0.027837349184555934
0.027707512571359984
0.027478042797301896
0.027282669368432835
0.027366326851188207
0.02736169429612346
0.027286774639505892
0.02705952223506756
0.026901171890203843
0.026742378021008335
0.02666162832698319
0.026686788870138117
0.026607285387581215
0.02643586458521895
0.026151324286474847
0.0258703915955266
0.02575038986164145
0.0257757786847651
0.025846299461554735
0.025805540207074956
0.025658373183687216
0.025564351375214754
0.025584728127578272
0.025669089218718
0.02569277542992495
0.025720989939873106
0.02576813398860395
0.02574790754413698
0.02580704443680588
0.02583126730751246
0.02578418950724881
0.02564684319193475
0.025331156136817298
0.02517452538537327
0.025172525886446237
0.025170911767636427
0.025167743836645967
0.02509552308532875
0.024982223020051608
0.024927833628025836
0.024950862440746277
0.024976324836025014
0.024993472908390685
0.02482472478877753
0.024750946128624492
0.024985688772867432
0.02547651047410909
0.02572316396748647
0.025720375453238374
0.02579001988575328
0.025760239706141875
0.02551295252458658
0.02518651425372809
0.02504666268301662
0.025105659236432983
0.025067378412350082
0.02489892692770809
0.02492385822988581
0.025035792774287982
0.025088958867127076
0.025085279725608416
0.025147122658090666
0.025438204407691956
0.025817236926523036
0.025927306702942587
0.026046540607349015
0.026421112957177684
0.026864892398007215
0.027253910980653016
0.027446456190082246
0.027279481959994883
0.027323968303971925
0.027594100390560924
0.027684967581299135
0.027516811434179545
0.027459348225966095
0.02771561438217759
0.028141072532744147
0.028570137232891285
0.02873317063495051
0.0287710662081372
0.028835414889035748
0.028855585267883725
0.028856436153873802
0.0285502727603307
0.028128419013810343
0.02800420947256498
0.02815153529692907
0.02836967725714203
0.028519413963076657
0.028490493514109403
0.02844088341575116
0.028446530445362442
0.02841781539726071
0.028558602634002454
0.028788756219437345
0.028752959699486384
0.028716063284082338
0.02873501628404483
0.028871218234999104
0.029009895751951262
0.029088345640338957
0.029708005458815023
0.030212163328542374
0.030145952469902114
0.02975166650605388
0.029407615175587126
0.029426752767176368
0.02959697546204552
0.029571858271374367
0.029727188072283754
0.029913786652614363
0.030019826703937724
0.02998115331400186
0.03019976226671133
0.030497660837718286
0.030686211021966302
0.030755369506659917
0.030764402984059417
0.03075005246559158
0.030692915660329164
0.030507876654155552
0.030431722257635557
0.03050900982285384
0.030299748193938283
0.030042133503011426
0.02995459510420915
0.029990986235789024
0.029885273188119753
0.02993448949942831
0.030056686907773838
0.03002657435077708
0.0301161615352612
0.0303994110430358
0.030374879752635024
0.030173992465715855
0.030172565192915498
0.030209799334406852
0.03016319367743563
0.03011913456430193
0.03010596466541756
0.030082588020595723
0.02997150971321389
0.029760057004750706
0.029750414607697166
0.029621458968613297
0.02941684126853943
0.029429400741355492
0.029538441245094874
0.02949348466878291
0.029640787450480276
0.029760126809123905
0.0295792856044136
0.0295488375145942
0.029639818043797277
0.029691464827628807
0.029719929037382825
0.02971636571106501
0.02967460731859319
0.02972794567467645
0.02991241563577205
0.0300678338680882
0.030224086127709597
0.030286481069633737
0.030203997192438693
0.03035410843207501
0.030307660428225063
0.03010693331656512
0.029966714337351732
0.02984700442000758
0.029911012820666657
0.029977915843483062
0.03016487655171659
0.03036154039320536
0.030314931953907946
0.030445579928928056
0.030644383393228055
0.030844349179533312
0.030980802103294992
0.030892508082906715
0.030844049215083942
0.03070418511983007
0.030799770949524827
0.03094099149107933
0.030941688176826573
0.03102440018730704
0.031080483932164497
0.031078179219039156
0.031120699318125843
0.03130346924473997
0.03158304996904917
0.03195648041495588
0.03220542263181415
0.03229080935998354
0.03242367978615221
0.032653173313010486
0.032822704716818404
0.0328834527079016
0.032963641014648604
0.033007418602937835
0.03300573281128891
0.03294755736191291
0.03281237136863638
0.03300653934071306
0.03332269977137912
0.03355954162601847
0.03361864186881576
0.03362469611922279
0.033553109740605574
0.03346372929867357
0.03339224755764007
0.03331027659703977
0.03317583656520583
0.033137094920966774
0.03326058253704105
0.033359551987377924
0.03329721573798452
0.03320867139787879
0.03325357244350016
0.033415279246401045
0.03358398089185357
0.03371938412077725
0.033734616115107204
0.03370827504026238
0.033789034496294335
0.03383364229172003
0.03389451767434366
0.03422092405264266
0.034522376195527615
0.03461571822699625
0.0346255369001301
0.034703008179203604
0.034902528304955924
0.034912492624134754
0.03478820891235955
0.03475366336060688
0.03476538114075083
0.03485408466018271
0.03495017491804901
0.03489536761830095
0.03502413296548184
0.035219646034529435
0.03540064533881378
0.03550470805959776
0.03537539514421951
0.034927000107127244
0.03441488413955085
0.034040070095798
0.03389868475904222
0.033809105550753886
0.03361636471701786
0.033503997048828754
0.03349195839662571
0.03348254809039645
0.03343116665026173
0.03349841972463764
0.033819499660748986
0.03394630491617136
0.03374689183547162
0.033960032757604494
0.034179447859642095
0.034239238448790274
0.03439831291791052
0.034319328888668676
0.03414205945911817
0.03398658858088311
0.03358146029000636
0.0331366163212806
0.03279240036034025
0.03269555836566724
0.0327977128472412
0.03253759258950595
0.032223704896168784
0.032060614846413954
0.03205804096185602
0.03216331505973358
0.03199736188631505
0.031494526650058106
0.031110012888675556
0.030959046637872235
0.030985782512580044
0.030910974047728815
0.030870382032007912
0.030792410554131493
0.030980924944160507
0.031281375591061075
0.03133057143655606
0.03122418864804786
0.031112038302235304
0.03099625866743736
0.031062064795405603
0.03108764286385849
0.031061790808453223
0.03113164715236053
0.03095640429179184
0.030823724062647672
0.031064743801834993
0.03112316956568975
0.030756177171133457
0.03071939959481824
0.030927473358460703
0.03103413349657785
0.030460504255024716
0.030023513255873695
0.02991944809036795
0.029980051839374938
0.030050953505560755
0.029888526471331715
0.029791980426525696
0.029794209888204932
0.029510198081261478
0.02928476475935895
0.029321606725570746
0.029474597480148076
0.029270189589005895
0.028896263117785564
0.0285149215743877
0.02834059886285104
0.028314199726446533
0.028405555934878066
0.028434541859314776
0.028502169051789678
0.028472808261285537
0.02837974536640104
0.028422384206787683
0.02830041888228152
0.02812858935096301
0.02803731430089101
0.028058100076159463
0.02812833865231369
0.028227294329553843
0.028148998452816158
0.0282190401252592
0.028338114160578697
0.028420633890200407
0.028348057693219745
0.02819719435123261
0.028154197156545706
0.028310478082858026
0.02829654063039925
0.028143145797075705
0.02802173408854287
0.028028903563390484
0.028127842026297003
0.028066962095326744
0.028126759155420587
0.028155961681040936
0.02799112548294943
0.027834634484606796
0.02791612399276346
0.027721158384811134
0.027595433025853707
0.027833870778558777
0.02783433128905017
0.027739747767336665
0.027794015908730218
0.02777911100885831
0.02794679632410407
0.028012516494491137
0.027848553269868716
0.02762957172235474
0.02748784086492378
0.02730109345749952
0.027131074237404393
0.02731612580420915
0.027499127947958186
0.02780627411964815
0.028007167417672462
0.028043512616422957
0.028277600376168267
0.028434586568619125
0.02857573416433297
0.028596098672715016
0.028369106911704876
0.028512864168151283
0.028637794646783732
0.028637692998163402
0.02858023905660957
0.02858793611289002
0.028699100759695284
0.028635913442121817
0.028697163076139988
0.028492935750982724
0.02828553235565778
0.02826208171318285
0.028227927007828838
0.028272724131820724
0.02837871912866831
0.028430243877810426
0.028496361149009317
0.028503754567936995
0.02822382091952022
0.028308576978161
0.028938947556307538
0.029224031221820043
0.0292169705464039
0.0294450990925543
0.0294250371446833
0.029374848261941224
0.029354582122177817
0.029461478536832147
0.029549840007675812
0.029625583213055508
0.029429155181278473
0.029107110248878597
0.02891365546849556
0.028994546741596423
0.029037355955224484
0.02930467817292083
0.02968325486057438
0.029934992220369168
0.030067671891883946
0.030197733053355477
0.03025802806543652
0.03014075755723752
0.0301002615573816
0.03036917337856721
0.030565354260033928
0.030398628460243344
0.0304489696433302
0.030523657459998504
0.030488222637213767
0.030484800474368967
0.03042394653952215
0.030461087228613907
0.030522866158280523
0.03034551537653897
0.030096539130900057
0.02986634500033688
0.029872771922964603
0.02984966019925196
0.02960875894059427
0.02940715644042939
0.02930806342395954
0.029254881172673778
0.029284102514502593
0.029557927478454076
0.029606346199871042
0.02945767176395748
0.029463965015020223
0.02915396691125352
0.028859672795515507
0.028666425412520766
0.028759753261110747
0.028999002995551564
0.02910156042431481
0.029136557701858693
0.029175953214289622
0.029373000921332278
0.02951697312237229
0.029491662250366063
0.029519545199582352
0.029563018557382748
0.029554112241603436
0.029535647461307234
0.029365683029755018
0.029049149614875206
0.028771145333885216
0.028778466688818297
0.028566239775391297
0.02853208257467486
0.028499440239975228
0.02802673003578093
0.0277069409674732
0.02777045269147493
0.027760268730926328
0.02771733423229307
0.02765097093011718
0.027562911193817853
0.027384426881326362
0.02734218473196961
0.027564699648064562
0.027739212844753638
0.027815855258377268
0.028295464088441805
0.028695755514199846
0.028802706148708238
0.02885998788056895
0.0289954630023567
0.029048717154655606
0.02910616166132968
0.029286049315705897
0.029341235007741488
0.02933365948323626
0.029110713016125375
0.028792120367870665
0.028689901774050668
0.028623889242298903
0.028552155275829137
0.02870953198231291
0.02882614053960424
0.028886085195699705
0.028851718529476784
0.028835262225475163
0.028820258248015308
0.02877141087548807
0.02853103299974464
0.028292891242308542
0.02840663358103484
0.02805365270061884
0.027598169383127244
0.02749109811964445
0.027503061306779274
0.027362902033491992
0.02736615917587187
0.027439523376524447
0.027434337550075724
0.027462978282128462
0.027453556561958976
0.027500280941021627
0.02760118530015461
0.027576155299902892
0.02742358349089045
0.02738032389432192
0.027396409818902612
0.0273300728504546
0.02736102575145196
0.02736652326246258
0.02735839232627768
0.02727875093347393
0.027408979299361817
0.027778516204562037
0.028025632760836743
0.028168214831966906
0.028516580915893427
0.02862221933377441
0.028810376346809788
0.029050317408400587
0.029161066829110495
0.029010521376039832
0.02891408486291766
0.029030708664795384
0.02884099029644858
0.02838859971438069
0.02830681637628004
0.02871434414642863
0.02902041880588513
0.029009331003180705
0.02894131900044158
0.02891114962811116
0.02907462538976688
0.029020983753725887
0.028984676469699478
0.02888368838233873
0.02909013042866718
0.02912246002815664
0.029055123842554167
0.029099050372024066
0.029041524474159815
0.02902449271758087
0.02907936445903033
0.02898017876490485
0.028722690233262255
0.02859417346015107
0.028566137443413027
0.02850064709840808
0.02850239630613942
0.02835353327798657
0.02826939303369727
0.028362061901716515
0.028611853715847246
0.0288025954173645
0.028821609737933615
0.028989698620280252
0.028837017340119928
0.028619086335529575
0.028399159726104697
0.028379021228756754
0.0284349719772581
0.028140869586495684
0.02812484614085406
0.02818211655074265
0.028000361051526854
0.028132220031693578
0.028119999484624715
0.027911337715922854
0.02771476551424712
0.027510660686530172
0.027312780438223855
0.02726945426198654
0.027318921633413994
0.02724670032504946
0.027266899537062274
0.027275781934149562
0.02732811864640098
0.02737659973092377
0.027434058926883154
0.027515080153825693
0.02753287604486104
0.027360553908511064
0.027035155954072253
0.026995657135848887
0.026721251251292415
0.026072217054897918
0.025653650484164247
0.02548514303343836
0.025162809277535416
0.025144889334915207
0.025097817174391822
0.024959701035986655
0.024641734607866964
0.024513825817848556
0.02472853095154278
0.02496889300935436
0.024893278502859176
0.024831116632558405
0.024667978235520423
0.02462424781639129
0.02444790389854461
0.02437175070052035
0.02448894474597182
0.02451812464336399
0.024387928121723235
0.024265410369844177
0.02425869026395958
0.024166683523799293
0.023811505210469475
0.023526341695687732
0.023568951947963795
0.023410253682523034
0.023202137173502706
0.023032684945501387
0.022945474097505213
0.022948884696234018
0.022836358160129747
0.022793929644976743
0.022879845497081986
0.022837393679074013
0.022996620058547704
0.02325576140312478
0.023486372695770114
0.023630275562172755
0.02362305030459538
0.023587658989126795
0.023581587175722233
0.023484789159265346
0.02326341474079527
0.023222388718277216
0.023369034858769736
0.02332580494112335
0.02350013614341151
0.023551866590278223
0.02354718485090416
0.023466126742423512
0.023424961846321823
0.023515813542180696
0.023465500360471195
0.02362666133674793
0.023730938957887703
0.023811221592477522
0.02396124453516677
0.024134462686488403
0.024347984924097545
0.024445526988129133
0.02449565768125467
0.024583492504316382
0.024614150017732754
0.024593177688657306
0.024676796118728816
0.024807313422788867
0.02485527993994765
0.024828193713910877
0.024799835973535665
0.024961008669342845
0.02511967607657425
0.025112293599522672
0.025291560103651137
0.025612966521875932
0.02580506247235462
0.025801280366722495
0.0257394560292596
0.025722502803546377
0.025758796484442428
0.025775873744860293
0.02538298918167129
0.025016843951307238
0.024934593115467578
0.02505469258292578
0.025045388286234812
0.025104307230212727
0.025033126928610726
0.024825309756561182
0.024828041131258943
0.024994912673719227
0.025050630338373594
0.025104211709694936
0.025083910282701252
0.02500821317138616
0.024994523718487472
0.024979928415268658
0.02493816162692383
0.024904696281300858
0.024957334192004056
0.02497386180679314
0.02509549374575727
0.025191738462308422
0.02536170384089928
0.0255658378865337
0.025576031121890993
0.025509395728004165
0.025488457353785635
0.0253516058268724
0.025324529718491248
0.025386142045026646
0.025296034137136304
0.0252437559858663
0.025358871529460883
0.025432510746177285
0.02541037456772756
0.02541202511114534
0.025321003317949363
0.025353469019173645
0.025333926517050714
0.025399696456152015
0.02570979645883199
0.025885285777039826
0.02586221003672108
0.025753583480836825
0.025631869555218144
0.025656364117166958
0.025654403347871266
0.025299925869330765
0.025095811920473353
0.02509629208012484
0.02475073280511424
0.02462358861754183
0.02433627450489439
0.023969322676421143
0.023831977971713058
0.023868989399052225
0.02392310723604169
0.02391714841884095
0.023943414412788116
0.02411040810868144
0.023974403205211273
0.02357314939494245
0.023358708053128795
0.02350828000169713
0.02342569944448769
0.02363957863650285
0.023677528144908137
0.02367998723872006
0.02368216223723721
0.02369505827489775
0.02354468377889134
0.023639862768468446
0.023839587148395368
0.02384522513137199
0.02388371879933402
0.023863530163653196
0.023815317999687977
0.0237793472741032
0.023822420289507137
0.023821564161917195
0.023905888199224137
0.0240883821278112
0.02415158733376302
0.024324260048451833
0.024679376268177292
0.02482015342975501
0.024727655852911992
0.02489051560871303
0.025125910604256205
0.02495321681781206
0.024934771929401904
0.024829950788407586
0.02476163176703267
0.02473153986269608
0.024695246835472064
0.02479203916504048
0.02456312115129549
0.024276081005227754
0.024309733324334958
0.024159880396327934
0.024061051044845953
0.02403301298210863
0.024051274231169373
0.024187529725022614
0.024233739080955274
0.024174220595159567
0.024155759672285056
0.02423172415001318
0.024215845609433018
0.02421314673963934
0.02415061555802822
0.02409502421680372
0.024043057467788457
0.023972167543251998
0.02389789402252063
0.023826596609433183
0.02390149857325014
0.023864865583600476
0.023827182907843962
0.0239151364605641
0.024085778981097972
0.02412687258620281
0.024155250227777286
0.024265679944073783
0.024351368813659065
0.024360536688473076
0.02444961696572136
0.02436269655590877
0.02425921629590448
0.024178173572290688
0.02427938757755328
0.024228821754222737
0.024216662441613152
0.02433319673058577
0.02433533590810839
0.024082461841171608
0.023803453200962395
0.024000698534073307
0.024502371300477534
0.02475731514277868
0.024817258666153065
0.02526267815264873
0.02578756061848253
0.0260853977908846
0.026094748523901215
0.026040327906957827
0.02610828611475881
0.026198980840854348
0.026191720876959153
0.026220929424162022
0.02617457533138804
0.0260729578032624
0.02598812538140919
0.025921341005596333
0.025738274722825735
0.02561790588661097
0.025580609575845303
0.0254664577904623
0.025629700019489974
0.026016062276321462
0.026496347650536337
0.02671271462866571
0.026884053744724953
0.02697356805030722
0.026987933560158127
0.027314156254869885
0.027224086604546754
0.02721797386126127
0.02721337692986708
0.02717407874413766
0.026953188481857068
0.02678367542452179
0.026969463262939825
0.027108338449615986
0.027078374458942563
0.0269307129108347
0.02683149277290795
0.0267868019657908
0.026747014204738663
0.026683711613877677
0.026856486226897687
0.027123589373077267
0.027404089315095918
0.027803236669278704
0.02814783062785864
0.028042598486645146
0.028026638504234144
0.02806324885052163
0.028051994388224557
0.028018046918441543
0.028122489362722262
0.028249838487245143
0.02806583332887385
0.027821084749302828
0.02792151857051067
0.0282360366708599
0.028370468155480923
0.02817702390078921
0.028008608942618595
0.02794212368200533
0.02792265754425898
0.02796673989156261
0.028029973398079163
0.027902711031492798
0.027817198216798716
0.027734949803561903
0.027725289814407007
0.027760596043081023
0.027728414297453128
0.02765687637613155
0.02757698247267399
0.027631178922019897
0.02780747430631891
0.02813142124679871
0.028248707417515107
0.02817292258841917
0.02821668019751087
0.028195495085674337
0.02823612836189568
0.02825694652274251
0.02816505751630757
0.028025204403093085
0.027952726245857776
0.02791030041873455
0.02776670276594814
0.027982492074370383
0.02812744989292696
0.028124607484205626
0.028231623240862973
0.028386880174512043
0.02859239598561544
0.028598890943685548
0.028399898820207454
0.028316356337163597
0.028449801364913582
0.02861816103802994
0.028781796272378413
0.028645438961684703
0.028592133193742483
0.028507024323334917
0.02812710783444345
0.02801025060180109
0.027941438753623517
0.02788194617256522
0.02792221126786899
0.027965443085995502
0.027868276390945537
0.027911120793432928
0.02791831482783891
0.027793583752936682
0.027751928467769176
0.02777612834237516
0.027774937943904662
0.027815789558226243
0.027860877928324045
0.027912676939740776
0.02788503987074364
0.027878748124348932
0.0278491840348579
0.027789768414222635
0.027850968064158224
0.02788376167532988
0.027858840143308042
0.027904100571759044
0.028230418328312225
0.028247017885441893
0.02808200112776831
0.02833183282869868
0.028683587778941727
0.02898012015677523
0.028970488479826598
0.028782769029494375
0.02877757556794677
0.028905417144997045
0.028874565883888863
0.028927687304094434
0.0289583779044915
0.029085155500797554
0.02903334564587567
0.02922189499717206
0.02926808447460644
0.029060148704447782
0.028979893265641293
0.028867481356137432
0.028703662115731277
0.02876288334198762
0.028816092549823223
0.028482885629637168
0.028311565236072055
0.028488834305899217
0.028684492189786397
0.028740924846497363
0.02860895656165667
0.028684404554660432
0.028933253833674826
0.029146426837542094
0.029240938161383383
0.029284129357547498
0.02931090288388077
0.029360113932052626
0.029314966088859366
0.029384776846272873
0.029329127807868643
0.02938005105825141
0.02951229339640122
0.02951831331476569
0.02952957593661267
0.029534304641420022
0.029588462004321626
0.02957561480172444
0.02969945748220198
0.029759266180335545
0.029658297555870378
0.029587222156696954
0.029654988970723935
0.029745606168871744
0.02967507560446393
0.029685528487316332
0.029619112334330566
0.029454151140525936
0.029365333492169157
0.029379978918586857
0.02939186939620413
0.02940240765805356
0.029507001585443504
0.029522463594912552
0.02950586002727505
0.029589022732689044
0.02941716920118779
0.029293216182268225
0.029377474863431417
0.02942861509276554
0.029431236420641653
0.02964497681125067
0.029821108960313723
0.029867498804815113
0.029832597955246457
0.029581223418354056
0.029055257844738662
0.028874753153068013
0.028820469096535815
0.028331256837700495
0.027805889566079715
0.02749604198790621
0.027509965854114853
0.027527280297945253
0.027544389382819646
0.027678275898797438
0.02775871646939777
0.02778781024098862
0.028008328131982126
0.028279528326820583
0.028420829176902772
0.028436626634793356
0.02831267497385852
0.028093776690075175
0.0279706818703562
0.028082409329363144
0.02797667863953393
0.027633942898828538
0.02715427997522056
0.0269216613000026
0.02673129309201613
0.02651020382414572
0.026523252580082046
0.026327747203176842
0.02626136568142101
0.026215020269155502
0.0262993600894697
0.02647048525454011
0.026833068609121255
0.0271514558524359
0.02698232543480117
0.02684356056037359
0.026665958592784592
0.026695983220124616
0.026797831194126046
0.02668635156005621
0.02650078981358092
0.026561944117420352
0.026366797708906233
0.026064634634531104
0.025808930784696715
0.02543533819320146
0.025072797157918103
0.024973955012392253
0.02491525009914767
0.025029262052848934
0.025251793105271644
0.02515797965112142
0.024902442798484116
0.024891077946522275
0.02507222287997138
0.025033437660313212
0.02498831216536928
0.02501371600839775
0.02498220650071744
0.025098544447682797
0.02513983250595629
0.025155211769160815
0.025221521526109427
0.02511545112123713
0.024979383456520735
0.02497168693691492
0.024950625178753398
0.025004271627403797
0.024948495655553415
0.024942011938546785
0.024869828147930092
0.024814692058134823
0.02499337871733587
0.02512512374552898
0.02518325502751395
0.025160066307289525
0.025010547306737862
0.02511867385765072
0.02502222543058451
0.0249835023842752
0.024917038139537908
0.024953657010919415
0.02491892263002228
0.025122524927719495
0.025243998324731363
0.025113138780579903
0.025244830872979948
0.02521307266841177
0.025092828788910993
0.025123424347839318
0.025095590148121117
0.02499263815348968
0.024926173490239307
0.02498332053888589
0.025090612967615014
0.02511622196587268
0.025013962482917124
0.024806891695479862
0.024675981565378605
0.02471598838281352
0.024644439361873084
0.024605240822420455
0.0248050713527482
0.025055076419957915
0.02528164715738967
0.02534473120875191
0.025328280521789565
0.0253493344259914
0.025277315303101205
0.025260896856780166
0.025231804270879364
0.02528651122527663
0.025373016424127856
0.025452512884512543
0.02569393403653521
0.025781985331559554
0.02576737511320971
0.025693275394733064
0.025602337733726017
0.025531120398663915
0.025434886004659346
0.025381587363081052
0.025300436812685803
0.02529876787972171
0.025305076754884793
0.025185878713382407
0.024962871297611856
0.024834210615954363
0.02505015278060455
0.02508575410756748
0.024827053716871886
0.02455492261389736
0.02454568749584723
0.024620187337277458
0.024513872763491235
0.024449702259735206
0.024584616289357656
0.0245204695162829
0.02472163973900024
0.024900077551137656
0.025150084744673222
0.02510487353312783
0.024932608231320045
0.025122471037320793
0.025353328579221852
0.02525733074173331
0.02523826827935409
0.025110209594713523
0.02495532336703036
0.024897808107780292
0.024836489823064765
0.024695761256734842
0.024639386699418536
0.02462696282658726
0.024610958465491422
0.02440193741058465
0.02400749861029908
0.023743056693929246
0.023713965197093786
0.02380839958554134
0.02392111387103796
0.024010970843955873
0.02402661192812957
0.023922884610947222
0.023925017639412544
0.023874504939303733
0.023840003130608238
0.023931535290321337
0.023905358299380168
0.02383778394840192
0.023840075847692786
0.023836107989773155
0.023851731204194947
0.0238726449070964
0.023895912972511722
0.02398052231699694
0.02397299544943962
0.02393073699378874
0.02399594482209068
0.024153814771561883
0.024364015664323235
0.024499106199364178
0.02446662679547444
0.024340178277343513
0.024214120599790476
0.024049736171728
0.02387619104818441
0.023811604399234056
0.023738386771292426
0.023641242378507742
0.023687158768298106
0.0237337405863218
0.023595927443238907
0.023524021867197008
0.023628809228539466
0.023525592865771616
0.023305508442572318
0.023218850642442702
0.023204535433324056
0.023161446752492338
0.023261604168219492
0.0232162540970603
0.023330778699601068
0.023465233080205507
0.023485275470884515
0.02348273421463091
0.023406266621896064
0.023392630991293118
0.02328379821963608
0.023055149525171147
0.02296319442393724
0.022992239776649513
0.023043801463791168
0.02303121538949199
0.02288732536660973
0.023008542382740416
0.02301627930952236
0.023076547938981094
0.023029283044161276
0.02298079115396831
0.023027894235565328
0.02303657974000089
0.02308927685895469
0.02309502207674086
0.023201199045288376
0.023293510781950317
0.023107959103072062
0.02296922328590881
0.022979677617549897
0.022966997722978704
0.022977297813049517
0.02292134325194638
0.022606400147196837
0.02227837726066355
0.022282735244953073
0.022101234999718146
0.022130033316789196
0.022241679872968233
0.022285301279043778
0.022337115799309686
0.02236416773928795
0.02232353605737444
0.02235049121431075
0.02240315142669715
0.02249142939632293
0.022552546338993125
0.02257931655505672
0.022677188287489117
0.022601833028602414
0.02257250031689182
0.02255979600304272
0.022603415333433078
0.022546117204474286
0.022507325038313864
0.02243482419056818
0.022415948450798168
0.022305628047324718
0.022065323092392647
0.021987986845779232
0.021931436063023283
0.021887776537332683
0.021885298177367077
0.021764154419652185
0.02169927588023711
0.02166064011049457
0.021642729244194924
0.021737588077085094
0.021853313678875566
0.021972986871842296
0.021970641202642582
0.022192253497196363
0.022478107381612062
0.022605561561067588
0.022593770240200685
0.022439486426883377
0.02215020751929842
0.022279067355557344
0.022243396593257785
0.022198984405840748
0.022171381495427342
0.022140140298288317
0.022013420071452856
0.022036585933528842
0.021871881110710093
0.02165582171350252
0.021629202922922558
0.021646035322919487
0.021694116769358517
0.021763092662440614
0.021714870585128665
0.021627973127760925
0.0214914504456101
0.021333110681152904
0.02120489129971247
0.021130050054634923
0.021136672423454003
0.021232240405515766
0.02132879134383984
0.021319420628715308
0.021292844933923333
0.021422147405683063
0.021502193292835727
0.021437458141008392
0.021312689075712113
0.021287547793472184
0.02131225909222849
0.021296807540929875
0.02125359551748261
0.02127237205102574
0.02122059181390796
0.021224805797683075
0.02117942585842684
0.021161944639752617
0.02116325289127417
0.02096326930215582
0.021029700178187342
0.021147264968021773
0.021178439140785484
0.021436197852017357
0.021626905076554976
0.021674278061836957
0.021666497277328743
0.02181006506900303
0.022002314213314094
0.02196316218993161
0.021881171792629175
0.021868069632328114
0.021728677594219335
0.021478037910419516
0.021210866445908323
0.021050793957547286
0.021064144957344978
0.02124717240978498
0.021387303071096538
0.021406733847688885
0.02129556305008009
0.021143868704675696
0.02119629613822326
0.021065787540283053
0.020744823881541377
0.020628856757539324
0.020624225294450297
0.020601374385296366
0.020427206340245904
0.020202732586767524
0.02032522351888474
0.020195178139256312
0.020035380491171963
0.019983076863572934
0.02009889890381601
0.0202869410807034
0.02040119637560565
0.020247051710030065
0.02023050091578625
0.020300721134990454
0.020283339584129863
0.020333298629848288
0.020363998682005332
0.020288866281625816
0.02029553560889326
0.02025521499628667
0.020302566686295903
0.020567002382595092
0.020711128431139515
0.020741901586879975
0.02073521676589735
0.020709148503956384
0.02064782790839672
0.020676873901393264
0.020729794338694773
0.02073919965478126
0.020816635369556025
0.02082409947295673
0.020772237065830267
0.020760167100816032
0.020642126411548816
0.020491163020487875
0.02053553329431452
0.02060307624284178
0.020443505360744893
0.02025889098236803
0.020188444195082412
0.020388804314425215
0.02052792358561419
0.020594893750967458
0.02062942675605882
0.02073062164708972
0.02082329611410387
0.02079787160968408
0.020859071468003094
0.020989943082095123
0.021033338374109006
0.021001123042660764
0.02094539451005403
0.020881521311821416
0.020869410400046036
0.02083905770618003
0.020950346648460252
0.021130662521463818
0.02117434210085776
0.021148815972846933
0.02129704737919383
0.021214854813879355
0.021184695932897738
0.021263384883059188
0.021369712844025345
0.02154175574891269
0.021561504377168604
0.021543246208457278
0.021540732216089965
0.02160513218434062
0.021651378758833745
0.021541047191713004
0.021431315036024898
0.02155557730642613
0.021497904688003472
0.02156200004508719
0.021446224991814235
0.021429061117814854
0.021452905170735902
0.021367831236566416
0.02133560194692109
0.021288554841885344
0.02138841025007423
0.02134753715363331
0.021220972263254225
0.02123853770783171
0.021297155136126095
0.021409603008069097
0.021469259312725628
0.021423343964852393
0.02133191213652026
0.02139138992934022
0.02148641000443604
0.021529083952191285
0.02153091563261114
0.021412219703779555
0.021194248410174622
0.021020244971732608
0.020906146971974522
0.020941029099631123
0.020972167569561863
0.020917307975469156
0.02089502643502783
0.02082140529761091
0.020843821352464147
0.020883390406961553
0.020847370275296272
0.0207523308286909
0.020642054710770026
0.02083767419855576
0.02113046039128676
0.021213128454983233
0.021123304215143433
0.021065192816313357
0.02111665321397595
0.02105572091473732
0.021125509263947607
0.02124033414234873
0.02121742458897643
0.021254732856177724
0.021383614137303084
0.02140305012348108
0.021433126584161074
0.021372136255376973
0.021532082160119898
0.021572655083145945
0.021379437540308573
0.021380053663742727
0.02143490010523237
0.021247044776682742
0.02103411175135989
0.020918487428571098
0.02091784229618497
0.020924671732936984
0.020951838900800795
0.020844274323317223
0.020708314256044105
0.020687510900315828
0.020810467267292552
0.020916943097836337
0.020935403983457945
0.02095500962866936
0.02096178510633763
0.020973524955334142
0.020922258981736375
0.02090406096947845
0.020884481712710113
0.02088628547557164
0.020901588826091028
0.02089695410511922
0.02090897250978742
0.020949097547563723
0.020919806198799053
0.020914853952708656
0.020862242505536414
0.02073596641246695
0.02068472397804726
0.02075041791773401
0.02077237832127139
0.020658461020793766
0.0206761041568825
0.020726217885967343
0.020573669213335963
0.02049239011888858
0.02063219137955457
0.020893967346055434
0.021175546830054372
0.021464159457827918
0.02160066649375949
0.021530260118306613
0.02155498031002935
0.02153867959510535
0.02150484979909379
0.021526207028655334
0.0213280194188701
0.021211064246599562
0.021125061174971052
0.02087054689938668
0.02078125071770046
0.020892497691675088
0.02089709986175876
0.020748941868077964
0.020649196497397496
0.02071188629954122
0.0206709027470788
0.020819532101158986
0.021164534896379338
0.021321102151996455
0.021310240710154176
0.02129493084794376
0.021267810151912273
0.02108716327289585
0.02090483844745904
0.020937151910038664
0.02101583909941837
0.021036742932046763
0.021063282804680058
0.021008684212574735
0.021065933067002333
0.02107379486085847
0.02111098598514218
0.021175297918962315
0.02112624901055824
0.021150761721655725
0.021162736223777755
0.021196301396121272
0.021221081877010873
0.02124414469988551
0.021185647832462563
0.02106355570605956
0.021022718850290403
0.02110369103960693
0.021133770667365753
0.021448879246017894
0.021808713447535412
0.021885813826811498
0.021829914674162863
0.021809086495195515
0.02168303450627718
0.021549553144723177
0.021468509049736895
0.021339212551829405
0.021214366191416048
0.021278588083805516
0.02131618962797802
0.021299489580560476
0.021332035068189724
0.021342832539812662
0.021373882959014736
0.021408144225133582
0.021367669436731376
0.021250422474113292
0.021190345755312593
0.021244127184618263
0.021290132202557287
0.021354055552510545
0.021368544767028652
0.021383343730703927
0.021418222614447587
0.021470122922328302
0.021624475960270503
0.021566847478388808
0.021468259214307183
0.021527831014245748
0.021869706517318264
0.022262681862339376
0.022481675820890813
0.022495643474976533
0.022530199094326235
0.022400612808414735
0.022429411702323706
0.02243982416810468
0.022546816217945888
0.02249852650682442
0.02231657967378851
0.022313992198905907
0.022229699415620415
0.022169356534723194
0.02213636956352275
0.022123736700741574
0.02203303646296263
0.021992452155100182
0.021905292613082564
0.02189700567163527
0.022008193170768207
0.02202012732916046
0.02199820587935392
0.021995106670074163
0.021996837969636543
0.02197204655734822
0.02183003244921565
0.02176365530991461
0.021711489041917956
0.02164810312737245
0.02185618348943535
0.022197335852542893
0.022567583926720546
0.022679770188988188
0.022658916839864107
0.02293971463339403
0.023147454910795204
0.023197003534296528
0.023241630228003487
0.02317169401969295
0.02317647633026354
0.023185966141172683
0.023130969966878183
0.023036347647430375
0.02305826126190368
0.023053230283549057
0.022999531388049946
0.022850678335526026
0.022869771900004707
0.022921025015530175
0.022916483904700725
0.022958313533454202
0.02305590658681467
0.023243685810593887
0.02335568752605468
0.023314037908567117
0.023333201702334917
0.0233276796923019
0.02333796534105204
0.023414025716483593
0.023386980551294984
0.02335123200144153
0.02343674227595329
0.023437111386447215
0.02344376074615866
0.023280202187015674
0.023135480054770598
0.023117594734649173
0.02322115134447813
0.023223187376279385
0.02334840758703649
0.023417754159891047
0.023385493274545296
0.02356256429164205
0.023531820150092243
0.02388890483183786
0.024145831761416048
0.02421662050008308
0.024146181468386204
0.02415832804108504
0.02397465813322924
0.02378398978500627
0.02388089982152451
0.023951511622872203
0.024000390164437703
0.023982509158086033
0.02395050308376085
0.023812580846133642
0.023682144100312143
0.023701291679753923
0.0236815673019737
0.02392967840190977
0.024213149956194682
0.024213026530342175
0.02419513132830616
0.024180964146507902
0.024216543518705294
0.024207508124527523
0.02419640314008575
0.024319492786889895
0.024515684554935434
0.02443463619449176
0.024225648184074088
0.02413875242229551
0.02429752139141783
0.024374262701603585
0.024356863070279358
0.024324347160290926
0.024397107851691545
0.024478721769410187
0.024566972635220737
0.024560377428424544
0.024549709279672243
0.024623400378623046
0.0247309076518286
0.024723386809928343
0.024909193794010208
0.025130974499043078
0.025180550031363963
0.02521597970975563
0.02510002134076785
0.024888238703133538
0.02487516931782011
0.02498391013359651
0.025056970761506817
0.025070681666838936
0.02502532031503506
0.024966474801767616
0.02502928624278866
0.02523395914467983
0.025396504421369172
0.025389331028563902
0.025411836401326583
0.025366405884269624
0.025327001229743473
0.025345096942037345
0.025410026010358706
0.025444692072924227
0.025380899644223975
0.02525779391173273
0.02527808447543066
0.0252228963089874
0.025195911102928223
0.025089514660649
0.02531639914086554
0.02550125549081713
0.02547400061681401
0.025550225524348207
0.025553070633322933
0.02542681016784627
0.02538922133622691
0.025422712032450362
0.025345730424742214
0.025296749646076932
0.025281596250715667
0.025241835300112144
0.02526058265240863
0.025516264748875982
0.02575293072091881
0.025860921612475066
0.025840240922407248
0.02576006738934666
0.026120490039465948
0.026597019408945925
0.026732510158908554
0.026787941694492473
0.026818221043795346
0.02674087115447037
0.026631559595116414
0.02640676578390412
0.02633930714102462
0.026496637049131095
0.026733655646676197
0.026991692596348003
0.027080610421835447
0.027150059444829823
0.02719476473343093
0.027142079055774957
0.02717457842139993
0.027505344362580217
0.02788145208498463
0.02791252584895119
0.028135895075392908
0.028375694712158294
0.02832935427024495
0.02819377159466967
0.028270796149154193
0.02840801316604484
0.028411661311401985
0.028512006886885502
0.028610512064187788
0.028568396678892896
0.02853641079098452
0.02847043277870398
0.028426632417831568
0.028477573708514684
0.028662411367986352
0.028913407752406785
0.02902907922922168
0.02895393152255565
0.02859932754363399
0.028109649974503555
0.027816061626654117
0.027864525943878105
0.02775538874673657
0.02773790280567482
0.02764311960665509
0.02774898228584789
0.02776322014629841
0.027700593707850205
0.027692174988915214
0.02763822573062498
0.027702400944544934
0.02784484835632611
0.028013724320335314
0.027951991384616123
0.02791570642904844
0.027864787293365226
0.027946783919469455
0.0279002934001619
0.027813817401183768
0.027722072663600557
0.02770533544709906
0.02779581778217107
0.02800762485479936
0.028073115035076625
0.028162875049747526
0.028173160986043513
0.028096383230877108
0.02820275960955769
0.028125485742348248
0.02785529774206225
0.027529501350363715
0.027505962442955934
0.027453659904422237
0.027205258584581317
0.027042585765011607
0.026982889691716992
0.026858264367328955
0.02696572963555809
0.027219323351746424
0.027528767788899133
0.027835102980025114
0.02788678708137013
0.027930493200547062
0.028108777375891805
0.0282253488706192
0.02840261228848249
0.02839535628329031
0.028410634233732707
0.028781927426462062
0.029090000337455423
0.0290863235516008
0.028919374987017365
0.028805288895964624
0.028866601787740365
0.02889951400924474
0.028940395180834456
0.028893587455968373
0.028855229687760584
0.028859868930885567
0.028769859652384183
0.028604225079179743
0.028679117950377985
0.02859100271074567
0.028351006547454746
0.028182811492006295
0.028164228203822857
0.02802685746573843
0.02800329721067101
0.02804303644807078
0.02808735875179991
0.028058637017966247
0.028185696284053846
0.02846308487467468
0.028046786483027972
0.02767855865007732
0.027674873467185536
0.027796599462162702
0.027788655345211737
0.027828201616648583
0.02791302539408207
0.028029209575615822
0.02792976728116628
0.027852197547326797
0.02783058943983633
0.027779582891380415
0.027706209464813582
0.02766401667788159
0.027782037535798734
0.02812767186143901
0.027927541150711478
0.027781887099845335
0.027952288500382564
0.027948046489036642
0.027903144898009487
0.028034075301256962
0.028269519654568285
0.02842773192678578
0.028255433680606075
0.02828168052365072
0.028452563178143465
0.028432642460102214
0.028511755733634344
0.02842726457689423
0.02833963670535013
0.028361852974630893
0.028399054711917414
0.028457137094810604
0.0285042926116148
0.028516316274181008
0.02860727470833808
0.028722829899634233
0.02870823109464254
0.02853847185964696
0.02859261384990532
0.028255430877907203
0.02802301648480352
0.028111340753966943
0.027963638677611015
0.027911402572644874
0.02789468854200095
0.027829101972165517
0.027956359200761654
0.02817304017546121
0.028169911438017153
0.028488344302168116
0.028993812858243474
0.029472501383861528
0.029720165192265995
0.029797963843448086
0.029883234666776844
0.02991871073783841
0.029881741700228302
0.029835400455631315
0.029660480804159305
0.029585914013441652
0.029554023455129936
0.029611266825231724
0.02964095699193422
0.029608804698218593
0.029430173667497003
0.02917562959191855
0.02914810159476474
0.02904384573223069
0.029106402554316447
0.029281372199184263
0.029186379128950647
0.029461247355793602
0.029957888031494805
0.030221509583643637
0.03024464203452226
0.03042052644013893
0.030409933530027047
0.030572225483483637
0.030541956283850594
0.03037485136243049
0.03018347819626797
0.030000270091113633
0.02987726984953042
0.03000559978361707
0.030407406926387923
0.03041434785933234
0.030078600616543553
0.029924782603629865
0.029910125301685183
0.02986418112006504
0.029908445957116784
0.02990593868657015
0.029749247984145768
0.029471739292494022
0.029267218905151823
0.029094240594422446
0.02891914081003051
0.02890456860885024
0.028934914518613367
0.028889692753436974
0.028876398267457262
0.02881674054544419
0.028395088065299206
0.027848497918457723
0.02774438073276542
0.027534414185211062
0.027227857687976212
0.027350725462893025
0.027685930061270483
0.02769630078342743
0.027604377593961546
0.02762521028635092
0.027471354210865682
0.027502018146333285
0.027913244560477325
0.02810175585851539
0.028043067809194328
0.028022030849242582
0.027950496832490897
0.027600849344162272
0.027197091589332558
0.027105241672252305
0.027158231997746043
0.027210512842284516
0.02719560345634818
0.027272901622927746
0.027283766829641537
0.02737489211722277
0.02752286301285494
0.027579885704326443
0.027532577103120275
0.027477568435133434
0.027480722983018496
0.027516248311731033
0.027664868266438134
0.027649000027449803
0.02737363542779349
0.02723790291522164
0.027293601680430584
0.027273918186547234
0.02733658898738213
0.027316591651760973
0.027461858715978452
0.027389050226775
0.027393670257297345
0.027529395822784863
0.027599250072962603
0.027620569433202034
0.027764441739418545
0.027832134997588583
0.027745687479618936
0.027737960307858883
0.027680102956364864
0.027545276392484084
0.027454450617660768
0.027545218025916255
0.027515656447503714
0.027568257939419707
0.027489775033900515
0.027501240139245056
0.027523775151348674
0.02766851622494869
0.027755099972710015
0.027552625754033215
0.027621432142332196
0.027676094544585795
0.027624969211174175
0.027476881202310323
0.027525955438613893
0.02776969410420861
0.027740782527835108
0.027754593628342265
0.0277386615955038
0.027405629083514214
0.027132906488259324
0.027103703154134563
0.02722184119746089
0.02732245594379492
0.027217885612044482
0.027214632911491208
0.027527460369747132
0.027848741725319995
0.027737381614279
0.0278408960159868
0.027890458405017853
0.028217967361561024
0.02831959091417957
0.02828735640796367
0.028311541082221083
0.028222121795988642
0.028272913510445506
0.02847009565739427
0.028480491009540854
0.028382809114409612
0.028235246441909112
0.028226318866945804
0.02797729119192809
0.027697958215721883
0.028042863141163252
0.028535898998379706
0.02860106034670025
0.028658959641470572
0.02873639508674387
0.02884820392297115
0.028919076334568673
0.02880740155465901
0.028801058170502075
0.02874136733589694
0.028821679598768243
0.02878000004333444
0.028934042052715086
0.029155496857129037
0.02909583982254844
0.028820296484045684
0.028813978236867113
0.028904353813268245
0.02901657606184017
0.029042636675876567
0.029238438734319062
0.02943838429870084
0.029338244095561093
0.029151554143754765
0.029159520000685005
0.02910938673187047
0.02900688904162962
0.02906542156881187
0.02905776221479755
0.029015277363359928
0.029038426606566647
0.029015072946785948
0.028994654961279592
0.028865375936729835
0.028835867078742014
0.02885592381004244
0.028798845559940674
0.028722469485946932
0.0287959945917828
0.028940288409939965
0.028942949814372697
0.02902070953103248
0.028955578861641698
0.028913797755376437
0.028955060968291944
0.02896552284248173
0.02904601028363686
0.029040071102790534
0.028566600963822564
0.02811991343041882
0.02810304413549602
0.02789724123547785
0.02745322113914881
0.026875148920807987
0.026363138325395993
0.026180064305081033
0.02608319747436326
0.026086261927266607
0.026156993572367355
0.02620538536051754
0.026397780133411288
0.026398869384429417
0.026353175088297577
0.02631377755315043
0.02633948990900535
0.02633650012721773
0.026325984463910573
0.026380311398534105
0.02653270437847823
0.026524991940823382
0.02627696801384445
0.02617393433873076
0.02632685590768233
0.026120017533539795
0.025575640891329385
0.025436769008520058
0.025575026834849267
0.0253559701499762
0.025408074628794564
0.025255250101326964
0.025282836092519575
0.02523505756049417
0.025152251823456026
0.025104725367855282
0.025184792526415548
0.025011034368071706
0.024607316407491454
0.02428576305217575
0.024235166191938332
0.024232408341486007
0.024221674575819634
0.02427062721864786
0.024222547207027673
0.02437102256633807
0.024564140204456634
0.02467291193024721
0.02475064079510048
0.024937336681759917
0.025138889541267417
0.02512817160633858
0.02514611785474699
0.02529809038969688
0.025466379499994217
0.025501277035218664
0.02561132217233535
0.025714961763005705
0.025689782957779243
0.025664322124794126
0.02577310713066254
0.025687407892546615
0.025469367566984147
0.025514690288691782
0.02559940734237898
0.02560920761723537
0.025683938471483998
0.025645659464062193
0.02540302101348061
0.025329865753883497
0.025391406147391535
0.025579409239580856
0.025949866142473185
0.02627328535891138
0.026405665199854413
0.026336073812562973
0.026353848016005942
0.026448777281329966
0.026437959085451438
0.026553495333064347
0.026711388473631813
0.026646072127623485
0.02662043144926429
0.026693918441305867
0.026628128618467597
0.026891885037184694
0.02749864597863052
0.027880103523493745
0.027718893597484567
0.027826590961194598
0.02804288937128149
0.02814958046656102
0.028254384457250127
0.028227936027105896
0.02816886773216538
0.028289891883032395
0.028416571142734028
0.028578913382370955
0.028557473114342428
0.028521619210368953
0.02852711174346041
0.028377159572555682
0.028145542206475513
0.02800248405197635
0.02799094584013801
0.0280602274031844
0.028048672384466046
0.02796890769212041
0.027934785358374938
0.027802992811775767
0.027667650934890844
0.027681230827583933
0.027755922168144025
0.027754728608415463
0.02785323072457686
0.027819374341052024
0.028041062332922594
0.028370417506666853
0.028053987780003807
0.02770886179874651
0.02773741994635202
0.02776364729099441
0.02766509625245817
0.027451081270701252
0.027500850346987137
0.027462920215912165
0.027498459762427957
0.027780335760326125
0.027982932223239915
0.028051439840346575
0.02795647892053239
0.027893288426566867
0.027941834615776314
0.02793687868048437
0.027695240946486593
0.027318027966539375
0.027407750646816567
0.02730724272027146
0.02724791063228622
0.026979546131915413
0.026871744287200273
0.026861035589245148
0.026898600692511536
0.027011491128941998
0.027002561622066424
0.027171166777261533
0.027434591246419587
0.027348874137969686
0.0275487594952574
0.027387946204398758
0.027483372128917837
0.027662748761940747
0.027383264988311565
0.026915995923336596
0.026876680934801698
0.026860299280961043
0.026844941999879666
0.026768599727074616
0.026779765623505227
0.026804490018403158
0.026713054684805684
0.02676676564500667
0.02671462980855722
0.026762428614892995
0.02666138463304378
0.026612726032617502
0.026610297720762902
0.02655159777845256
0.02685251663730014
0.027005297670839354
0.026669065473251975
0.02680388645909261
0.026577111369697377
0.02636617516807746
0.026207808615872637
0.02632379871793091
0.026326061325380578
0.02638119009498041
0.026500630499795078
0.026658398977597243
0.026697896301629952
0.026765705723664723
0.026816638515447265
0.026951127233332955
0.026981530868797562
0.027041859470773488
0.026989880588371307
0.026905704151140526
0.026893297638744117
0.02707395798061043
0.027096989882993514
0.02693778873188421
0.027010461396421305
0.02709462006285321
0.027184726952109484
0.027203105413354932
0.027207321157329715
0.02721775527810678
0.02723660265444778
0.027138446139288133
0.02715184825588949
0.02717227749992162
0.027163709016749634
0.027167698267730883
0.027276315644849093
0.02730180657701567
0.027456181485904382
0.027633814189466647
0.027628553832764736
0.02779138899524696
0.027872640326386318
0.028022712939418853
0.028333058274001816
0.02857807875145227
0.028578242881922053
0.028508414598181844
0.028563724042032845
0.028694911979837343
0.02869541883294005
0.028648340447689408
0.028567770579829812
0.02858596319332719
0.02868494207796175
0.02863098932080902
0.028664417658001186
0.028760925202514043
0.028927178537705912
0.02888657432049513
0.028857351347105577
0.028875512563972736
0.02890251826029271
0.028894844797905536
0.028858104450046086
0.028989864267641677
0.028962802317691966
0.02904631485696882
0.02901138919754885
0.029018467727582903
0.029174152393243277
0.029256842220202087
0.029201710290508345
0.02917523727752268
0.029111532257520594
0.02903259371232707
0.02906165968743153
0.028899112335056997
0.02870837145310361
0.028677196828648447
0.028744862838648258
0.028635189607739447
0.028547913551446983
0.029018951798789203
0.029243178931064904
0.029008417478762566
0.028721168849733657
0.028956504672532902
0.02898452661698684
0.02903268281428609
0.029149648016900755
0.029107019427465276
0.029004341317340733
0.02889108411851339
0.02884121636103373
0.028817090135999025
0.028800384592614137
0.028853234748821704
0.02878045590419788
0.028628883537603542
0.028488056382047943
0.02833395715919323
0.028439592106733472
0.028374277342227288
0.028008341999375262
0.0277744410908781
0.027606649632216432
0.02771496902918443
0.02761648057727143
0.027626558732590636
0.0276918283989653
0.027526958746020683
0.027354737556888723
0.027609457541257144
0.02777546617202461
0.027773784500896
0.027835819137981162
0.027592562998179346
0.027068366722669452
0.026642142845666968
0.02692341534013394
0.02700933052925393
0.02678265055292286
0.02688823246397078
0.027041917445603757
0.027010392940137535
0.02717576958006248
0.026999557547387667
0.026873445765231735
0.02684226825076621
0.02684498778078705
0.026743327067233622
0.026567949408781714
0.02655198531167116
0.026580146382912062
0.02670122068200726
0.026862397469230928
0.02676838624465745
0.026911221129703334
0.027343219718313775
0.02760783948120661
0.02772000289580319
0.027874381229048596
0.0279738824715605
0.028238535587443037
0.028219111824291758
0.02823569439991843
0.02816922742757015
0.027714394062641076
0.02735838964872528
0.027297208841773682
0.027265181556576864
0.027205919304396958
0.02725569603557233
0.027261456919368356
0.027282152561820112
0.027259870416019114
0.02729019722668454
0.027282781011308543
0.02705007084296085
0.026794790229178033
0.026760838936897926
0.026743859100388363
0.026701818364672364
0.02665197665395681
0.02653102145588491
0.026459749731002374
0.026607151252683252
0.02663797763932962
0.026550240433425642
0.026620809626183472
0.026573745942441745
0.02659552725206595
0.026561450266744942
0.026625644129235296
0.026585880876518787
0.026616957471705973
0.02647441750508733
0.02635889802244492
0.026446366523159667
0.026179590579122305
0.026224177823169156
0.025892862167675047
0.025821819715201855
0.025826278371969238
0.025824407206382603
0.025743587755132465
0.025590829444117846
0.025662372098304333
0.025650036209262907
0.02566647854633629
0.02585756459739059
0.02603028610465117
0.026042426786152647
0.026212334013544024
0.026337029649876057
0.026418412982020526
0.0265683528885711
0.026545165908755733
0.026624345685122536
0.026445775808533654
0.026138191152131184
0.02614747013663873
0.025919144520303236
0.025983302978565916
0.02591278524603695
0.025978948858100922
0.025892613094765694
0.026119978406932205
0.02624739968101494
0.026323048431659116
0.026323548197979107
0.0262461341987364
0.02614889031043276
0.02608221521601081
0.025976427581626924
0.025930912549374626
0.02590626450488344
0.02594008412095718
0.026061085644178094
0.026161793165374547
0.02587288885610178
0.025865287223132326
0.026183208688162266
0.026147819998441263
0.02607590478961356
0.025954082875978203
0.025903970097424463
0.025919775273650886
0.02594450121396221
0.025830824058502913
0.025867836233228445
0.026076787888305263
0.026192126646637916
0.02623978557647206
0.02614176503266208
0.025996091768611222
0.02602797541883774
0.02611350332503207
0.02617458818014711
0.026273696827702225
0.026123989046318456
0.026051876501878724
0.025851274476153777
0.025418347720988096
0.025134399873204528
0.02514087564079091
0.02516522666090168
0.02506704445928335
0.024949324076296762
0.02505879207747057
0.025132397279376165
0.02509762626956217
0.02504039673367515
0.025088144919136537
0.0250559657253325
0.024954156806925313
0.024873985609738157
0.025285489634843544
0.025678562069078908
0.025656138105550782
0.025730253810761498
0.0256319069606252
0.02569659664295614
0.02571248690248467
0.025607541698263958
0.025618323639500885
0.02562004032661207
0.02573297085124068
0.025829715811414643
0.02564524806337431
0.025721655988600104
0.025912537892581897
0.025938607839634642
0.026188683136133477
0.026285280213924126
0.026391785109881313
0.02658157898578793
0.026675745948450638
0.026797683676704764
0.02691745846532285
0.026889920629328115
0.026819864149438218
0.02647104877396487
0.026276591643691064
0.026261345964157953
0.026467874275986104
0.02648126821964979
0.026413639644160866
0.026362842973321678
0.026270649723010138
0.026324046917725354
0.02640290237730369
0.026451356639154256
0.026386508886935188
0.026307849051663654
0.026371266273781658
0.026487678941339254
0.026474146590335295
0.026578482749173418
0.026624171922449022
0.026595248071243985
0.026546594065148383
0.026673538556788116
0.026819628863595426
0.026680419974727556
0.0268023828137666
0.026728660595836118
0.026813433116767555
0.02672945804311894
0.02670139191672206
0.026744660784024744
0.026721218969905747
0.02665551766520366
0.026508904820075258
0.02633667880552821
0.026265075777191667
0.026291348923696205
0.026327381804585458
0.02637311698170379
0.02611587706836872
0.025857030185870825
0.025934969111112878
0.025689307721331715
0.025388618065044284
0.025384535358753055
0.02520547664607875
0.025234616928501055
0.025081036472693087
0.025024895801907407
0.025087100230157377
0.025132704908028245
0.025168215236626566
0.025198660717578605
0.025203425091458485
0.025108825659845024
0.02509935453883372
0.025393244500737638
0.025401101417373867
0.025028738738037647
0.024854383405763656
0.024879487678408623
0.024752099099569023
0.024610055669909342
0.02430463882861659
0.02433493939694017
0.024310190335381777
0.0242764886317309
0.02447113236412406
0.02462407251470722
0.024686900709057227
0.02476809186860919
0.024862087173387407
0.024892964921891688
0.024807324376888575
0.024706421591108665
0.024734023907221854
0.024822002525907008
0.024790137007366864
0.024701562064001335
0.024694008342921733
0.0246993756655138
0.024856577154714614
0.025085831908509135
0.025245674854377283
0.025239721544785425
0.02539554601185955
0.025475471297977493
0.025435628682607785
0.02555433605914004
0.025728691931581126
0.025901617233175786
0.025799372892361134
0.025804355312138795
0.02578206367790699
0.0258628198527731
0.02579935372923501
0.025588008855702355
0.02539514495059848
0.025256874918704854
0.025308491963660345
0.02535895747714676
0.02536094143637456
0.02534698239644058
0.025371984705561772
0.02538564577815123
0.025386583836516364
0.025437256017467005
0.025430395224830135
0.02548271489213221
0.02528585301944986
0.02507116332883015
0.024974826122634113
0.024964279395062475
0.024815033219056204
0.024741461542434992
0.024817519154166804
0.024589836300583555
0.024427230848232284
0.024517111512832344
0.024873215620173143
0.025372112373588607
0.025570608935086055
0.025626152689801528
0.025574415178271012
0.025509848224464803
0.025455494105117396
0.0254634119651746
0.025241739925695582
0.024931394134182484
0.024728604891570284
0.02462362124118954
0.02451851581921801
0.024610203737393022
0.024790762378834187
0.02505191777716391
0.0253741837060079
0.025626873460132628
0.025645302074262872
0.02555209316429682
0.02556511841947213
0.02572568813338876
0.025571189105976375
0.025277638133848087
0.02527136571938172
0.025265796402236446
0.02527236066525802
0.025264768295455722
0.025275515171233564
0.02524290334433317
0.025237362053012476
0.025032580639235677
0.02480388220748864
0.024706836453406142
0.024649285597261043
0.02470334278070368
0.024817649360047652
0.024846310365246607
0.02463706408976577
0.024545440910151227
0.02467158574028872
0.024552555005066097
0.02493584872339852
0.025692748656729235
0.026235894507262856
0.026279997939709573
0.026761083371238784
0.02709082458401099
0.027102949288673697
0.027138776901410894
0.027053680550307036
0.02693190856021829
0.026947854347527028
0.02693799771252088
0.02681890593492426
0.02688944233697839
0.026910635570529848
0.026907134961802512
0.02638967292616144
0.02578159382683225
0.02563213074579835
0.02557188822305761
0.025645268752705307
0.025603046608157456
0.02553910241345875
0.0255101896636188
0.02549067594576627
0.02539227970992215
0.025346925507765263
0.02533952984260395
0.025332539731170983
0.025247436058707537
0.025172297570388764
0.02537114973179996
0.025353612002218143
0.02536258229287341
0.02529041005880572
0.025212996726622805
0.02529914402635768
0.02513935258379206
0.02493609147728421
0.025000317984959112
0.024989251809893177
0.024799836305901407
0.024639041874324905
0.024631940522231163
0.024501596172340216
0.024225040442543103
0.02418518255930394
0.02410859763273038
0.02417905017733574
0.024256875086575747
0.02420187340467237
0.024174077379284425
0.024223132183542474
0.024175064446171745
0.024040704515064137
0.024081862920429558
0.024346425289986654
0.024377466469304637
0.02440919024753384
0.024451600977918132
0.02448806307045743
0.02447724623372778
0.024328918684041127
0.02463909677811898
0.02468477634829469
0.024733253595186397
0.02480678859283216
0.024920769007876514
0.025082451559137554
0.0250230594817549
0.025260210174601526
0.025519979402888568
0.025639735028380527
0.02564787041861564
0.025775993575807662
0.025693586770212277
0.025787695181788875
0.025914244145387785
0.025895494091091677
0.0259229289193172
0.025891811749897898
0.025831584681291132
0.02585305170738138
0.02593331002513878
0.025986004737205803
0.025942656733095645
0.025977741756942122
0.02589941840618849
0.025829076300142334
0.026038805234711616
0.02626984561793506
0.02618246103171259
0.026301118803676218
0.02632226626155898
0.026292573582613842
0.026143316084053368
0.02590330781764351
0.02588272943161428
0.02584215040318668
0.025936180264689027
0.02614745089318603
0.026124134194105864
0.026187658606795595
0.026216075455304234
0.026111624841578304
0.026149821685394273
0.026058176507940515
0.02597731035784818
0.025982918399386108
0.025954561196267604
0.025872033407213165
0.02584707346512005
0.025860868329182267
0.025848460169509053
0.02569529105909169
0.02556502368184738
0.025723186968825758
0.0260585770313628
0.026328194574452936
0.026367174905026332
0.026168243179563434
0.026021762951277196
0.025959936801809816
0.025990221988176927
0.02601403116597794
0.026046983232954516
0.02600741048925556
0.026012005702359602
0.025878647899953647
0.02570608506212011
0.025713835002388805
0.02582315479288809
0.02588175577810034
0.025853173239156604
0.02579036228940822
0.025906668183160945
0.026187962826807052
0.02655680339434184
0.026737906771013512
0.02668912527617067
0.02668471753480844
0.026709529479267077
0.026745398074854165
0.026720376999583094
0.02670422611758113
0.02664215307449922
0.026645764131098985
0.026769778969464822
0.02699327969690785
0.02697459841379896
0.02693268031347543
0.027082368282135574
0.02747305343276821
0.027927935803309083
0.028045199281768872
0.028033925876952706
0.028388567571528255
0.028447313035139813
0.02788430657237768
0.02728891608538106
0.027351970160380004
0.027658167171757668
0.027816763070877642
0.027817459141369908
0.027795088115381075
0.02787379259360023
0.027975366380997003
0.028016445278190076
0.02805288781877607
0.028116015824489294
0.02816412807791494
0.028093969367910178
0.02795570929418318
0.027811175622045995
0.027631107879569752
0.02734650955419056
0.02747028616257012
0.027597345344256608
0.027459451318718492
0.027449750581290573
0.02742641416261904
0.027482044068165123
0.027504470171406864
0.027505183881148695
0.027567396879894658
0.027644678183132782
0.027601276710629463
0.02756158633972518
0.027523508184822278
0.02755725601920858
0.02750364169711247
0.027507174797356128
0.027527484758757055
0.027619442763971165
0.027709710191702472
0.027755207332083955
0.02777287521981634
0.02757964965538122
0.02740157238091342
0.02743458160897717
0.027039955198997632
0.0264003534859512
0.025927004178520292
0.025884307099040597
0.025427361552137883
0.025128693013684825
0.025187859277939425
0.025204307313542812
0.0252036985126324
0.02516156992991455
0.025118022349197418
0.025090587357990444
0.025070515361148862
0.02501796604366973
0.024886967077618463
0.024740130392601714
0.02471828705864027
0.024748191876569764
0.0250799381127581
0.025497016068547963
0.025647871698020026
0.02557660121936351
0.0255229254020378
0.025557113426038995
0.02554738457663916
0.025597428136970846
0.025481436913833023
0.025368478860473262
0.025479905122192576
0.02543804400251247
0.02537449119146913
0.025286838504252954
0.025135832317173482
0.02498756839777343
0.024945231864694505
0.024840174774872138
0.02466379250632599
0.02462558499420993
0.02450315488851629
0.024393613302381708
0.02440687368856743
0.024538513117004185
0.02469435963430442
0.024756938855862245
0.02472741647041403
0.02482476197881624
0.024860409968532622
0.024858466415898874
0.024776568830711766
0.024632534462725744
0.024635084150359036
0.02468738143448718
0.024654634145554154
0.02469511968200095
0.024789133839076386
0.024689226289046927
0.02446246799780056
0.024352127708261832
0.02430727139348164
0.024278953273314984
0.024116834895685314
0.023882890556706116
0.023815625926945357
0.023578280746005476
0.023515128607396036
0.023538235246669502
0.023739999923855067
0.023889989596791564
0.023702394160209223
0.023851603302173317
0.02359213280840777
0.023293469755444676
0.023063155285781248
0.02308012712164782
0.022956007522298025
0.0230760674062185
0.02292439393233508
0.022836378529900683
0.023026553669478745
0.02297213004087098
0.023089559727814048
0.02342109883669764
0.023797157515073195
0.023832522484008224
0.024041149062104524
0.02436973116127774
0.024342881353804843
0.024629043283639476
0.02488283982616849
0.024776423492003232
0.024503767752321437
0.024570135382236912
0.02442148473463021
0.024510480565950274
0.024476744387065992
0.024339004741050302
0.024361629500053824
0.02431999472202733
0.024252111159730704
0.024111381818074734
0.024048408635426313
0.02408575623994693
0.024099492776440457
0.024245416182093322
0.02444755519973114
0.024453278054716067
0.024369544272776694
0.024355105368886142
0.024310051983920857
0.02429695471888408
0.024344788941089063
0.02428366950014606
0.024240010302746667
0.024297562474384905
0.024417591845849528
0.024419380287872626
0.024182687788270416
0.023836159652564675
0.023652724906569347
0.02368823153199628
0.02376097209053114
0.023921968835638838
0.024359186476795004
0.024708737175678834
0.02450991202844307
0.02438607464078814
0.024392240693559872
0.024398919894592835
0.024330612745834514
0.024355755909346043
0.024414626754587516
0.024308113891165703
0.024184535678941757
0.024101034136256205
0.02410932968603447
0.024012806526152418
0.02371815702645108
0.023472357677528633
0.02340115826576948
0.02343972954666242
0.02343796269851737
0.023312401194125414
0.023145979436812923
0.023084179572761057
0.023167707256507127
0.023288012595148757
0.02317552217748016
0.022982043203664943
0.02276787390932441
0.022786274560494348
0.022858654382871463
0.022664814533200114
0.02222789743798785
0.021701988292625173
0.02145785489701666
0.021424412601627408
0.02112719958764501
0.020872737653553484
0.02098296984913759
0.021046906913397834
0.020829724724171682
0.02054099271656014
0.020453481810400263
0.020499172401614488
0.020573617898626252
0.020465665367664768
0.020403708054218442
0.020458972011692823
0.020445262338034807
0.02031951055396348
0.020273889660602437
0.02025001464295201
0.020257901216391472
0.020281903641298414
0.02034842492896132
0.020421441866783425
0.020342945695156232
0.020377066059736534
0.02034725119243376
0.02045386433135718
0.020642429307335987
0.020622615376487373
0.020531872104620562
0.020477222697809338
0.0204289102810435
0.02026459134882316
0.02024868646170944
0.020290339870844037
0.020432628330308945
0.020465619676979258
0.020417325142771007
0.02039071494131349
0.02052200804813765
0.02048861689749174
0.020351881517563016
0.020240635450463743
0.020190661962842568
0.020226875676307828
0.020309999077580868
0.020456388082820923
0.020516095688799398
0.020375029863789678
0.020305429748259485
0.02053702768054791
0.02080985834822059
0.020922689008293673
0.02081299713579938
0.020763002845924347
0.02079639595001936
0.020938358566490935
0.02101117854239419
0.021030590201262384
0.021079423946794122
0.021116002403432504
0.02113056881236844
0.021200242271879687
0.021186247036093845
0.02117153540835716
0.020825369480298832
0.020361237454926594
0.02019812955521047
0.020405008279485628
0.020595379365840927
0.02057296408107504
0.020648999541299416
0.020674491652753205
0.020804826663807036
0.02082993772928603
0.020830592054408043
0.020887229720829056
0.02084644789341837
0.020743189469212667
0.020648999002296477
0.020627127796178684
0.020678881262429057
0.020755270494846628
0.020778565898071973
0.020913651747396216
0.021044144385959952
0.020999162270454688
0.0208673345297575
0.020721175082726404
0.020640909344656393
0.02071032890933566
0.020840190415037797
0.02078204097575508
0.020734970663907008
0.02082495261915028
0.0208766176039353
0.020855849793879316
0.02084455167525448
0.020858095844741912
0.02099724973086268
0.021087189946556464
0.020990946931997313
0.020912507112370804
0.020991027737036348
0.021071672496618704
0.021041181817417966
0.021038865147856994
0.021074965588049964
0.02106118151685223
0.02112936877529137
0.02110756560228765
0.02103826592909172
0.020996077520539985
0.02062778386520222
0.02027548669371754
0.020348396539920943
0.020176954689668493
0.020494296209653838
0.020717947599478065
0.020734916598303243
0.020824873411329464
0.020840387971838938
0.020824386663734915
0.020875502750277518
0.020781841644784436
0.020605336290318518
0.02057636561570689
0.020463628818979486
0.020224568131379784
0.01983055759803392
0.01978798613185063
0.019606865242822097
0.0193667486612685
0.019482409188058228
0.01940052113146521
0.019331866167485712
0.019259058783063665
0.019259079943876715
0.01919279618305154
0.01920643036835827
0.019268233386101202
0.0193626614799723
0.01937515918863937
0.019508996108779684
0.019654433774994685
0.019767571496777235
0.019787799201440068
0.019726389116840437
0.01973156984895468
0.0196589082328137
0.019422599020181223
0.019232677401741966
0.019166863603750244
0.019149980245856568
0.01908348084311001
0.019040931252529845
0.01899793524527922
0.018987687999615446
0.01914041957235895
0.01932649783557281
0.019312476632185282
0.01917236214503646
0.019149369488004594
0.019156018579378722
0.019169891034252942
0.019220657360274344
0.019212034113006666
0.01915485684527084
0.019142541085602715
0.018854002892039715
0.01861397219938226
0.01858852355973795
0.01849349235650152
0.018434260089416055
0.018344032124150544
0.018318407366750764
0.018373548506060614
0.0184961542673409
0.018573295632377265
0.018640734606888146
0.018755089950282126
0.018826515411492436
0.019027655040845276
0.019474064513342455
0.019731457199668512
0.019676711591891945
0.01967390090576373
0.01983480784576386
0.019938978992868214
0.019956825439585373
0.020051364931277932
0.019965399294160305
0.019855300360359252
0.01994156189612113
0.020004774329718204
0.0200044708349742
0.019944580740993843
0.01991703369189054
0.019947066953172908
0.02000415971502662
0.020115465020062402
0.020208540086168795
0.02026714368374087
0.020286312607349827
0.020301361652091145
0.020264209262095392
0.020256486311554908
0.020219722990877927
0.020194103424437344
0.020177819727687164
0.020147694994229824
0.020124172066571192
0.02010969933588058
0.02009401151794009
0.020078507266007364
0.020069519074168055
0.020079902857542038
0.0200824323494453
0.020097815536428244
0.02005116784130223
0.02005526939756237
0.020038538937224074
0.020015646934043615
0.019930918994359673
0.019760675956495107
0.01986329647828825
0.01978591401129961
0.019565397741971538
0.019613105956232176
0.019621413436252625
0.019623706865822897
0.01953810475068167
0.019531213492155076
0.019593766310717912
0.019626000862335787
0.019500254868762567
0.019465326541103424
0.019601791051682086
0.019708840165985748
0.019671229101950304
0.019525039695436133
0.019544693499337882
0.01959753201343119
0.019659940672572703
0.019799837475875392
0.019718983162892983
0.01968535760533996
0.019620483596809207
0.019742889364715667
0.019894102989928795
0.01975753954844549
0.01946873260778375
0.019291892939945682
0.01931370982667431
0.019399560978636144
0.019497606563381852
0.019467331510968508
0.019391272517386825
0.019379776852438226
0.019393735728226603
0.019347673822194336
0.019424519021995365
0.01944110239041038
0.019384699430083856
0.019491850431077182
0.019575952898012474
0.01971638950635679
0.019950512187788264
0.019801070158137007
0.020057786331744865
0.020691286050714554
0.020950096489395945
0.020953141810605303
0.021047349422005937
0.02113481093547307
0.021021599330706523
0.021040688977809623
0.021160007287980988
0.021147600742988288
0.02110815010848455
0.02123511959332973
0.02132601654622704
0.02128814724390395
0.02128559027914889
0.021229425673373045
0.021150100888917223
0.021136390137253328
0.02119320702389814
0.021195341045968236
0.021114739909535274
0.020953503203345464
0.020812843203311785
0.020743507284205407
0.020815971896518022
0.020848399319220334
0.020797930021071807
0.02085867838235572
0.020850498703075572
0.021017884344328195
0.0210991988517344
0.02093746256432496
0.020925029693171383
0.020910651102894917
0.020924225657945498
0.020802872076164932
0.020890727104851976
0.021008323853602632
0.021005542535567655
0.021020010203355925
0.02102300364524126
0.021067610194440933
0.021155481768073515
0.021602482547750698
0.022147355435881765
0.022385606674943118
0.022336968921590598
0.022428875940386207
0.022195452569285408
0.021917644394561647
0.022056147523690017
0.021982430854113773
0.022011171936756
0.021936369052855297
0.0218395484786015
0.02185381423216313
0.02184252112871036
0.021844425190938637
0.02181869845138863
0.021742260834435
0.021741993057075887
0.02173046722775325
0.021758032569196076
0.021667499706381932
0.021615876636933536
0.021401622637640685
0.021396329157287255
0.021379403803730383
0.021655186557909475
0.021947906970744953
0.021957716383039953
0.022159745089011265
0.02241844333591871
0.02258978665457107
0.02245625970303081
0.022354388654930515
0.022485262629343198
0.022556482603540644
0.022427771784132345
0.022407456059008835
0.022378934192238374
0.022502916988451034
0.022623701062984766
0.022609705548966304
0.022765508883167057
0.022854698013979942
0.022921060596127064
0.023071691227378323
0.02301817056373693
0.022950387981254608
0.022828186737606303
0.022771832690341397
0.022813592642778532
0.022756284213392063
0.022879227214725687
0.02306051359162666
0.023026487815659493
0.02294208117062226
0.02304461504914798
0.02296329130535014
0.022866256170673296
0.02289248352521099
0.02302847270620987
0.02304225223371759
0.023115028213942422
0.02321300993440673
0.02327472641482018
0.023197946711443363
0.023031680340645833
0.02307529464131221
0.0231902690557763
0.023206829680129885
0.023161064494634048
0.023082399524282662
0.02274139993591234
0.02239345712820068
0.02229523418820463
0.022225355649134144
0.022108348321635277
0.022239953526295722
0.02250745564349927
0.02253802353399806
0.02253606491489336
0.022598363554570823
0.022570737904170527
0.022537805798929184
0.022588462086860092
0.022524981737369672
0.022640927706379443
0.02311282540904358
0.023622341997688635
0.023605262419441716
0.023720234690699726
0.023766457143938168
0.02378111128229648
0.024001865523168818
0.023954374827444554
0.024030366472434252
0.024174216382671147
0.024144188039936124
0.02412398393615149
0.02426525367074646
0.024581009928369896
0.024965466937283055
0.025112768963444977
0.02506135607487522
0.025025548884877936
0.02496735293418169
0.025121341610793026
0.025498680339660497
0.025825895410962404
0.025756600993918254
0.025607340877177195
0.025763090448454023
0.026057123687351122
0.026311296361964196
0.02630965575342998
0.02613257092074491
0.02615595468203537
0.02615444204886444
0.026187440707581118
0.026166695597348733
0.026155999227194117
0.026179366160649805
0.02612104916363023
0.026059165738988668
0.026175335383741186
0.026353520749835296
0.026339168862905354
0.026170647479593755
0.026057789043989033
0.026065509137697517
0.025952508138725534
0.025883027436211705
0.025926784666953608
0.025804915686603636
0.02578368371236138
0.02578301528119482
0.02583605263265781
0.025800826505292206
0.025954808426322414
0.02609772764611989
0.026160937005188317
0.026401585392886773
0.02651094856671989
0.026504740237724037
0.026639118359889837
0.026734032769454644
0.026759999024216087
0.026808330008061602
0.026807791566243397
0.027031211716821418
0.027065728664165362
0.026989888137904927
0.027063729823566973
0.026962528000585736
0.026926554953679443
0.026834175487747417
0.026552178103011102
0.026565945128677413
0.026290218640351668
0.02579881158308126
0.02556596136186272
0.02552117799059488
0.02527471531066112
0.025137986096087844
0.025164857415948063
0.025016115348553285
0.024856253681937234
0.024833147592144087
0.024949218322290106
0.02507372957887128
0.025121353478170932
0.02508131568902172
0.025127403193619103
0.025042560884030535
0.024981197643792256
0.02495819195988588
0.0249392475921195
0.025063125506276266
0.02516464172163978
0.02519630330032669
0.02517137212562375
0.025294326387811452
0.025396390871610493
0.025330814700573683
0.025428195713320747
0.02560109429177828
0.025839339091908185
0.02590648236335255
0.025814258441096173
0.025894696753239257
0.02583966895355843
0.02592612708103843
0.02589070773916319
0.025922212251462042
0.02585199042921886
0.02571383734117262
0.025660036149201915
0.02565418741083704
0.02560448365868069
0.025496141331968827
0.025461590867489576
0.025072838108753784
0.024625545531744137
0.024593199655646457
0.02488954092259519
0.025007698864210396
0.02495646945084445
0.025006904661422594
0.024892127654748037
0.024926110215019434
0.025010076739126818
0.025042578153079375
0.025008170423097907
0.025043925864156335
0.02526208888506517
0.025592584075639024
0.025805262215435505
0.025835040997480973
0.02585961378645152
0.025794767535990103
0.025759634056594222
0.02596215676981956
0.02599289639503695
0.02600672676577233
0.025890230033546686
0.02582870137412101
0.025677875539986416
0.025401733296457677
0.025430722479941322
0.02504931518458761
0.024812818134669214
0.024834716796176506
0.02491699060308747
0.02499086653580889
0.024879959241952746
0.024733850586926565
0.024754636152647436
0.024730626385426148
0.024773959247395397
0.024702663543866948
0.02461528213461861
0.02462599240010604
0.02458600450423546
0.024620396218961105
0.02460116390371695
0.02449188905884512
0.024580703685060143
0.02448640268528834
0.02466254946310073
0.024983713474357502
0.025182117954827846
0.0252994411252439
0.025225443332456052
0.025052995547885076
0.024987869503675028
0.024970490640262143
0.024877329682931305
0.02474749480956234
0.024595536986598745
0.02444523883634247
0.024310105957556515
0.02427209329791367
0.024223001798382028
0.024098128308542074
0.024019526914926245
0.02402467553387396
0.02401394045795314
0.023921638826141133
0.023761286954395472
0.023915354617638513
0.024315345466602592
0.024388335762778296
0.024404471706366167
0.02461106973933056
0.024602658309740944
0.02480844989186153
0.024918681010603905
0.02467612722888589
0.024358766406076027
0.0243156820256263
0.024329268423607574
0.024327946847770364
0.024356660975608974
0.024291512260679157
0.024309566800948233
0.024401508814189583
0.02426692383014597
0.023989003682509065
0.023535680231871085
0.02364749489002861
0.023859203853644432
0.024048492911970244
0.024001077645225452
0.02387315933476202
0.023921296185581014
0.023793151740683242
0.023665293995290996
0.02362623521592468
0.02364161458448507
0.023569394265068697
0.023280757210450247
0.022868566680699587
0.022676781959598883
0.022643755252938717
0.022589774271473288
0.022666256214724855
0.02265623711165972
0.022428678274154665
0.02215829475433566
0.022148828005883844
0.022286110998829826
0.022164643625728786
0.0219251728488598
0.02189443965558894
0.02195574896526523
0.021959398547187446
0.021915942863561213
0.021871950156055392
0.02188476820127107
0.021881701574893667
0.021977807412622497
0.022067805752158165
0.022064706531818957
0.02215772487106733
0.02213333098567091
0.02201236072811298
0.022018192586256192
0.022143955073552206
0.022172916053095834
0.022309833882609383
0.022607900486327707
0.022877446631900965
0.0228797475900501
0.02301803812617436
0.02351825370802544
0.02397569117252715
0.024119765011128037
0.02411293583107181
0.023826104423496874
0.023799813908990473
0.023978291711537168
0.023752439881209283
0.023795190658420326
0.023748973176116125
0.023530440751928835
0.023402729540830478
0.023378951530903577
0.02330822477117181
0.023216603227192534
0.022981660851510242
0.022935836226679385
0.02310395386419259
0.02318955544847995
0.023222863464616238
0.023190790388034656
0.023148208432830872
0.023133259823080152
0.023136425713310017
0.023095818414585665
0.023020456534577533
0.022928957206895573
0.022949116518720985
0.02306726383860223
0.023168310049222783
0.02334653860074468
0.023618075322592632
0.02384403619915247
0.023839603542583063
0.023897881627781316
0.02371155212749727
0.023541792412288487
0.023536515453597532
0.023536327917827293
0.023511829189956188
0.023597689614398405
0.02361503111431375
0.023677489921683444
0.02363349179388024
0.02360691152513027
0.023717581273522227
0.02378625102690421
0.023782928868895395
0.02378274509566836
0.023792948432965203
0.02371431877836585
0.023490403631003572
0.023381655170815065
0.02324045390705578
0.02318617020617239
0.02316014179843478
0.023181771185481922
0.02305226619821042
0.02299852078198455
0.023077082241652534
0.023091679099015893
0.023099293570267035
0.023104670058237388
0.02321337049594149
0.023317483782302587
0.023333640249911695
0.023353962998371572
0.0233069328404963
0.023211430318187922
0.023055938924662768
0.02284057443263009
0.02263078230433166
0.022738652147818356
0.022717920943396166
0.022660398284206167
0.02276147055090405
0.022760849421611055
0.022670555461663754
0.022667183128651232
0.022605740933213384
0.022522825662745164
0.022475490637589246
0.02241842437768355
0.022370114267105237
0.022359337066300212
0.022493387972936034
0.02257488957722671
0.02245284924749285
0.022343253355938942
0.022343160951277242
0.022267494774423538
0.022456780656939374
0.022502702771453185
0.022488254284253342
0.022451531098922714
0.02242889239802025
0.022252320654224604
0.022200345708988607
0.022097951270407066
0.022289306094171478
0.02250207941280678
0.02244547662558034
0.022693908064393326
0.022802786950487642
0.022825020055752248
0.022868055538274347
0.022840107816737145
0.02291034344700165
0.022795441382331773
0.022761484280927106
0.022909253819379957
0.02314294788753614
0.023236326725455
0.023316683982266113
0.023132140658563
0.022800237205810845
0.022631254920270294
0.022731045364635064
0.022732673692516983
0.022871195761254057
0.023068163874559105
0.023072025295114144
0.023091192115098236
0.02307004919508472
0.023141528199194
0.023133222383912654
0.023230497628683223
0.023324901271844282
0.02331823085201904
0.02348773422068916
0.023678127652965487
0.023703093065414578
0.023746292411815376
0.023996258751722052
0.024182036947458983
0.023909608303802087
0.023522981494897975
0.02363369334838353
0.023868117643287404
0.02375481518683955
0.024099398504476996
0.02400025256560184
0.02383506492828019
0.023872121995082124
0.023921185502549635
0.02404288199264556
0.02417689919588156
0.024101053406484427
0.024074351073941215
0.024099839349510148
0.024243072577519342
0.024476070837117732
0.024679475612938404
0.02448558446019888
0.0245712919277139
0.02459016497945413
0.024203021909343078
0.023898557004285975
0.02399231045390479
0.023899040835676715
0.023996390826068817
0.02406134898541495
0.024184856679057704
0.024357609396101907
0.024327989051816986
0.02419603254762478
0.024133416127879174
0.024212095915572718
0.024442985521163793
0.024610854299971834
0.024723234529374166
0.025213294592685998
0.025678090304136276
0.02578777153743431
0.025704229507828132
0.02562089252169244
0.025527142378268763
0.025535608188947664
0.02542019570712
0.025279564781812952
0.0253091570653487
0.02547724952106364
0.02552362319547683
0.02556128873024136
0.025656781583093105
0.025801761331968008
0.025816597705706955
0.025795817890902982
0.025918391338782387
0.02597098926198669
0.02593553755665198
0.025902877288172022
0.025884294487768786
0.025785214371280743
0.025902251882944257
0.025855961624765767
0.02557865611859597
0.02531371987774037
0.02524194516707212
0.02504030740703456
0.024569160081446172
0.024137083342066035
0.02402875000378117
0.023906721888342874
0.023944507158594208
0.02378658690024167
0.02360879482817836
0.023768714101752266
0.02370299800299108
0.02367264065775089
0.023644069927977397
0.023622485399246215
0.02363080993294716
0.023724460480734705
0.0240817886358127
0.024479383875150234
0.02462395600741729
0.02451188151258975
0.024819340062094852
0.02548410582821816
0.026011496589053423
0.02611431071185507
0.026197642266051844
0.02613332720124163
0.02608811778249219
0.02601029668119736
0.026080500178504735
0.02621094433357939
0.02620175320073031
0.02608725003665313
0.025889992426382378
0.025669017428299412
0.025490776093211025
0.025570223366376012
0.0254087634885218
0.025607871708925815
0.025914024530211462
0.02597130266018212
0.026099560173461215
0.026302197793265803
0.02627848191186786
0.0262845927500166
0.02626266399398446
0.026220946287503467
0.02616639152052812
0.02603014765656553
0.026207164806546644
0.02655530481832102
0.026680019106715917
0.02671266089193523
0.027108249287120998
0.02740760678774677
0.02725772619480267
0.02729617585777305
0.027465114291990177
0.027621025869157167
0.027657996048219502
0.02766843038494699
0.02763342923950404
0.02772447212366387
0.027863747037481516
0.027884037495823577
0.027931462930282577
0.027827062594005837
0.027724059550091624
0.027827434815699235
0.027801723567536102
0.02779714682837948
0.02792777327587828
0.02798818159964867
0.027990669547580182
0.028149752634344622
0.0281472020491492
0.028049527957336978
0.028027943681227043
0.027898779251845553
0.027759147295728325
0.027787318113259973
0.027781574990367517
0.027936962535604834
0.027902958034537732
0.027661147982580587
0.027657968853600324
0.0278818844538182
0.02790915413876064
0.028161789260338993
0.02848203505622223
0.02874608751386404
0.028828060189262032
0.02882532489602454
0.029000354885356502
0.02905588669120334
0.0288757963583339
0.029017807587515564
0.02900586912292056
0.029094475066522137
0.029116462013917044
0.029007485235342755
0.02909441790776327
0.02884855428477749
0.028498908082256094
0.028534254169790073
0.028348947112681343
0.028200021696975455
0.028176327088149263
0.028059685530606657
0.02815547102713026
0.028130871324101463
0.028215756863355635
0.02817611675709486
0.028045837078243496
0.027913805502466856
0.027797965003410353
0.027746791723184287
0.027724168573040515
0.0277557927230373
0.027670479967491703
0.02755332866217941
0.027607303733238952
0.027485434929840267
0.02733333592303097
0.02742761448957026
0.02749022564617917
0.027538389642722906
0.02747503333957866
0.02750666460604407
0.027498759913723917
0.02741896347492002
0.027626587494742127
0.027950236201286317
0.028220032369717957
0.028280483755515888
0.02838279587449506
0.028285169969312848
0.028216927335597573
0.028385366504080592
0.028484104434028268
0.028186019364511594
0.027884931972948834
0.027946103676222266
0.027876011005137116
0.028040546532720326
0.028265995377441868
0.028293838758254423
0.02838827846222557
0.028324846061877906
0.028191790926503018
0.02834835321875289
0.028272512084804476
0.028325238107936457
0.0281323157728184
0.02798654171288945
0.027895714052719997
0.027923302580602466
0.027750511799240485
0.027646308310795575
0.027825204549590126
0.027942460192134602
0.027803860747953876
0.02780633946415037
0.02764909989316948
0.02756425740546547
0.02743996520410292
0.0272884345066268
0.027293846679385753
0.027424106093822048
0.027523417125921698
0.0275148668163456
0.027487097927369177
0.02737747218925506
0.02737392434035428
0.02700229940819554
0.026422859876183792
0.026356255182763563
0.026430154629051687
0.0266110395709984
0.02671988238347694
0.026664680424146353
0.02664395437575877
0.026552301872288808
0.026438276243861764
0.02634834607830271
0.026401473531732337
0.026404715022072197
0.026224292372353374
0.026143849252257496
0.026128088091500103
0.026077448463765904
0.02613738617277704
0.026165808740770444
0.026140559850027785
0.026131362767191604
0.026081677108304575
0.026066489202203228
0.025998096542898565
0.026028324424987658
0.026159468991681933
0.026275491951964797
0.02638577297795564
0.026503922923002392
0.026513202962232755
0.026397955813445152
0.02636436598026194
0.026504974219715222
0.02642434639390558
0.026387687576934694
0.026408968997420745
0.026226658537052572
0.02634670596802607
0.026510827369056644
0.02655538948485628
0.026705572692444546
0.026712781947571783
0.026647471473552287
0.0264203778852243
0.026166511266492307
0.026040989118628205
0.025990932672284542
0.0257811252749525
0.025431194555712865
0.025102439146721736
0.025044852484716103
0.024995882604271172
0.0250443442130927
0.02501139579573646
0.025080059947213157
0.02509659535251558
0.0249662050337065
0.025137745544780047
0.025313105629757048
0.025470423200167715
0.025853073170874267
0.026241608764976262
0.026362785371020436
0.026416720697889105
0.026253351662307977
0.025927442689426244
0.025888221537461505
0.025747724247630686
0.025555599991930647
0.025581379730720073
0.02564047025050968
0.02557132896152325
0.025528501308290288
0.025586497597396375
0.025682850393932314
0.02558205116423778
0.025425327019765975
0.025430494011379777
0.025331921249162406
0.02517129702260718
0.02510602253372781
0.025082852984778584
0.024906250223284587
0.024729611198417843
0.024621600911486893
0.024605981745989994
0.02479832048760727
0.024956375169567765
0.024772291983244942
0.024748625662177802
0.024885882679373025
0.024831229782430454
0.02495976901031099
0.02512437302968465
0.0251054660056252
0.025115428537828846
0.025224714706419037
0.025214648569235578
0.0257770739053376
0.026357304697157816
0.026253333430504427
0.026460785294184462
0.026589747451944278
0.026628666375763714
0.02663671145448461
0.02674543979926966
0.02690853730542585
0.02703157548326999
0.026897009655367583
0.02685818698024377
0.026833234856603667
0.026699334910372272
0.026467544855549932
0.026502032629214228
0.0261478463455569
0.025740693847183138
0.02565436658449471
0.02580793346161954
0.025812073503620924
0.025652087844209744
0.025399896110175176
0.025503253419883548
0.025415584068978207
0.025401465686736627
0.025307972988812252
0.025264177307253704
0.02526553943869658
0.025268377483589576
0.02532985436031595
0.02537533143768087
0.025525480080395936
0.025909420517273248
0.02648688805056736
0.02674473585560918
0.026997058532433584
0.027528822692111134
0.027926036374410615
0.02784829091397114
0.027806384426075966
0.028016807823441923
0.028307117252843454
0.028479726942023262
0.028522991578793153
0.028492619149619713
0.02838778457371518
0.02843938895384781
0.028404747809981926
0.028256437953095882
0.028302373870974406
0.0282726994715631
0.028150503042852507
0.028082285698037595
0.028106310258153827
0.028186762555269525
0.028155880351550876
0.028108333533164113
0.028251478745369242
0.02816717971698381
0.027693923898041248
0.027397654668893667
0.02739382299245335
0.027315280835609884
0.027313748999731616
0.027275974301155657
0.027158449642593042
0.02709997561876662
0.02714620418380946
0.027142644613049924
0.026957736545009537
0.02673425618908368
0.026570884737884624
0.026470130406087266
0.02647979598143138
0.026410922518698497
0.026326273299055174
0.02635456916759722
0.026606814475962894
0.027179539439966902
0.027304094608407468
0.027606787045951934
0.02779251697473228
0.027718341300496833
0.028023617998696862
0.028207274737069382
0.028065758300945164
0.027828161317156628
0.027688330019591378
0.02779106962843798
0.027807766477344557
0.02783997669466771
0.02786559086292982
0.027928838323568926
0.027888188902288676
0.02787867543869652
0.027881742204772308
0.0280810683418531
0.02816824824665673
0.02803145515616052
0.027983176629059015
0.027966709167230874
0.02790320223197341
0.027927374941064044
0.027908446700312197
0.02794854372739792
0.027929635319160297
0.02814275779761374
0.0284679128380958
0.028581891007488595
0.028532051482470705
0.028542726594023408
0.028487563516246154
0.028555983608821407
0.028749268087558448
0.02887882573995739
0.028852909246925264
0.028848652670858427
0.028889963085530327
0.028916730509372428
0.02878483445616439
0.02898704185965471
0.029434953210875393
0.029797645887592806
0.029815435005584732
0.03004708393011242
0.030075552517082542
0.030157534808386118
0.030205441089347005
0.03017559432075359
0.03013933219248429
0.030261038114549593
0.030442513707093895
0.030409377351170407
0.03039174837525934
0.03062139965244569
0.030850632484070956
0.030821639478672294
0.030918350387364627
0.03091779347276315
0.031010583300376312
0.031032093436224387
0.031001453867647796
0.03130529309855774
0.03157768438337371
0.03151344974176027
0.03169326875708066
0.032028449177742
0.03212636691285297
0.032015234930440784
0.03183187438640744
0.03176022324012592
0.03187060463707894
0.03200123292044736
0.03210821631248109
0.032244028240675106
0.03232756084180437
0.03235013848636299
0.03240498208673671
0.03224927136441693
0.03207661124295555
0.03213531068526208
0.031872204559622336
0.03155828968272544
0.03163446557475254
0.03189580424805172
0.031852473740000276
0.03202340920339339
0.032214515092782676
0.03225422016228549
0.03233279363252223
0.03245042599621229
0.03267949110013433
0.03285446700174362
0.032895242555532604
0.03282916253781878
0.03288970123743638
0.03294144043349661
0.03274602295714431
0.032478829617612066
0.032512782543199135
0.032305326999630776
0.032155996921937914
0.03217425038455986
0.032243040413595735
0.03215975736500695
0.03225728043122217
0.032478980952873826
0.03238153840880841
0.032370053512277085
0.03267245654249564
0.032632117996690795
0.032637278588954356
0.03301908121793531
0.03320588613045402
0.0332183488633018
0.033368737773271276
0.033606191923609
0.0335324956884142
0.033667319170199335
0.033320106496103105
0.03275224665179849
0.03286539601860568
0.03298874794039875
0.03327273233910091
0.033314760755747554
0.03401202270644717
0.034694445760687816
0.034565794587833806
0.034957275241613385
0.03532446293625981
0.0354409452190157
0.0357838328264188
0.03572229825891554
0.0358943300251849
0.03601472166134045
0.03657642622943968
0.03687788025592454
0.03675667317234911
0.03688458715914748
0.03709861038951203
0.037179562628734855
0.037312756925821304
0.03724869447993115
0.0372515426017344
0.03724490040913224
0.03734349886304699
0.03732509232009761
0.03749763160943985
0.03786361605278216
0.03849617052124813
0.03929921242990531
0.03946513259666972
0.03933737717568874
0.03919809483923018
0.038941861455095934
0.03880621404037811
0.03821501826052554
0.037797183427028355
0.0378120608034078
0.03780464211013168
0.03760418353136629
0.03739307269454002
0.03742039405857213
0.03736616881447844
0.03767409496125765
0.03819748221547343
0.03840863964520395
0.03839694715803489
0.038633678160840644
0.038912314359331505
0.038883436624892055
0.03919801781303249
0.03949322179076262
0.0394786107679829
0.0395445703889709
0.039778312142007055
0.03973838150850497
0.04009413548046723
0.04069896943517961
0.0408648037572857
0.04123086494160816
0.04193763107410632
0.04250135983107611
0.04248792787198909
0.04269510024576448
0.042964729755185546
0.04307061799801886
0.04347404031199403
0.04351134521537461
0.04392283747904003
0.044287037655012684
0.044185939092421904
0.044306280220625924
0.04440609715180471
0.04433962489943952
0.044278071152511984
0.044283703652909026
0.04413259136606939
0.04395800905418582
0.044097611259203404
0.04394980076467618
0.043660262761404736
0.04362264430266805
0.04329707854310982
0.04308257340104319
0.04306398331304081
0.043085179399931804
0.04307399877230637
0.04302422060747631
0.04321784647880122
0.043194341206690294
0.043542780210264025
0.04388519057654776
0.04390719985938631
0.04428510809550062
0.044469806601991874
0.04417313228477724
0.04420218937564641
0.04428049013484269
0.04424479926121421
0.04428825101233087
0.04438334002275951
0.04436507108039223
0.044519749112660066
0.04460313840187155
0.04477005869615823
0.04491183628095314
0.04466524939169176
0.04507696338812821
0.045857183801708744
0.046264662605244665
0.04632862559054047
0.04614195080241188
0.04593914019409567
0.045881037027575074
0.045828859179746356
0.04579994908766821
0.04587420711643062
0.045712603160645814
0.04575604252633639
0.04569300796720199
0.04519082817016169
0.044994927818188445
0.04518535231705755
0.044879683272447436
0.04486288692918606
0.04468467329395935
0.04459217077353969
0.04468817798187956
0.04487836020882242
0.04503034255467355
0.045018532634712755
0.04504151675268076
0.04523999943514354
0.045215602257521824
0.04511044758372009
0.04524943646159954
0.04546618072548881
0.045392138327006254
0.04535540321026929
0.045708570400020104
0.04573135665967129
0.04550674823927693
0.0452593036799226
0.04528994516585953
0.04510822347830981
0.044748581267194824
0.04471950353588909
0.044658288104692474
0.04453708506072871
0.04457349139032885
0.04442216953146271
0.04465919154230505
0.045066609325585885
0.04519712462904863
0.04505449235904962
0.0450527408986818
0.044968381038634105
0.04485562084591947
0.04491864479146898
0.0447594434930943
0.04459695418830961
0.04453518679365516
0.04477212795638479
0.04502269005519338
0.04498687226441689
0.045317032122984525
0.04521234621061012
0.04559501173091121
0.04569422015338205
0.046043708851793784
0.04633905786089599
0.04622203067410737
0.04641241703415289
0.04650569576653652
0.04633929501986131
0.04622197491466068
0.04630774686462246
0.046434028943767774
0.04652990762493573
0.04656795475399122
0.04653826565714553
0.04654159742523916
0.04651133839040995
0.04659505863673985
0.046473644628422336
0.04628431221004575
0.04621624481631443
0.046135615154635164
0.046031830611173066
0.046095627320464704
0.04607229941058904
0.045786670540692284
0.045500860075699166
0.04529281702474691
0.045094519678968936
0.04486466128611937
0.04487266849144362
0.0446805689658504
0.04437506980495527
0.044337848887080325
0.04439928196370602
0.04412411335972138
0.043733971206238495
0.043772856356808915
0.0432683064090088
0.04258604614762589
0.04257110556820407
0.042066230253549296
0.04196491240523756
0.04197799405548722
0.04182523067458533
0.04214932058006525
0.04203492384403944
0.042213771240785715
0.04182769373524934
0.04148446030099876
0.04146013715886511
0.041106459693983195
0.04089277510764077
0.040855742912972344
0.040789649427169936
0.04078653328353539
0.04083708005142398
0.04103232504916377
0.04103773833950981
0.041046392997959626
0.04082700739149004
0.04038813152583316
0.03962592459633015
0.03885792211978696
0.038629323430359366
0.0383640240947716
0.03794215681962669
0.037988191448384896
0.03795409710146487
0.03791263027582317
0.03805504577234387
0.03831649090745486
0.03843434420763515
0.03864431227557361
0.039024751827819275
0.03911646125488914
0.039127730675973
0.03894335369346663
0.03854729646001943
0.038418291875859725
0.03844995442428626
0.03846318357274867
0.03878542313002981
0.039441053182817994
0.03925544248777442
0.03914696787716821
0.039282273814314976
0.03913202028721571
0.03892176381545141
0.03890678406576626
0.03848971163504757
0.03796915305196308
0.037894801785005254
0.03743181576719508
0.03673233520239592
0.03610566618270241
0.03600285808672197
0.035655200963374226
0.035398507143836466
0.03532196169835515
0.0349158073682338
0.03487705421168357
0.034483618726953866
0.03408167422981933
0.03415027059614659
0.034027692864183334
0.033960977083770556
0.034149798881262544
0.034503846024163065
0.03478794395574369
0.03464162205928005
0.034387573776766656
0.03427335472777486
0.034272223252337426
0.03427673775004223
0.03425155747914687
0.034352204365422946
0.03448816312593408
0.034525911503005775
0.03457955453544855
0.034826919041806834
0.034909247778123244
0.03478173761395738
0.0347918673150707
0.03471079630195163
0.03462579349870794
0.03462187026743777
0.03439513911493122
0.034091493505984546
0.03428006730624475
0.03427850358420983
0.03425032170955092
0.034411437435774135
0.034443714858498425
0.03439026234904304
0.03442730701644905
0.03414378589601256
0.034185612489236517
0.03412160332663916
0.033698254983173685
0.033568026358261706
0.03304820091696456
0.03237375622848049
0.031933033732930195
0.03201296648709104
0.03231095166062005
0.03236253153183497
0.03237364305532538
0.03257952182437293
0.03268348435056396
0.032598515645368024
0.03289557725773193
0.03323600848671049
0.03334262254065834
0.03345534809981473
0.03327174578560516
0.03305172113119625
0.03311018983251415
0.03307818179600872
0.03308190464391373
0.03298781755496748
0.032843380608828736
0.03257531441980973
0.032364106182940305
0.03237117978162132
0.03237810167716816
0.03210279069957323
0.03187797735445201
0.031808350936044005
0.03161530978861265
0.03164757848600857
0.03202255618292838
0.03224506569211371
0.03205904171452858
0.03204657310852781
0.032071882996242494
0.0320344831852708
0.03203071217751131
0.03208807052695192
0.032148620347725226
0.03207861476810649
0.03218789184349589
0.0323879221198149
0.03243231169763021
0.03254019965301268
0.03217468114919029
0.031777623032685366
0.03169049640418962
0.03187905049999244
0.03194317077985034
0.03203609474701807
0.03211640232009813
0.032076758677139876
0.03208348327898421
0.03228245517238974
0.032472576858708635
0.03209978120285086
0.031553577167214825
0.031635376756312325
0.031354718909133224
0.031388128855032844
0.03098639992531389
0.030886207035509868
0.030466734126675873
0.030100963521981612
0.030261063115904107
0.03025535415392369
0.030295096681220456
0.030347604596754535
0.030396949445130304
0.03023311565048061
0.03029102476546541
0.03042791145155206
0.030417002158937976
0.030500641001854092
0.030695004555163906
0.030611613143701106
0.030725235257996246
0.03076154492329806
0.030787219466874377
0.03097249546321109
0.03099513718043454
0.030924455645726993
0.030956326599698512
0.03079957061447203
0.03102520486456342
0.031235122581711038
0.03129417530144565
0.03142620220198296
0.03144167320453562
0.0314416200411506
0.03156017322326079
0.031723303188337014
0.03170095924171619
0.031837619352154435
0.03193361736251973
0.03198059233603999
0.03231383967795409
0.03261383910896257
0.032963555962778626
0.03313108474947512
0.033142438309732826
0.03284966213395819
0.03265438466100022
0.03244239462655969
0.032124391415854915
0.03207571231061593
0.03172133187763393
0.03152464597253129
0.03152418231475167
0.03147931776358746
0.031445487352320924
0.03151571422466077
0.03154637780040503
0.03148766132886521
0.031469029907602815
0.03164458066574298
0.031940927457762884
0.032036174944369125
0.03220616903970949
0.032424429992679506
0.032473028695676476
0.032519530528225
0.03254162756027654
0.03252368984045461
0.03245260295225307
0.03265335357747972
0.03288070018053986
0.032905451093101876
0.033081074365181845
0.03309738980140537
0.03282476038322784
0.03274164764909074
0.03248959931079298
0.031885889368131755
0.03169723897473887
0.031908049810444934
0.03189430392696522
0.03186122409417294
0.03187331735738553
0.0320663430984132
0.03214729380328208
0.03166695977328345
0.031019914851058275
0.030924298466416075
0.030950808705529197
0.031175736045697705
0.031503549830522386
0.03154323180904612
0.031614108440699056
0.0315080292057246
0.0312886897532735
0.03134122714051046
0.031637023030780254
0.0317482004861813
0.031923097354592755
0.032268575886264445
0.03243659403407946
0.03255777721991762
0.03293510178220458
0.03334299512440339
0.033616189804160965
0.033729747178731485
0.03373616069671698
0.03364043552195653
0.0335412613931112
0.03347686141380109
0.03330630034324713
0.033058101935312154
0.032756267142249273
0.032735414571361615
0.03271429391228594
0.03255649868980982
0.03268792237271555
0.03292481908807531
0.033022776298457755
0.032882728257682174
0.03279423701693304
0.03279495707829483
0.03270956905675121
0.032408598611364144
0.032296913887839764
0.03231755364802666
0.03233338897349313
0.032115594199858606
0.031956244078464806
0.03219813468400389
0.0322707759833429
0.032414021524600684
0.032321150222560394
0.03253292190376669
0.03296791188651696
0.033372107982868326
0.03354658956406638
0.03344277406926267
0.033467707360396164
0.03349577467772178
0.03333195039536804
0.03313757720519789
0.033033712597098204
0.03302407052484341
0.03301754154148512
0.0329316534253303
0.03288974339142442
0.03278235477861017
0.03258194809663109
0.03256662965985015
0.032619827514281496
0.03256201625452377
0.03262328665470705
0.03282183267176151
0.03258499823743478
0.03216714410344139
0.03188588338671252
0.03189961711526848
0.03193543495493941
0.032548468948807564
0.03303880665102042
0.03315265897079371
0.03364121760590933
0.03364472051849589
0.033855969465803354
0.033947599226376045
0.03419954168610275
0.0341073294763919
0.03418182680150494
0.034448365716962144
0.03472160350997001
0.03485207296675071
0.03483622594270855
0.03504431296139956
0.035650424694176765
0.03608634888078086
0.03592609662213363
0.036211701950524006
0.03637440241058357
0.03709672084776685
0.03699542769347317
0.037644963026978076
0.03809892292134464
0.03829673918196932
0.03861406182986684
0.03856805873685516
0.03842612700071186
0.03845042771426961
0.03846673032967374
0.03829717349610291
0.03811713664443232
0.037943419135408475
0.037809366406872866
0.037770550359273326
0.03778037833399139
0.03778258286882192
0.03808209898765199
0.03841679864563048
0.03863859198754653
0.038589397775940594
0.03904440472600981
0.03964796852786094
0.03987178316921927
0.040018679953645914
0.040203238100511955
0.04012729487963952
0.040194927975535394
0.039991071212571117
0.04007110851816833
0.03991990556009114
0.03988063373486511
0.039957017583074045
0.040255013498244806
0.04060134455561638
0.04047475869534537
0.04024754644953646
0.04030774072161876
0.04037370123318396
0.04041854270384647
0.040648144126171244
0.040474189480300994
0.040544458165531976
0.04060397491208278
0.04044758022064343
0.04078680610284209
0.04113780123880133
0.040914330274099485
0.04174551861477085
0.04238712560152635
0.042377222493523735
0.04264243289362639
0.04262251449050382
0.042688397751189766
0.042883827931946145
0.042967917204368856
0.04295344186597504
0.042909184910822656
0.042563200847944245
0.04235223826603032
0.04239562506088987
0.04205229415092617
0.04146720121847466
0.041125972589943556
0.04101349521544762
0.04103102824999951
0.04107788258581422
0.04121349848806858
0.04146892815479077
0.04166315597598441
0.041758462249999864
0.04215872528613545
0.04254051182535477
0.04269452537409961
0.042767184268450366
0.04296336838393472
0.042955481476383284
0.04297400115523487
0.04338918370194733
0.04381951374933123
0.043977762730792166
0.04398385155014694
0.04397199780796655
0.04405768133699894
0.044100472190184516
0.04409484434407204
0.04435230671311729
0.044593878503656016
0.044687290493166075
0.0447856547520496
