0.010526185964699834
0.010550995748490095
0.010543254980584607
0.010484394310042262
0.010423248219303786
0.010412372724385933
0.010449532503262162
0.01048803198034875
0.010503780874423684
0.010513715958222748
0.010522421905770898
0.010520224786596373
0.010518360185669736
0.010522944645490497
0.01051422709831968
0.010486620286246761
0.01045547881280072
0.010422605711501092
0.010381558458320797
0.010334196786861866
0.010298905755626038
0.0103088476753328
0.010361629406688735
0.010396033417200669
0.01037182220024988
0.010340402974979951
0.010372653359081597
0.010448434192221611
0.010493931288365274
0.010493071535602212
0.01048490780289285
0.010472708140732721
0.010409097411902622
0.01029387602233328
0.010209972814191132
0.010207171192159876
0.010246742584276944
0.010284164522308856
0.010310568612767383
0.010342548009939492
0.010400671109091491
0.010463024493074045
0.010487029310315848
0.01047751102829352
0.01047548403730616
0.010501846598926931
0.010536114104324952
0.010538612582022324
0.010498147364705801
0.010451046577654778
0.01043394063366577
0.010437643986660987
0.010426365863531828
0.010386566531378776
0.010336817082716152
0.010292752858949825
0.010267592832678928
0.010278138990979641
0.010303173252614215
0.010314408062258735
0.010337859422434122
0.010393524045357481
0.010431367424316704
0.010400436036288738
0.01033469701767899
0.010304755594115705
0.010322692645713687
0.010350961871445179
0.010352743392577395
0.01031425393302925
0.01025967078283429
0.010221031662076711
0.010194487542612478
0.010174778047949076
0.010183607811341063
0.010216267151990905
0.010240790494717657
0.010247090244665741
0.010244551753858104
0.010261819303268567
0.010302175277611242
0.010300971269607544
0.010237233887892216
0.01018240089295432
0.010177080325083807
0.010192731019342318
0.01020848997286521
0.010230488337110728
0.010254975750576704
0.010270923317875713
0.010284820381784812
0.010299698336748406
0.010281665052752941
0.010217016575625166
0.010180699814809487
0.010227976342430339
0.0102927385433577
0.010315762351965532
0.010326960261445493
0.01034542017383501
0.010353485936066135
0.010350169828161598
0.010356959671480582
0.010398606203962118
0.010466624291148037
0.010517591153038665
0.010524188792333007
0.010497667081654071
0.010467558457748964
0.010443989172345028
0.010416423884453251
0.010391916999360547
0.010382956205867232
0.010383489893283694
0.010394370954018087
0.010428385634440929
0.01048267872305587
0.010527506559155882
0.01053926173481159
0.010543896413873882
0.01057059389539063
0.010583972265012563
0.01054563402896747
0.010494030111003668
0.010483740045456215
0.010497601950773969
0.010480447858572006
0.010431323560187594
0.010414109111297875
0.01045846285414882
0.010504448550054803
0.01050240310258232
0.010499904803000391
0.010556373004801571
0.010634896901901812
0.010658936135005206
0.010620842832140624
0.010569687387906014
0.010546824801713229
0.010553853053133935
0.010559016148326918
0.010548852129140869
0.010539925342891365
0.01052935231826268
0.010498939140234143
0.010469716949155555
0.010479669217020274
0.010515218601794914
0.01055403241654858
0.010613345559686422
0.010672953214962035
0.010678969476139173
0.01065632468322292
0.010676790674915537
0.010741048116469755
0.010800163900712504
0.010827977439621463
0.010817523057339714
0.010778660865034907
0.010745134874014184
0.010741087571950629
0.010757080225739629
0.01077272293274291
0.010772255371557548
0.010747942548478022
0.01071920879301615
0.010703760280739516
0.01068786426098086
0.01067717864178121
0.01069622865645215
0.010730247686151415
0.010753508069319651
0.010769268354633823
0.010782549688592553
0.010795420437352732
0.010822409940883517
0.01085923464037478
0.01087600580183789
0.01086838765302673
0.010850960921961814
0.010834621519315989
0.010849421337479726
0.010889279922703282
0.01088402656489052
0.01082069949246943
0.010764813837595285
0.010725838235812262
0.010662434954429045
0.010603394609643147
0.010594938001595437
0.01058896251837723
0.010526969077764079
0.010459685911191627
0.010467450136784464
0.010513995833462105
0.010503430771641432
0.010437706334050745
0.010399355568224564
0.010437584473984317
0.010520424464484677
0.01057375660398975
0.010583820287138224
0.010594746619462967
0.01061574790859595
0.010636765309609473
0.010649945174809545
0.010632200576364994
0.010599849770078435
0.010592774783726782
0.01060215790872462
0.010612799663795159
0.010622468653600663
0.010609210226684809
0.01057809907826595
0.01056963334674947
0.010577274526003749
0.010554050534265115
0.010514370278688148
0.010513468201970681
0.010533179986523464
0.01051595012540929
0.01047768308664672
0.010485026376554742
0.010554559017764404
0.010634476807899773
0.010673739279154689
0.010676562221487985
0.010674184822710231
0.010663916884223
0.010628279437078163
0.010585387710016221
0.010562275928677992
0.010554262960795313
0.010532944345613941
0.010493778036907314
0.010476064113900065
0.010487771056359634
0.01048054093727842
0.010445872460259124
0.010419931027572603
0.010399122323142364
0.010377051115501672
0.010394358907360584
0.010458577609388158
0.010518767064204439
0.010541813750751316
0.010533670871518552
0.010512383446330204
0.010484267047140748
0.01043619524454698
0.010366540665272624
0.01030420694150962
0.010269413145724684
0.010246711804065854
0.010222638413542881
0.010203430950641633
0.010195699564646929
0.010205049748765304
0.010224355178652332
0.010235568047501148
0.010236500722821801
0.010228802235797047
0.010211828575702384
0.010219088078010828
0.010284381363308058
0.010357367633841931
0.010366464897524566
0.010340979282045738
0.010347279651323333
0.01037261736462824
0.010374269749736414
0.010370399442035706
0.010401602558558806
0.01043512460659258
0.010382572067901491
0.010231027996633201
0.010086732824565842
0.01004340439918451
0.010070138910086825
0.010086778384866192
0.010076115385163575
0.01006139644770883
0.010055383248254657
0.010059875204460696
0.010059760470176116
0.010043097677407787
0.010047496740007773
0.010112206353805959
0.010195727255195379
0.010247860475210473
0.010300187300890684
0.01039328655344434
0.010491090312134474
0.01051046610577032
0.010434889164753259
0.010367307381238788
0.010394840304506943
0.010469001854071394
0.010500842628534884
0.010485852187266574
0.010467436332255602
0.010445684411097318
0.010393630992621184
0.010325884202029557
0.010279452911345289
0.010254858841653914
0.010234800870530308
0.010218016689177602
0.01021989859524183
0.010262411281000822
0.010319172736490145
0.010334023556206376
0.010323820714838804
0.010332311459351332
0.010339010616298765
0.010317398677580058
0.010286312743555754
0.010269266373943537
0.010271349885733798
0.010299657665891573
0.010351471769390629
0.010388632473768667
0.010391316581517459
0.010397096073720604
0.010423120146151632
0.010434824097901583
0.010430205621523782
0.010443930600304156
0.010466168749844655
0.010459673559525982
0.010435278719523922
0.010429656517226249
0.0104374922439456
0.010443904428975657
0.010468565949704498
0.010508794540073722
0.010533697745995597
0.010550297563895583
0.010558138365158811
0.010522413924336433
0.010485244616866111
0.010515265295980498
0.010554767318535597
0.010525755644775927
0.010476753504481167
0.010491228181635961
0.01055399858392775
0.010576317042578012
0.010523749095154926
0.010464456274639815
0.010473917938070372
0.010528205633163453
0.01053878480102867
0.010480033247731627
0.010415202687727287
0.010412257068092004
0.010474404393462464
0.01053834359976463
0.010545552844414488
0.010510979011887684
0.010494266767054797
0.010521011142991483
0.010570039311423897
0.010606939221033826
0.01060530825983733
0.010579601450590417
0.010564776576356962
0.010533935721032322
0.010470783464843408
0.010365044319769368
0.010318176207365469
0.01030066639301367
0.010268647474003956
0.010266303400276228
0.010344072880689054
0.010467581870034336
0.010558956955792382
0.010593176643596961
0.010608252134406939
0.010627337745390833
0.010640668185660616
0.010645695260027423
0.010649776401696726
0.010662177476333454
0.01069302428746596
0.010738424806622788
0.010774709740653634
0.01077847629203461
0.01074622867279686
0.010691305890213698
0.010631726923165843
0.010582863459130749
0.010562387570971624
0.010591539139859378
0.010659610294969752
0.010700738512678071
0.010666545345447958
0.010604005581699312
0.010584271895932034
0.0106038262846414
0.010629799184389412
0.010664714861195534
0.010713598052971065
0.0107396032277029
0.01070793589227833
0.010665562509093434
0.010686481252778322
0.010757905828068032
0.01080961262458004
0.010790590057149529
0.010688330088742077
0.0105543363513425
0.01048111286247149
0.010491253952495753
0.010520245239604264
0.010551517867716029
0.010633812670130282
0.010735986018553377
0.01076648654183373
0.010720856531988829
0.01066992070293054
0.010653109533013776
0.010639228851068765
0.010583215684164315
0.010512540683848784
0.010488922049989923
0.010497756073018536
0.010492589886998758
0.01049168849713169
0.010526523931184783
0.010588421649299563
0.010663460799260066
0.010738256245385856
0.010778639793861657
0.010750141891185195
0.010665351673960686
0.010589412129484117
0.010578791270963847
0.010632961982628331
0.010707306714029982
0.010737154404632748
0.010693193960469216
0.010638969435822218
0.010640565258217976
0.01065474548144266
0.010613867761567235
0.010546409945236519
0.010528732351958751
0.010571659291163087
0.010612984383478762
0.01061113658710383
0.010598971154540776
0.010620626049349085
0.01065824031131342
0.010664381546666846
0.01062684297794476
0.010562757976585999
0.010506037746090442
0.01050921978894621
0.01057100144214928
0.0106096209527459
0.010592198538361117
0.010571532632457092
0.010559303602203727
0.010516463564708829
0.010456367263104767
0.010441479147411883
0.010501298590097576
0.010569147981004789
0.010645205659093335
0.010696024750359356
0.010753751622978598
0.010796459441771732
0.0107876534643583
0.01074962024576962
0.010717418853892014
0.010696481791092083
0.01067963631474413
0.010664491504430771
0.010654353498248384
0.010637958906590939
0.010600389370229096
0.010569419839885085
0.010577044201781974
0.01059080253704451
0.010569476652890444
0.010530386311002076
0.010511301043443382
0.010528960622614249
0.010571453854208813
0.01060353939421475
0.010609748113201931
0.010608500284142793
0.010606420412659644
0.01059106761822477
0.01057261304697022
0.010581616526469589
0.010610502937342971
0.010616347428876906
0.010597890807548537
0.010586036057211458
0.010575601243181154
0.010556873577879742
0.010567666813731193
0.010631927199428902
0.010693119197385385
0.01069403785513714
0.010670177144929767
0.010671182769583539
0.010680780439870433
0.010703206968028098
0.010780034974450245
0.010869794304016977
0.010895806604530663
0.010871667173923925
0.010825575906783342
0.010751480562612414
0.010694486587308347
0.010700017843628302
0.01072531810379587
0.010714382560690865
0.010675580642418936
0.010652901070425286
0.010660113185876981
0.010664052595384419
0.010642298930324614
0.010626148155424744
0.010655843833228573
0.010708521453198045
0.010722374359611422
0.010683942991308868
0.010627537872642279
0.01058099240763113
0.010567566112149507
0.01061272096587345
0.010706880855141208
0.010795558511745185
0.010823029719758778
0.010783601901493967
0.010729995410656556
0.010713140219449998
0.01073727166862227
0.010777640393935145
0.010808263192884623
0.010816709710052236
0.010808301862562075
0.010809503766940906
0.010832244683988392
0.010846352797234431
0.010836310929153114
0.010818349892506376
0.010803825391922145
0.010804776443401352
0.010828124257968738
0.010858804896706716
0.010887896440690383
0.01092527162632905
0.01096340962452814
0.010982132349163294
0.01098428389756009
0.01097460642689839
0.01094402440241538
0.0109049434796907
0.010890172146027909
0.01090229516965337
0.010908952031750232
0.010895208201836794
0.01087944838567637
0.010882065052865073
0.010890492693288251
0.010845682597719133
0.01072202055947855
0.01059109271154739
0.010507401347858832
0.010444211437134072
0.01040334433550015
0.010428563357563689
0.010492387283593417
0.010512693924829364
0.010495169219793751
0.01052829878171906
0.010620085200062022
0.010664730768185108
0.010607876688009128
0.010534477522596716
0.010521839059656486
0.010524337016977369
0.01047910018824041
0.010418123252457008
0.010412894542096183
0.010459856587694959
0.010491281545255334
0.010481050317175687
0.01046453470014967
0.010472352675860748
0.010493728879373521
0.010501931501785293
0.010501046681310982
0.010509822885505855
0.010515390547225252
0.01051137481816113
0.010522092985920608
0.010541513516800478
0.0105364901793655
0.01051005421555601
0.010503086671233177
0.010538813364692033
0.010580292458180339
0.010584560753777623
0.010575667110970244
0.01058528858004138
0.010588473802199587
0.010564125119708478
0.010526067158207298
0.010482962374808266
0.010458077463554219
0.010483663040213287
0.010530503728659824
0.010558209796436131
0.010586418150924147
0.010628077890723944
0.010661996975541115
0.010684087626868859
0.010696506567765027
0.010690374284749851
0.010689608433749527
0.010725327420514076
0.010748298682738095
0.010698176936712116
0.010617261439329014
0.010564758334076031
0.010526455387007446
0.010481346760643646
0.01044489736086689
0.010434822981478646
0.010450057281414047
0.01046739098848775
0.010470907988492399
0.01047920398414135
0.010499681707005947
0.010517401152756066
0.010539492735406384
0.010569128916831688
0.010582586501259357
0.010582307107979432
0.010590116120874881
0.010579770613694563
0.01052557586459443
0.010471298558404668
0.01045641660108231
0.010466145077953116
0.010474494466325267
0.010472438967553899
0.010475480540189892
0.010493946914793923
0.010501030515879393
0.010480651950929313
0.010456205138470977
0.010425405361456797
0.010378615248482674
0.010385257205925882
0.010488928544800729
0.010597305328119547
0.010637426506727934
0.010659086006926373
0.010694512040354312
0.010701648800168186
0.010678684166632592
0.010680698736105115
0.010730550377629697
0.010804486331762746
0.010868035787716508
0.01089481581468135
0.010893179135164245
0.010899629252962768
0.0109132685943041
0.010886580316582694
0.010807781885378063
0.010733491922728718
0.010705187724670395
0.010694814481539652
0.01068184015690349
0.010711960968328639
0.010812867915956304
0.010920439867768438
0.010978652973426506
0.01102709884638898
0.011084221970522777
0.011080792830325663
0.01100685958052054
0.010959184927633031
0.010981048546964302
0.011012745011830702
0.011016177602577955
0.011018185975262895
0.01103708203881979
0.011051084186183288
0.011038048373302444
0.011012536915950477
0.011004675750155003
0.011005442125024275
0.010983096823329106
0.010946157489670441
0.01092138722538948
0.010907027989160269
0.010893537851516158
0.010873647603439167
0.010840483288047835
0.010804268923820928
0.01077874630689621
0.010774368344573303
0.010802181080216543
0.010848798401420936
0.010891131162643432
0.010928106741048396
0.01094459615764208
0.01091461386415176
0.010865567085565998
0.010841341358609497
0.010837768756318837
0.010839931524824351
0.010847042942186818
0.01085068627493456
0.010851071837823838
0.01086327001452446
0.010867724444251508
0.010822361177997664
0.010754386140033602
0.010741942070890218
0.010791554532479495
0.01083692248328589
0.010851318048080429
0.010865507086273284
0.01088289414299652
0.010863663224736229
0.010799375372007489
0.010742467739619314
0.010747170659014956
0.010810741004534066
0.010889536323957146
0.010945883900858462
0.010962128278333694
0.010950854551047086
0.010951337076257915
0.010979485611896963
0.01100770665332675
0.011013547626789659
0.01101314167608507
0.011037872030865401
0.011091589797288179
0.01113805962027982
0.011156342066824436
0.011166384600801393
0.01116327942814678
0.011121628563851118
0.011071043992415071
0.011049020963255315
0.011033489119727164
0.011026306120911614
0.011056769039714708
0.011066446184413508
0.010994403344811872
0.010902461351361126
0.010855536629678681
0.010828941432991996
0.010809220620431007
0.010835140129784123
0.010908580535324291
0.010953448062064126
0.01090691024903208
0.01082395804929547
0.010807524641277268
0.010858692979672924
0.010902510188752785
0.01092754007782787
0.01098787077353336
0.011078922468004748
0.011131622939137742
0.011129504421260207
0.011115567100932821
0.011109086541691795
0.011084874494699762
0.011015516520710662
0.010932114081224426
0.010898713761707767
0.010906929043121636
0.010906795948976651
0.010926216188818217
0.010996722208801657
0.011035718604689463
0.010981280856067316
0.010907776384847238
0.010885297178756446
0.010885815958026797
0.010867514427518472
0.010833200991619378
0.010812620867509394
0.010825065503595396
0.010845890796044842
0.01083914510323666
0.010822455303277821
0.010840361433802173
0.01089034310891293
0.01093339552753605
0.010952728358097375
0.01095497386297211
0.010948187618050725
0.010942754845600575
0.010945636266842484
0.010954061020165683
0.010945597485406324
0.010898658712394536
0.0108477981609758
0.010836324425181374
0.010837348335189744
0.010815547903766855
0.010786735472502187
0.01077369146514684
0.010770894972374663
0.010752945920685306
0.010721581724938005
0.010723121620249004
0.01076810274971649
0.010796884419396519
0.01077267139335163
0.010744804672431201
0.010775081670144572
0.010843998509226366
0.010889646931318567
0.01089828283758834
0.010899769917596131
0.010917405459331349
0.01093866744195111
0.010920590178575367
0.01086576474364847
0.010851327909622342
0.01090418141335249
0.010942814708687364
0.01091842460911721
0.010879746833816172
0.01085596037330106
0.010814179787412287
0.010745315535459668
0.010693261025007814
0.010682936462108045
0.01068475774372928
0.010679692903067917
0.01069277805625461
0.01072855744161643
0.010754249469609931
0.01076038008206524
0.010753930660430342
0.010729135726578534
0.01070067495922558
0.01070868078386411
0.010761294140247629
0.010816319317091256
0.010843757484108209
0.010848863610299304
0.010838832092704252
0.010830691836308687
0.010851637505693361
0.010903276088647544
0.01096223378321156
0.010997757046716287
0.010982690720120446
0.010919819409027696
0.010838444050168618
0.010775617046747357
0.010766064046183601
0.010796077522682026
0.010807863851077855
0.01079764325520955
0.010817671277327462
0.01084949396783486
0.010813244919991121
0.01072385375155136
0.010690523016965017
0.0107470585743431
0.010805811176542193
0.010799200037727132
0.010766969216056167
0.01077235531527549
0.010799214410362766
0.01079700950649567
0.010780570302158595
0.010774235707940534
0.010743556952802465
0.01069545718608424
0.01070067779161036
0.010756344647379592
0.010785995681071654
0.010767455255845562
0.010729631998110563
0.010684461260680109
0.01064827665919438
0.01064574159681797
0.010657602722058073
0.010647594387410208
0.010623176998924464
0.010602738518500701
0.010582113637356087
0.010574110874440521
0.010600280157523229
0.010635088640265166
0.010638126571429894
0.010608774119755254
0.010563453977229074
0.010518855741247534
0.010499266439583153
0.010518183218082414
0.010550581690622493
0.0105535421310924
0.01054292575106956
0.010578410386806354
0.010656079025939107
0.010711353140650318
0.0107064338773489
0.010670059395488351
0.0106669974909164
0.010712780762696638
0.010747861813288183
0.010720276235369966
0.010655227488605305
0.010623196987435222
0.010645652913954109
0.01066979065304622
0.010647469479590655
0.010591464568860828
0.010544890413293616
0.010519442282384262
0.010479516083141788
0.010408615751657635
0.010362861561588943
0.010391688231611624
0.010447997259907424
0.01046918326872401
0.010473975219065323
0.010491333199897781
0.010500214042840525
0.010495666994247586
0.010507197713013738
0.010529451069887728
0.010515391010558232
0.010460260674590246
0.010432651119772344
0.01047478716704063
0.010527403695741669
0.01051361413905397
0.010434259048197418
0.010342348966514692
0.010276300740661099
0.010233783310977742
0.010208191531710327
0.010198724181391299
0.010171301669906825
0.01011890577385202
0.010104956616414711
0.010145837935851887
0.010169833215186372
0.010138162224320695
0.01009446835378185
0.010076943396124988
0.010061550645623356
0.010032674532849341
0.010039473944343626
0.01010692629381083
0.010175712264608592
0.010197876605670899
0.010196894207037985
0.010215728122275322
0.010275712055154144
0.010346671659499406
0.010358313949545846
0.010316761044086888
0.01031533076078631
0.010370601470349357
0.010401532624382526
0.01038355812896043
0.010375155616784468
0.010400500539690256
0.010419990207301453
0.010408725844463333
0.010384716140106321
0.010368962551001459
0.010367651238339022
0.010384097784990444
0.010411872806726024
0.010426602773368359
0.010407533005345613
0.010358413220383228
0.010303641540231183
0.01027298747561872
0.010284204074414447
0.010318066113395617
0.010327849199529737
0.010293753360165282
0.010240201918641105
0.01020817220560275
0.010219168348703534
0.010254293655743823
0.01027998745907098
0.010273114687297493
0.010238842855906115
0.0102232659177389
0.010248473841929808
0.01028336287359707
0.01031446204171516
0.010341273496160285
0.010342317671747878
0.010333206173963844
0.010367999533191324
0.010433327642967925
0.01044444068102166
0.01038615042110905
0.010336311188293621
0.01034093026886694
0.010390262573491783
0.01045791370794177
0.010498017311329022
0.01048726333770901
0.010453328796429559
0.010442288882331922
0.010492157696280629
0.010579405340831727
0.010614470795262605
0.010571154450299219
0.010536456006811933
0.010574192731874064
0.010641015178989618
0.010681716784602032
0.010721132952021435
0.010807662449078635
0.010918308906257152
0.010979262647451834
0.01096059282310307
0.01089593103621155
0.01082383029279299
0.01075638214009814
0.010693578097270801
0.01064097843482159
0.010612276499159634
0.010629260645946487
0.010710155963897705
0.010824837307445705
0.010892453535925597
0.010872854818589985
0.010817670027026906
0.010806430820375681
0.010868904202943667
0.010960849554976448
0.011014370517805218
0.011018373997649178
0.011003585770959034
0.010982525362633168
0.010967899746028707
0.010975723848678171
0.010982589025516062
0.01095348563278094
0.010908242496661842
0.01090156429912895
0.0109282655979041
0.010931778004160151
0.010908939529908821
0.010894411902409046
0.010879157104063779
0.010844273901311681
0.010821671356679871
0.010847469264408573
0.010892353911185638
0.010897872530622408
0.010863115892279894
0.010843391701346263
0.010868118825601413
0.010897438499378041
0.010881037588696928
0.010839318312937394
0.010833549464587122
0.010866201164899393
0.010883248209720477
0.010867667361162603
0.010849408585345372
0.010838941951515153
0.010828957945341245
0.010833000802667811
0.01085795132094063
0.010876737545477227
0.010876482023159042
0.010879406568128615
0.0108951252582483
0.010915838612709195
0.010943913687951863
0.010974690801231191
0.010987853138940408
0.010989225502125919
0.011014623831724748
0.011068605135660619
0.011113810470560566
0.011120214547263458
0.011096221449552104
0.011083058007061481
0.011098570650210604
0.011122428444214166
0.011147661443101243
0.011160191630478948
0.011136262494837866
0.011104668985353783
0.011107310879742727
0.01114549322752282
0.011196321313036606
0.01121304783388041
0.011166291345143691
0.011104681463912129
0.011086998124374076
0.011091337646357715
0.0110779599158559
0.011051862786989658
0.011010954118100926
0.010950270142639057
0.01089748515514657
0.010859908898128197
0.010814558764686809
0.010767264427850023
0.0107320889539551
0.010696612218162045
0.010669067879207432
0.010674130433471873
0.010690868066158146
0.010680085399653762
0.010649304828839377
0.010635505837853998
0.010640015685930848
0.010624948083423078
0.010579509066883475
0.010541375114116817
0.010538496924564243
0.010552197445649654
0.010562737443251535
0.010590143365552649
0.010644573245663196
0.0106912772054784
0.01070050837821327
0.010661759484792128
0.010571042244555429
0.010470382126513869
0.010429988864343613
0.01046258448739536
0.01051914293318987
0.010553147762548178
0.010557745913974941
0.0105591728980653
0.010580868344986812
0.01062522382242605
0.010683858812553808
0.010744451123755425
0.01079703826806508
0.010836814400972799
0.010861120058689267
0.01087799233268015
0.010897730899741873
0.010897078138077632
0.01085442811716348
0.010813283657189459
0.010827858808916062
0.010893094098428265
0.010964060426922516
0.011005520261824131
0.011014660478103906
0.010997534326743335
0.01096158794593066
0.010920704824384302
0.010877767006168142
0.010844356395537033
0.010843144869431854
0.010854400511598215
0.010840035524452105
0.010812460648594424
0.010796053358353675
0.010779022470815107
0.010752386985113844
0.01073191340896301
0.010743152449140324
0.01079296879353933
0.010838490875903517
0.010831925231032073
0.010790472517255694
0.010763938485179097
0.010755385968368501
0.01072878015693277
0.01068019180558622
0.010638746181502939
0.010607672515325248
0.010573304308345542
0.010551293602911755
0.010561536627355962
0.010584434744669125
0.010586080953944475
0.010568698255810886
0.010572004624409602
0.010610978035256267
0.010637448092456907
0.010623600998660549
0.010611627332400531
0.010622850600630045
0.01064146435703151
0.010672359047457575
0.01071254355367273
0.010730121536180377
0.010711462402250618
0.010691417567431926
0.010706734438426792
0.010730003027711064
0.010715733852703125
0.010678732640808448
0.010653986415127293
0.01064429686171934
0.010641450427938253
0.010638551890151575
0.01062324952101335
0.010587976424722001
0.010549160956870765
0.01054820184595883
0.01059588258038275
0.010642292753327637
0.010660925110569224
0.010681623130803928
0.010713733655866236
0.0107440574048087
0.010770580926910044
0.010775991094997153
0.01075188891380094
0.010734517332166434
0.01074547141091898
0.010755327898077666
0.010733432605629787
0.010691144291777165
0.010663734712870791
0.010650595552287995
0.01060409909230657
0.01050606048782356
0.01041675173328258
0.010408185052219777
0.010474582033930346
0.010547717452282087
0.01058162385248579
0.010572071967180819
0.010523498061811552
0.010471059081610293
0.0104760036629159
0.01053366471081972
0.010575316711328924
0.010580123618710786
0.010581280904589221
0.010585039560683072
0.010573586449027061
0.010545463977614418
0.01050816522911191
0.010472247090656311
0.010449890961172058
0.010433727349154652
0.010416764490073546
0.010419776162598282
0.01044211993459612
0.010442988597787917
0.010402845637872814
0.010338379939785227
0.010266234137816355
0.01021709245396778
0.01024030190310441
0.010314100407995283
0.010348371888976544
0.010321611230028793
0.010277895798208193
0.01023793836357072
0.010231677134288474
0.01029504208243452
0.010385851736646145
0.01042567476280965
0.01040556984837167
0.010374737639212981
0.010361502141458914
0.010355596715817228
0.010353681679116562
0.010373018459649757
0.010410871088970453
0.010433381892507896
0.01042752192937769
0.010429950569523498
0.010475700561655685
0.010542519191512839
0.010589495950844139
0.01062199263018556
0.01064675379311666
0.01063588259043172
0.010608058554353192
0.010621680074837058
0.010665385855827481
0.010676108481129631
0.010633880239911377
0.010581739859189839
0.01057257030159235
0.010589456121670083
0.010569802989484742
0.010517243304057046
0.010487485444173217
0.010487843421287835
0.010485645186854527
0.010476347566582262
0.010465214288560674
0.010429486798821018
0.010374205653788523
0.010360669135116041
0.010403518846724183
0.010440625940682367
0.010460646332940087
0.010509665800491348
0.010579292181646452
0.010626050815917552
0.01064087127102539
0.010645565261365847
0.010665948725072667
0.010701255050953477
0.010728654158301652
0.010746661915909499
0.010763340658741072
0.01075943504460156
0.010722881865222007
0.010670852061593905
0.01062112124171108
0.01060330594656989
0.01063202134682797
0.01065245697973296
0.01062518966384232
0.010604736864333972
0.010636355334427208
0.010671070970129221
0.010663770922692493
0.010652552418177948
0.010683629659470171
0.01075444167945534
0.010817367373965681
0.010803117920877412
0.010721780710155145
0.01068003916880116
0.010719484826549887
0.01076906279544346
0.010786336894379928
0.010791275195078925
0.01077626335551031
0.010721884373342618
0.010660334319109097
0.010631537957815454
0.010632670050254091
0.01063922951114364
0.010629721762379632
0.010616000335430727
0.010639688583323733
0.010697752586565912
0.010738956015557051
0.010740804879460483
0.010713401925750076
0.010665875195991248
0.010626096526393666
0.01062343453988433
0.010628387792967259
0.010606633819406852
0.010600838431855664
0.01063490454456769
0.01063553535961546
0.010581811803858728
0.010571984036359935
0.010624293866567314
0.010625846381299198
0.010548389976611361
0.010477208320517094
0.010445976599585264
0.010432430995861068
0.010432715674396605
0.010450761606916785
0.010479732411913573
0.010504549273755402
0.010504580879351124
0.010473143684212118
0.010430716664995999
0.010395545422798023
0.010362250229809434
0.010327308372361586
0.010298149256268516
0.010276472488185391
0.010261094139423221
0.010245734442723914
0.010212025084765628
0.010174221242778003
0.010190770642366261
0.010247931226622313
0.010254454277455806
0.010218700109981
0.010233763608848676
0.010296337191248313
0.010324076371034607
0.010298830175306648
0.010276532048592343
0.010285131038399413
0.010293282591737807
0.010288968278327957
0.010296339322812854
0.010303932116366923
0.010289013591827824
0.010284100675489754
0.010324685601517558
0.010383711477043107
0.01040601554326713
0.010392644924577326
0.010395259003853425
0.010409103987039998
0.010391708789393305
0.010358732528984546
0.010333990670042113
0.010306267880368978
0.010287576135015115
0.010294784875586629
0.01029443746432662
0.010255832052789628
0.010208851891802624
0.010190686181886122
0.010197262217989191
0.010218485317891464
0.01024999514920637
0.01027725537540391
0.01029845290700905
0.010323156191734597
0.010345103179570287
0.010356924697989598
0.010361493376549333
0.010362581533845514
0.010382400553207844
0.010438903807662428
0.010491548030404373
0.010498013950418682
0.010490592396818101
0.010522531776223332
0.010597457629628479
0.010672549778828398
0.010704299107892438
0.01069679849082604
0.010681547870626673
0.010672129092272371
0.0106653178029228
0.010646739272633567
0.010598341110162437
0.010522855201270432
0.010454766522161662
0.010423232518369331
0.01042102430248633
0.010438258732901886
0.010466658257646486
0.010473560985410586
0.010437761171488091
0.010387332645477728
0.010378901185467838
0.010447356015210971
0.010558112355647608
0.010622504244092851
0.010609843014972285
0.010602192051010206
0.01066173534025438
0.010725918839452788
0.010720279610250145
0.010669332491233944
0.010624577489215881
0.010590325572993607
0.01057604249799624
0.010615344350226224
0.010693353846436366
0.010760381635045634
0.010796444228617474
0.010795203212182969
0.010766156343743205
0.01074300663662143
0.010735167664242908
0.01073320557596162
0.010743279785383492
0.010760419756406918
0.010761052878806368
0.010744222870562226
0.010744794430211186
0.010788681847043336
0.010832402404630556
0.010811216187430545
0.010758983026025817
0.01076217250782065
0.010824818596011027
0.010884738818276674
0.0108989523362834
0.010882391125196591
0.010879293305333704
0.010881145020248369
0.010846544028026983
0.010795693923719228
0.010778435171814635
0.010786160458810628
0.010780061373952775
0.010770159190287813
0.01079361563664861
0.010830126036889851
0.01083024294814095
0.010816283299354836
0.010833672453882172
0.010853614378720521
0.010837167125428095
0.010808210521936416
0.010806278868112713
0.010829487618757412
0.010855978191830217
0.010892132754670457
0.010934914802201092
0.010939387825783343
0.010902068518334999
0.010886371938977391
0.010914118497166782
0.010936625761678443
0.010933526268927381
0.010926983394892887
0.01091275737155229
0.010886086283717305
0.010875484044663607
0.010879733772017062
0.010869084771256894
0.010844582731369883
0.010809479360468686
0.01076507788617164
0.010743167004548013
0.010752260651206597
0.01076359633821994
0.010765481190755963
0.010760030989767983
0.010755181546555833
0.010761479462962598
0.010750935155665503
0.010689081613672897
0.0106114686653018
0.010574065427063033
0.010574562498368323
0.010573981170309707
0.010542573141865432
0.010503968517296016
0.010509786020265892
0.010546826728386804
0.010573544970247895
0.010610830305377022
0.010688798215705902
0.010772545867366716
0.010819645103765652
0.01083636429044418
0.010830371927004307
0.010799857523525134
0.010775955100543798
0.010793154847342522
0.010825900719501078
0.010817508060717955
0.010771465151337907
0.010743439792422578
0.010751025329809635
0.010756352364551277
0.010725381674710661
0.010675766054773703
0.010650075826561078
0.010650290192570537
0.010656042504124344
0.010682557070394979
0.01073956458712928
0.01078618630184792
0.010789618840208277
0.010757588060805574
0.010706821396015585
0.010669387343805284
0.010681879486655816
0.010726356462109834
0.010750263596419245
0.010743089861935005
0.010734155685640871
0.010738144564675168
0.010745092079741881
0.010744866832392291
0.010733209128957241
0.010701158989686519
0.010644789047073572
0.010604073237627744
0.010637286124983802
0.01072066436521709
0.010769855183316395
0.010767111539607868
0.010764268299099058
0.010784006521571427
0.010794398840516806
0.010778757251100614
0.0107722194341477
0.010800645881099627
0.01083651941269636
0.010842993996338918
0.010833246348192915
0.01086132054682821
0.010939634366659448
0.011006736983545125
0.011010796771151944
0.010971831730566919
0.010936025694245472
0.010922874243697152
0.010937726647825911
0.010978803733596578
0.011013921333942562
0.011000018945196643
0.010939722383627669
0.010885511707747354
0.010868924179812894
0.010865326169878245
0.010861088355304672
0.010887526500737295
0.010939865745604039
0.010969352147076278
0.010978259128751233
0.010987635583151132
0.010969241602579132
0.0109195823490154
0.010885911212535576
0.010879930201917886
0.010876589985564351
0.010873398398980499
0.010888606914086267
0.010938831166131422
0.011010931201744824
0.011054592963773757
0.011041830986505375
0.011003232367802412
0.010986122048925608
0.010993254682980479
0.01098018247517757
0.010935383175965398
0.01091036171768792
0.010924349941778927
0.010928403721190989
0.010905128725571558
0.010889059363398701
0.010887117015663535
0.010885521695017815
0.01088256732793525
0.010870810094056651
0.010847146548330784
0.010812343151774257
0.010757529882248491
0.010702465813374147
0.01068398064468056
0.0106872884335462
0.010675887003308161
0.010660021937219426
0.010660500349476933
0.010651047746650875
0.010605696041602641
0.010572248799726368
0.010615345601690933
0.010705930944532156
0.010756996501004323
0.010750537782441824
0.01074423362268135
0.010765771273290738
0.010784866027534009
0.010783907145960257
0.01078298624139279
0.010795878178905696
0.010805867781164125
0.010792412952287122
0.010754213532200083
0.010706017655320466
0.010683197849430144
0.010704688800033182
0.01071364620118402
0.010656049045501277
0.01059204780496657
0.01060842375154607
0.01067990058916621
0.010712529623415321
0.010681279752170668
0.010651933709159494
0.010674428502097726
0.010731812919257209
0.010791694890940562
0.01084101370535791
0.010872583505697548
0.010874006415251642
0.010853519671363755
0.010841129779582842
0.010834842271870003
0.01079942602198571
0.010730901178903877
0.010671303438721224
0.01065070703276433
0.010658647005911917
0.010679838757496327
0.01071755513898097
0.010760651181917637
0.010758080581435934
0.01068443177966401
0.010594636707101018
0.010544191764201969
0.010521655164193362
0.010500361572485416
0.010475827569607646
0.01045157080865465
0.010429522093618289
0.010400415544863791
0.01036492490558885
0.0103605377569329
0.010409371147397905
0.01045555665739812
0.010430366025539116
0.010363719920860603
0.010329341733595357
0.010318486689357087
0.010299072550842538
0.010299505852162837
0.010315651417477057
0.010302415401674807
0.01029590753139928
0.010348708236124366
0.010410356741631403
0.010427060485817492
0.010422373857581988
0.010417692813789473
0.010395651472499594
0.01033819114556536
0.010267746520694345
0.010240104629192502
0.010268206499749794
0.010302162811858579
0.010310916326707229
0.010322950383415446
0.010359507232205942
0.010388155692489819
0.010387231963686645
0.010394622400635854
0.010441543670604006
0.010489528374746442
0.010486189128132537
0.010452346198726446
0.010450845337472855
0.01049439987866208
0.010538879336090759
0.010544127967441454
0.010530027148779481
0.010549738254630937
0.010594286216655747
0.01061397461919114
0.010611741641769186
0.010618100543506443
0.010635400719475002
0.010657238872954621
0.010697637331904843
0.010767904735403136
0.010826076213270426
0.010805466478923336
0.010717868278734386
0.010651510948082431
0.01064141902141273
0.010643710845615715
0.010649380926042794
0.010690608031582087
0.010746550572803245
0.010771737847244367
0.01076807382516563
0.010748996802140027
0.010716578633291647
0.010700894766487182
0.010738647924736142
0.010801306621870026
0.010822288352064788
0.010815684950212017
0.010855376075487583
0.010929425625363365
0.01095386767294258
0.010909558300627396
0.010853886186378076
0.010823714069556446
0.010803388408385217
0.01077778170350939
0.010752861659275368
0.01071725737885572
0.010654023421229794
0.010600739177316427
0.010603277969639748
0.010624791641021147
0.010614156561205164
0.01061053793411702
0.010673240807373077
0.010774023353587837
0.010842054767999798
0.010853259328287094
0.01082233502296731
0.010776223066495732
0.01073547705076635
0.010690380780724809
0.010651716160355136
0.010658508812775835
0.010686891146469861
0.010677160422783345
0.01063890592311509
0.01063104985980317
0.010677400189451873
0.010735305451089517
0.010750872670905664
0.010739553939783946
0.010740350403357296
0.010735727339051664
0.01071202233666554
0.010711051338585093
0.010754979164339602
0.01079482244560495
0.01078958079800941
0.010776321201119573
0.010782923017395661
0.010768779399804772
0.01072954440722242
0.01072589163784869
0.01076807530131191
0.01079362434684299
0.010767326501663774
0.010720574404112995
0.010694155409000814
0.010695936450501905
0.010724496598122642
0.010782449707621709
0.010838300018804148
0.01084692163974978
0.010821029504295438
0.010799609875539318
0.010770213912473991
0.010697287546936423
0.010601537744514644
0.010556143017020077
0.01059251319617033
0.010644476714078336
0.010635585756972432
0.010591568612726405
0.010585970818065107
0.010613708446035161
0.010613662675023079
0.010563075321260839
0.01049587803776376
0.01047062497236766
0.010490451131481678
0.01048593440791592
0.01044262342969887
0.010425885715521872
0.010444204137893393
0.010434367780108004
0.010381979170488194
0.01032725767348893
0.010272584643680603
0.0101902166812215
0.01010438312892802
0.010084063723916188
0.010131892171921208
0.010165464888559654
0.010164348252583295
0.010198829339351505
0.010266578164882958
0.010284738511545584
0.010236659545917064
0.010160436446312815
0.010076429955661296
0.010022958195768296
0.010044887855183333
0.010115413315361366
0.010156262001255528
0.010138828884810209
0.010111645157448947
0.010115657016867771
0.01012678905390203
0.010112296177539974
0.010087014321470633
0.010085384931880981
0.010118164552841336
0.010159556202124805
0.010168807782465593
0.010147065070923418
0.010139201673446223
0.01017045772750862
0.010228421515785157
0.010279024033807219
0.010288796791573986
0.010268641882576049
0.010269084383035079
0.010306799198733643
0.010336053024511785
0.010320506109856069
0.010284981664735824
0.010269421896664426
0.010275778839131817
0.01027060127700679
0.010235452905762941
0.010208001133287325
0.01023027925286442
0.010276535557350143
0.010298895817250013
0.010316147165140137
0.01037458881852217
0.010452233769465238
0.010492177905980497
0.010496189696714281
0.010506764495512471
0.010528636003145948
0.010540191930485889
0.010546146938577295
0.010549282310530544
0.01052429290721193
0.010473991486942396
0.010447203477378935
0.010450785920256748
0.01043071263586171
0.010380062304902822
0.01034682332072407
0.01034685387625359
0.010363313284469768
0.010382297524483875
0.010397094163345173
0.010405632959445939
0.010408737933030352
0.010415714830160142
0.010427384048234671
0.010409002780215814
0.010343097392469644
0.010284628819208592
0.01028211811091751
0.010304868412204087
0.010314841388026252
0.010333839791128412
0.010387950373115018
0.010449880582746119
0.010479746654164046
0.010480082400608808
0.010487733634654432
0.010516932719619945
0.010528263438027352
0.010497021999908611
0.010463587593985722
0.010470599597319961
0.010519686646293849
0.010583124503027648
0.010619178141932934
0.010624899415997788
0.01064104306511581
0.010664638596354052
0.01064582856488414
0.010586148009169847
0.010550849516876041
0.010568974663037807
0.01059577525826171
0.01060380116221495
0.010627009748714045
0.010674432090017944
0.01069412896526046
0.010660809598630295
0.010615772065939381
0.010581501468550414
0.010514603265328333
0.010415183405857533
0.01036596721271053
0.010387116371421144
0.010421943193068727
0.01045974069274962
0.010510528557933867
0.010535474875941872
0.01050259300856851
0.010445215803338214
0.010422647970262915
0.010449245505733416
0.010480014357017352
0.010473808195674792
0.010451204063137993
0.01045335949282162
0.010473128628218547
0.010487869103671983
0.010519666044274345
0.010587446216959506
0.010645052178297192
0.010644433936104179
0.010620264793979005
0.010628886438207702
0.010647684066789224
0.010631177960895001
0.01060056292451918
0.01057867199764587
0.010533780937548727
0.010466730388579891
0.010439414276042953
0.01047269563889131
0.01051457054913044
0.010538369526620954
0.010581663534976542
0.010653575103497133
0.010705909420503304
0.010711300518596544
0.010698979299049824
0.010717609596904367
0.010765010147588327
0.010787490081274881
0.010774936485104263
0.01077028756029904
0.010778533823322506
0.010772222144296392
0.010770754610421136
0.010803339459234848
0.01083075933274813
0.010805406082654371
0.010750638596946374
0.010713443898130209
0.010701101711019874
0.010704848116729409
0.010725395469926298
0.010758205067832023
0.010807277176063508
0.010875290365656837
0.010916968246456236
0.010892604874679818
0.010845716678304598
0.010835286402143538
0.010845265885582194
0.01083956535672769
0.010856866551330313
0.01095188217354007
0.011072614361764863
0.011127253762679175
0.011134295021183788
0.011169020491652191
0.011222213730216027
0.011234986050985753
0.011205644439905882
0.011166562497382983
0.011120363940717653
0.011065388066926972
0.011026370747713373
0.011015398368472233
0.011007987551856786
0.010991465285187588
0.010994546696310862
0.011019835631595925
0.011017945790663362
0.010990288509055972
0.010999785523163155
0.011039698178647086
0.0110414600931108
0.011012408746173605
0.011011467695934697
0.011030896155862138
0.011027151866583153
0.011011630683206021
0.011028028433211148
0.011070281403372064
0.011093690301058813
0.011092681729933248
0.011095175540540368
0.011118003798183054
0.011164655683096499
0.01122484941734001
0.011285504114348442
0.011327528909314424
0.011315243736607954
0.011261621358571575
0.011245260593714192
0.011296824479941278
0.011352709018392488
0.01134011471644044
0.011271182819036767
0.011245433515869081
0.011302540095057339
0.011348489027004688
0.011323947154451161
0.011281628203578293
0.011254531318554655
0.011227550758048892
0.011213202372891829
0.011221429880242795
0.011214868079405279
0.01117619470693171
0.011145910492632537
0.011153239727718756
0.011163431253517047
0.0111251824721694
0.011062580500729382
0.011045959582552313
0.011076670365873724
0.011119105063844472
0.01117543137865141
0.011223015561699867
0.011209607780911028
0.011153574254130945
0.011127797462977469
0.011135640821885317
0.011096018959069625
0.01099901869893074
0.010951274163089693
0.010989136511925608
0.0110172222845722
0.010968241548398509
0.010880073683802038
0.010815252839820459
0.010774117595283315
0.010720765312435106
0.010668628679122777
0.010648473288165405
0.010630168141797186
0.010590072908671573
0.010580367309739814
0.010641189840389415
0.010729268261929974
0.010776344391051679
0.010764737013960256
0.010735721326200291
0.010734383751405403
0.010754916714504362
0.010749563535209745
0.010691415444016457
0.010621259220642968
0.010592884621582926
0.010590172105003149
0.01057321758242324
0.010559398853220046
0.010568010627757758
0.010548007586039602
0.010469748544273898
0.01040828640689142
0.010424336212454364
0.010468467030441388
0.010468143203761429
0.010414028621744365
0.010345070515759289
0.01030781441484578
0.010336782783269882
0.010424710569204763
0.010504294267157092
0.010516497439239174
0.010491515895118937
0.010500672628404572
0.010542233479209245
0.010554004173027352
0.010527356425300241
0.010506104533560575
0.010483975297538563
0.010417135604657233
0.010337434899993241
0.010332195565570145
0.010401713729370385
0.010468109417706728
0.010502898071426897
0.010522770908428356
0.010519302191678435
0.010483100360725075
0.010450114948907867
0.010453369376482441
0.010467484676046296
0.01046465183258988
0.010449606123147532
0.010411844484042376
0.010353195150382816
0.010333050234476105
0.010379456353839488
0.010436230858322232
0.010470038197236136
0.010504758736351505
0.010528824214125052
0.010515335306990892
0.010518609414575622
0.01059184649726376
0.010656129156704991
0.010630309242988006
0.01057112192036584
0.010544499850366264
0.010548961627064273
0.010587819463107735
0.010643292490858585
0.01065643763751723
0.010615725708194078
0.010571551835164427
0.010565570489270613
0.010594184760702775
0.010621192442486063
0.010636795900063589
0.010666937076020986
0.010694555887021125
0.01067831158870831
0.010637785209110007
0.010594993616687134
0.010527451927773655
0.010466072101844475
0.010476188183529302
0.010533971872646361
0.010565283788600936
0.010558669235324487
0.010568606483284384
0.010619303127750754
0.010658356753410772
0.010655216308077798
0.010647671594051644
0.010646674054441974
0.010616673761978746
0.010565945517737419
0.010563004615250974
0.010633166530169547
0.010708793085068464
0.010731906640576199
0.010723060971358792
0.010708928303793074
0.010672609887551516
0.01060748785501346
0.01055321521125734
0.010556900763185694
0.010623327338835224
0.010699145289836452
0.010726184038212523
0.010707385926507414
0.010683529562084005
0.010687133516184985
0.01072703205049038
0.010780013162875548
0.010826117271790281
0.010869014223571867
0.010894781866809353
0.010882824924774468
0.010852121529169381
0.010837479947367683
0.010845327727729455
0.010839426991296933
0.010773371292743831
0.010679574708919972
0.010657494580373168
0.010724078121129424
0.010791458912426605
0.010801538198720664
0.010778548097005115
0.01076420813682489
0.010761009810958058
0.010752786595840008
0.010752638679696247
0.010783875654451549
0.010820589993381874
0.010811212910339237
0.01077259105280973
0.010781994329299778
0.010851880284026266
0.010892286490416155
0.010840005646459759
0.010746626553591342
0.010684548343997449
0.010663145688595251
0.01067251107073389
0.010711959394393488
0.010766386112663895
0.010803356823744252
0.010809968125540763
0.010819166653091088
0.010855182777158917
0.010894001547712832
0.010930643583415077
0.01097898498759605
0.010980244344100356
0.010878100788686425
0.010754973551956936
0.010720919097075239
0.010743516692891718
0.010729311135364697
0.010671134203439578
0.010598263867432251
0.010505005216691643
0.010408890376565979
0.010352751051541417
0.010332522906828671
0.010324180613970384
0.010327896346570924
0.010323747993679718
0.010287330431165174
0.010258856092114
0.010297543626511469
0.010393816187279298
0.010475767555180936
0.010494760544970632
0.010471922109136358
0.010437925446312874
0.010401441977592185
0.010380245316773652
0.0103810976119712
0.010386480757733806
0.010395609348779544
0.010422927819890902
0.010455138520337642
0.01045760302687995
0.010418425308307633
0.010371099780313671
0.010362369806971401
0.010385104968445375
0.010386204468086363
0.010343099185265601
0.010285656787455083
0.010256231437670066
0.010268297414295375
0.01030885720741935
0.010357954850187525
0.010373854053905235
0.010334864646429196
0.01030115455854684
0.010323196244426071
0.010359333195956423
0.01037155180121772
0.01039116848143749
0.010446487688459455
0.010505240890197456
0.010507822178769857
0.010452479919185862
0.010419040855485945
0.010452878795331345
0.010493917263811454
0.010486451723845675
0.010458538888487965
0.010444144366774709
0.01042583154514432
0.010398481172742322
0.01040177616290748
0.010440431531751528
0.010459451382048427
0.01043234217329882
0.010383117756573483
0.010327759062638506
0.010291605778038502
0.01031461989856325
0.010362402660539373
0.01035502587677911
0.010295164070557803
0.010243894421728328
0.010214301138184965
0.010189568587811663
0.010191588229499757
0.010252812010003253
0.010349445895990357
0.010418941583484411
0.010446494091302156
0.010475040364544838
0.010518467653309927
0.01053823547437787
0.010513527600560338
0.010487153207650408
0.010525257146218792
0.010626303127501159
0.010705567029071971
0.010704654533183202
0.01066086562932469
0.010634236704790965
0.010633855022024363
0.010641979915089906
0.010644597815116867
0.010619869133224711
0.010562800958286971
0.010515681459801272
0.010500574246980249
0.010461410591378808
0.010354659829754382
0.010257181903580204
0.010283211956266313
0.010404033842496574
0.01047832429758273
0.01046614951104857
0.010459601763868705
0.010509050182299688
0.010577125321142376
0.010634960738243535
0.010683802071725949
0.010732838284457102
0.01080467697000131
0.010885942466557027
0.010907684619305656
0.010866609130753204
0.010847599937114864
0.010863408162258566
0.010836631846614183
0.010739438575692475
0.010617565182037651
0.010526088656624778
0.010494340097066015
0.01050355063402094
0.010514184969943018
0.010536457935813814
0.01060190353775397
0.010673643667250871
0.010698216205928474
0.010690214158967138
0.010671047563664614
0.010643292489694431
0.010647056659217924
0.010704530925722792
0.010766137733589858
0.010802222117781639
0.01084208077401854
0.01089355795411393
0.010925514948321507
0.010922785060247407
0.01090969931683503
0.010918242137413471
0.010936615914106369
0.010935927928658202
0.010929951624711975
0.010937967448262498
0.010941314335213973
0.010922000277787447
0.010903159418376163
0.010907358023105189
0.01089142423355952
0.010829041805118322
0.010796072258381173
0.01082528593717143
0.010835940787801519
0.010805170804960653
0.010808660316979513
0.010864052606048063
0.010893151629716158
0.010862896683393046
0.010836823362624273
0.010837310932110995
0.010805306726833806
0.010740153349470347
0.01071097914245911
0.010729188802652062
0.010754437231225893
0.01078353495337069
0.010818718271329998
0.010821920998860151
0.010795101110124961
0.010806130467681214
0.010876418919069692
0.01094667481025681
0.010974889898207038
0.01096605347120203
0.010917639745166526
0.010833787239389494
0.010753824815619737
0.010699472076958046
0.010635088825365529
0.010542419030098244
0.010490519396262244
0.01052989588235505
0.01058566317311488
0.010573787220055237
0.010526265581138432
0.01050250742235221
0.010494131746236235
0.01048662856570445
0.010493958870647475
0.01050295271561481
0.010483378600329161
0.010440941082779319
0.010411993938032538
0.010432924157939852
0.010499715958721935
0.01055081409867853
0.010547435140470043
0.010541861169040203
0.01059442237019539
0.010671016046544538
0.010694034516345709
0.010658442546846345
0.010625665484694765
0.010624971982324496
0.010637008489575238
0.010651579460827634
0.010678784776246175
0.010723262482788414
0.010772908753715456
0.010789278815500437
0.010735135581344367
0.010653373327804729
0.010635652366327122
0.010676160143921152
0.01068223612383008
0.010637778138043359
0.010616159659111873
0.010657483821269124
0.010742434684652835
0.010827197412727401
0.010872674202546477
0.010890844081295654
0.010919267195276916
0.010944699398241936
0.010933297276496888
0.010902433592127636
0.010869298747275024
0.010816413646098226
0.010771238133311272
0.01076742994133383
0.01074447306455113
0.010651462377281859
0.010563458235701546
0.010555744312005117
0.010571476079057902
0.010543072802247479
0.010510967858135701
0.010511495540849864
0.010507047310238705
0.010468783066608011
0.010410488836932928
0.010359271068591625
0.010331412199884654
0.01032323027262464
0.010331524556968362
0.010364959437865764
0.010407025453168899
0.010416158569278196
0.010405479840701446
0.010424438883783296
0.01044440065859817
0.010412012204760686
0.010361374565400183
0.010338014484150336
0.010320645078318194
0.010284197458531708
0.010249892025021835
0.010245450146030635
0.010267161263618619
0.010314205968752503
0.010403138310648501
0.010519023729721085
0.010624223831109702
0.010710958698764443
0.010784408146282658
0.010826399747747928
0.010829775363672524
0.01083517594030127
0.010870062455069274
0.010891362242400646
0.01086009867838584
0.010809433498652652
0.010772133157588541
0.010741471122018993
0.010739462393103168
0.010782134776236489
0.010811317380284891
0.010793708779383451
0.010785517096519471
0.010816152734914795
0.010827638036571443
0.010790651189163327
0.010762833468616008
0.010778060784796253
0.010799591495888307
0.010808100965805352
0.010828314316459
0.010860857459483668
0.01087921076337807
0.010897539749275893
0.01094721780042164
0.010999417112907394
0.01100309900706634
0.010962861557491124
0.010907344192964956
0.010845579167362302
0.010807867923285813
0.010842391902115197
0.010930751636624336
0.01099052935373038
0.010980862806318327
0.010943851774791256
0.010933964365394786
0.010939632392255589
0.010908049687277526
0.010840189718874172
0.010785571458982304
0.010753155305283145
0.010718460278585553
0.010696673744823783
0.010725249550305307
0.010779814042616636
0.01079839789075777
0.010787369918543845
0.010798405624227599
0.010830500483280048
0.010845566975185648
0.010836014493834227
0.01082118105259724
0.010816002395004035
0.010823332919972017
0.01083451354992576
0.010837961831130087
0.01082770737935789
0.010794752930523828
0.010732552246190607
0.010677354616345837
0.010684623915003612
0.01073560549528338
0.010768513353541493
0.010792608226183801
0.010836677122861148
0.010848022592253983
0.01079645038349554
0.010772007808554918
0.010832348003750667
0.010908633790677413
0.010958154884865507
0.011010065515292808
0.01105962241650559
0.011090879581170157
0.01112259216955863
0.011138805247610436
0.011081675061723218
0.010962263657711446
0.010869830178562552
0.010849461547331884
0.010877275904640556
0.010919378666440025
0.010946829569293185
0.010961584007600323
0.01099492906127125
0.011049979809904471
0.011098420541966334
0.011115815590601414
0.011118563648778945
0.011152766337618232
0.011198594376910478
0.011181708091171458
0.011094824303872883
0.010991927805589512
0.010906746851978823
0.010845671242568642
0.010804109366144985
0.010765091419452802
0.010713371409801766
0.010655623927013948
0.010614646220346913
0.010603748152498156
0.010612335903570056
0.010614551973994822
0.010597509049111976
0.010598002943443135
0.010660677407868207
0.010737481233663857
0.010757741729030386
0.0107610515342094
0.010804832642897964
0.010854063978185877
0.01086537893395871
0.010866501900600269
0.010889990460127593
0.010917224357835948
0.010929491844726726
0.01092391081037931
0.010890127597376705
0.010838632042286918
0.010808232128620148
0.010813439587363973
0.010817394461482763
0.010783884344855324
0.010729745771968738
0.010693466294324026
0.010687752153025941
0.010711134957382455
0.010762918124673887
0.010823180546285584
0.01084780262899585
0.010813989053713158
0.010761236316757277
0.010743518810486422
0.010752088035224006
0.010743277812143787
0.010723311302717775
0.01073293651919812
0.010773161271354184
0.01081333452835679
0.010834263453725726
0.010837161981035024
0.010837647777516396
0.010835666027851402
0.010820773490704596
0.010812730774050578
0.010828063811641187
0.010845581366447732
0.010841384303057566
0.010807106177089736
0.010752154658548533
0.01070351100177504
0.010670473505742848
0.010634037252748385
0.01058904895093292
0.010559650972718373
0.010567326098680496
0.010603797828080132
0.010641748128691689
0.010674103253986687
0.010712006866233423
0.010750754131004214
0.010779038054170086
0.01078532704617828
0.010771430189488456
0.010776730590732768
0.010808734083548188
0.010818586675450206
0.010813206101302058
0.01084038185304962
0.010853942206595094
0.010788037545280531
0.010705866259522736
0.010689714645268395
0.010706877222983167
0.01071374477003701
0.010745433612028137
0.010815029150107876
0.010864028849173337
0.010864259556401521
0.010846513073192909
0.010835785614326597
0.010837328225607052
0.010850344293285161
0.01086416228557937
0.01085242668981664
0.010790592998964711
0.010705979153281078
0.010664732037112117
0.01067693451885134
0.010696497448952869
0.010712997814407573
0.010747133725089952
0.01078666806104593
0.010803349521011115
0.010799161365721375
0.010797909972025082
0.010820672513218596
0.010875496243825182
0.01093947111046873
0.010967711082194
0.010952215294819325
0.010937060655560344
0.010957446582615375
0.011010314432205633
0.011073513897135854
0.011118111974792556
0.011126583659788594
0.011094116831663996
0.011027214453788474
0.010960697059053927
0.01092809557216242
0.010925279196817428
0.010922700722003355
0.010899060050724075
0.010861119271721691
0.010826916483929382
0.010812406382756308
0.010833106905920431
0.010889581756200641
0.010945326528744772
0.010945745640201494
0.010892045438522473
0.010849882909096777
0.010852326180320233
0.010863361888332292
0.010852484204806388
0.01083715606131591
0.010832652570679785
0.010813907989067957
0.01075456602848135
0.010677843440789729
0.01064385799691081
0.010673397122882306
0.010720388807822018
0.010734794643940403
0.01071103774360381
0.01067981387488544
0.010661821765825152
0.010644607878057287
0.010630770912393927
0.010647094293963164
0.010673300754278898
0.010661999020958319
0.010630884626880287
0.010619718186790124
0.010610075548756868
0.010585201043868437
0.010586659823311494
0.010644965489627794
0.010728617693530396
0.01080002098577097
0.010845295992912724
0.010847241037990897
0.010809084427310154
0.010760875747073441
0.01070601552259177
0.010653568389825523
0.010659142249496654
0.010715973805636167
0.010728870835155249
0.010666387167293578
0.010587496366351843
0.010544625604525208
0.010547788562253118
0.010560631927801297
0.010546994450269267
0.010529134672833607
0.010520846964791417
0.010487092003459111
0.010443137437105178
0.01044067182461731
0.0104622642416507
0.010471654151333496
0.010477442947449163
0.010483660600148142
0.010483422453980894
0.010497985510155558
0.010539566859370098
0.01057500418042764
0.01057562124915421
0.010542641034116968
0.010489897505613044
0.010446732203708961
0.010437546210596338
0.010465230419067667
0.010525549093727023
0.0105853111599572
0.01059224561206065
0.010564203903777524
0.0105719100672286
0.010601678584935144
0.010578202832257376
0.010521669025765732
0.010512766895117239
0.010543900220654904
0.0105531396495644
0.010527222353266552
0.010485957926139235
0.010449294350109994
0.01043804656714201
0.01044669870636426
0.010443622153252364
0.010421238127164542
0.010401769389864058
0.010395516831194981
0.01038023181608878
0.010339812766760588
0.010315029269549995
0.010347352244425565
0.010399479866027832
0.010415877047926188
0.010408244127174839
0.010419058699626475
0.010450924568576738
0.010479298426071182
0.010496248558629304
0.01051486041280441
0.010541905084392057
0.010548400718253106
0.01051623905543238
0.010494033601135015
0.010524198096245527
0.010570345862070098
0.010581338364863769
0.010575928452890366
0.010607514752773568
0.010665655775228515
0.010693976272596046
0.010686622643843293
0.010680564334616066
0.010683994297869504
0.010670665574725718
0.010633194617694243
0.010599065693095327
0.010593954287469388
0.01062171139055863
0.010662169917486608
0.010682802264345809
0.010674724312266334
0.010657697500428186
0.010642391049768775
0.010635665346635506
0.010658731942530721
0.010704120494192466
0.010742632413748652
0.010776068194536493
0.010798157163662836
0.010769442098680884
0.010699435728602111
0.010652714761672542
0.010642296703299508
0.010641056714812294
0.010674504468915984
0.010761204240843654
0.01083972476539202
0.010860843817936257
0.010837872803676873
0.010782021902268752
0.01071150585426949
0.01068247847724706
0.010723001608857885
0.010793992597609759
0.010842556288698688
0.010847034523030742
0.010823257140582427
0.01081445113872178
0.010832717887824401
0.010828051069984213
0.010768665332579985
0.010689659080235288
0.010642193451058119
0.010641672533238307
0.01066485668765381
0.010699330680072307
0.010756635616999119
0.0108089627570007
0.01079715697444044
0.010723400798160582
0.010650075121084228
0.010624315240420401
0.01065596248023212
0.010704950127983465
0.010708612207090483
0.01067358263884671
0.010648642996093258
0.010642110622720793
0.010655434197979048
0.010685328068211675
0.010681309913052247
0.010628688774304465
0.01060803296859376
0.010662660050438717
0.0107129902462475
0.010694615207612515
0.010658903126604856
0.010662329545011744
0.010684240513946862
0.010691937056835741
0.010682384446263314
0.010669823798816652
0.010674560469342396
0.010696638176450507
0.010713372755562887
0.010702560497447848
0.010658178953453898
0.010616536665474996
0.010619685043347999
0.010635328222997486
0.010612930287607014
0.010580133893527091
0.010583139929221943
0.010596208362840117
0.010575555401155725
0.010546162384562194
0.010553113740170374
0.010584482284029946
0.010584762218641117
0.010522432267898695
0.010447291632881389
0.010421676686964929
0.01042101733153686
0.010388298435136676
0.010328621639637277
0.010309838268440216
0.010356952397851274
0.010380262274993583
0.010323389790719374
0.010272010159678758
0.01029721977072768
0.010365814155666158
0.010437594695249573
0.010496960220625623
0.010530035378178582
0.010544010866433383
0.010555019468301906
0.010558687287848444
0.01054483900545165
0.010517583779292182
0.01049450461519882
0.010500018703751265
0.010536986044608057
0.010567132238065824
0.010570053711999207
0.01056978819775395
0.01055924009764567
0.010511219205800443
0.01046428075642325
0.010480552593944594
0.010542914597317576
0.010574560654349625
0.010550639871507884
0.010519271325320005
0.010506572583690286
0.010487587156239897
0.010454523152438923
0.010444423776352778
0.010496133925626054
0.010593957360833883
0.01067376375081949
0.010701752490131184
0.01070305700181052
0.010700533346971497
0.010686834282241762
0.010669172821799293
0.010674477466382086
0.010687481542117894
0.010657951282337309
0.010600360230309889
0.010596400093054398
0.010677846791222691
0.01078468444175087
0.010838590409839526
0.010821500287856906
0.01077261020313017
0.010730509834829718
0.010719429745804518
0.010749073963379487
0.010779537369962781
0.01075870419968851
0.010706913829781116
0.010681000660406425
0.010700303856283426
0.010751613250467926
0.01080074511701241
0.010819270564243198
0.010813303936738522
0.01079710328951478
0.010795037038624286
0.010841416703769938
0.010906531775835901
0.010907632021699101
0.010838751822011545
0.010788902922067791
0.010795975240180269
0.01078754139947705
0.01071561343735084
0.010639397357590497
0.010628398390254005
0.010663686047773808
0.010664210424292832
0.010598924084333702
0.01053144882316701
0.010516355584841222
0.010524402346927673
0.010512302516726777
0.010488043032819406
0.010482396197039634
0.010504275400890037
0.010532983132870868
0.010543084579985589
0.010535663414048031
0.010534145999699832
0.010538120653945953
0.010511650698026643
0.010450697534251959
0.010408428977243603
0.010423329487675801
0.010482115467311814
0.010551565239438787
0.01060561868478544
0.010638623434351758
0.01067224139929749
0.010728554821107537
0.01077551396097988
0.010756784479599445
0.010702507235109807
0.010696400165325031
0.010732795995427296
0.010741436303360387
0.010705818329006434
0.010665989938424901
0.010658443622523918
0.010667631154647098
0.010654906332492829
0.01064784940215759
0.010689192594727502
0.010731602557934821
0.010720358450198546
0.01067435628734529
0.010609807445434853
0.010534063868690283
0.01049473736085929
0.010506397058488801
0.01052017172682099
0.010522852364229038
0.010544280329486354
0.010566604491323232
0.010546970309223979
0.010502947925124318
0.010477653671987355
0.01047142456867732
0.010467464451212436
0.010462506954791024
0.010458793255966157
0.01046553457970731
0.01047458485001698
0.01044967963011004
0.01039700336754322
0.010369942628312857
0.010375898143975064
0.01037878196919337
0.010377216911874711
0.01039485917892307
0.010425253008725122
0.010449136184761301
0.010463722854619845
0.010465476890094578
0.010453739300137386
0.010436783116310834
0.010403828559210524
0.010335792566183954
0.010253102947026492
0.010200282711302862
0.010183315521571786
0.010170608871849254
0.010148573499172926
0.010140191533137112
0.010172638519434259
0.01023577639600262
0.010286732158856466
0.010308624018216505
0.010315278843045235
0.010295342813478783
0.010237450120039284
0.010183865822618828
0.010182256544940173
0.010223702474031598
0.01025193975539878
0.010218758161645383
0.010147949274396524
0.010118906202260405
0.010159679359057918
0.010205925680929795
0.010213533277856186
0.010245039061410353
0.010357724505010992
0.010488690306665376
0.010544561650604009
0.010533444422762842
0.0105411823943723
0.010603671610588207
0.010662940625334159
0.010677910349331797
0.010688704781932757
0.010722448189044371
0.01073668666766025
0.010688616522820667
0.010603872749488801
0.010550885638222098
0.010563287825789303
0.010615589660592378
0.010663213648367673
0.010690550454892218
0.010714155016466975
0.010742430841783062
0.010763284338172524
0.010772370228078216
0.0107702520780731
0.010741246086545288
0.010689887284534051
0.010648042038083077
0.010610878771403804
0.010555383340688422
0.010498191473307088
0.010469040992902592
0.010471643215278164
0.010473818547325209
0.010447885335888713
0.010422193770064042
0.010426983615616336
0.010437647685175761
0.010428056506207213
0.010415978450328111
0.010417292158817872
0.010401651774300262
0.010355109521187842
0.010333025376312435
0.01036634242045693
0.010412575956434012
0.010444200517376885
0.01046661240165122
0.010482412931742147
0.010492376285837964
0.010480670204851777
0.010438202711520716
0.0104029798170086
0.010422859807731584
0.010492451542522757
0.010554282390512527
0.010582922681933268
0.010611053708707914
0.010637296853819861
0.010618224270874634
0.010557973386021331
0.010508958633290605
0.01051135221030563
0.010563849920872599
0.010618807874852792
0.010626600384712219
0.010598740974674002
0.010580767857609316
0.010576077246805654
0.010556198194390163
0.010517884545261041
0.010473981591640041
0.010431515864329412
0.010410549486987292
0.010426721370313316
0.010457569293212145
0.010477845828281715
0.010506413471885025
0.010576725718565286
0.010663941509556026
0.010694298269227147
0.010654983291169628
0.010617404924705625
0.010616669866722077
0.010612008151365444
0.010592649057507515
0.01060017014387995
0.010631102093029768
0.01064443604554981
0.01066229517222382
0.010733106689294801
0.01081730518839322
0.010837269434705376
0.010796508212806658
0.01074998235446401
0.010733249470358714
0.01076457960298285
0.010828260080888868
0.010877362978644669
0.010905505826231092
0.010935022537596524
0.010937537346035243
0.010876090567326174
0.010781427898909896
0.010712513631442561
0.010692324659321456
0.010694451255258173
0.010682145837927237
0.010656434424454346
0.010631325381109492
0.010609263973310589
0.010606800382956862
0.010633737910538912
0.010671568234683945
0.010706256253179162
0.010730247218161822
0.01071645840886049
0.010642022581305356
0.010548259286442771
0.010514499460114166
0.010555216744542122
0.010607844642363489
0.010617199063999579
0.010593226290075109
0.010575535210082308
0.010565145607106387
0.01054631721926853
0.010545644601806998
0.01059701417456381
0.010670665553770959
0.01071424908353947
0.010743191607762128
0.010790754699846729
0.010826013821642846
0.01081150067038834
0.010760568499099463
0.010710359213408082
0.010683518347796052
0.01066735912929289
0.0106477102113422
0.010647311273496598
0.010679007029393688
0.010714223831892014
0.010739657102385535
0.010770352326799184
0.010797632758039981
0.010808628590311856
0.010814845922868698
0.010794833240797743
0.010731371862348169
0.010698671179125086
0.010745912117417902
0.01080403061117977
0.010819186785956844
0.010820491190534085
0.010829550866037606
0.01081911260727793
0.010770770262461156
0.010725043556885794
0.010734445613343269
0.010788136060582473
0.010826692406553776
0.01080714918090962
0.010736524264793844
0.010672124847769738
0.010671895164996385
0.010715099750086665
0.010728254934074357
0.010700138392858207
0.010687596679199487
0.010722701825434342
0.010778446652693674
0.010804653451777994
0.010789932515472174
0.010785805515479297
0.01083265322376974
0.010893717786530033
0.010906520130811259
0.01086137542151846
0.010813161892583594
0.010819570277817547
0.010853602061979472
0.010836696079932153
0.010773242088034748
0.010743978805840016
0.010759224925423042
0.010742539220955223
0.010665968894027173
0.010586570479208603
0.010541430596495047
0.010501109036849811
0.01043888611602597
0.01036681882920675
0.010303182186326011
0.010267036554869264
0.010264558205381035
0.010258776694536209
0.010221101528732107
0.01017296321108006
0.010129856294952333
0.010085745904361829
0.01006194987334311
0.010085759941721334
0.010137535645626486
0.010176559026585891
0.010193570865085348
0.010217058871639893
0.010258352300152183
0.010284223869675771
0.0102898340288084
0.010313905315706506
0.010358366896398366
0.010399812458781526
0.010441425561439246
0.010466072740964592
0.010432434536051005
0.01035990956122987
0.010324409276945517
0.01036289318697527
0.010420870928792283
0.010419861053815111
0.010371995962923392
0.01034852966433391
0.010356213481863961
0.010356895710574463
0.010350128140999004
0.010347943236120045
0.010348088223254307
0.010352922931779175
0.010366536696674302
0.010393078475026414
0.010418241209117695
0.010408462551422417
0.010381711575901136
0.01039965359843336
0.010460504149086773
0.010509049776010216
0.010540043711662292
0.01058662442723289
0.01063752268673852
0.010650908215902746
0.01061963168438524
0.010560476006940007
0.010490753431804478
0.01045030748238787
0.010466714918147773
0.010500844245543704
0.010507393142906949
0.010509029186796397
0.010523152742534876
0.010501607805490493
0.01044183189747855
0.010411481463816017
0.010408623572438956
0.010380841995356604
0.010355096647981555
0.010388909488683566
0.010459739768411963
0.010503079280024395
0.010507663305616007
0.01051336329896003
0.010541080390103161
0.010566043740836903
0.010563897037645802
0.010559671377995983
0.010591618434991687
0.010636874804040417
0.010634138422319665
0.010574561952380464
0.01051226188079454
0.010478287281002849
0.010451939806807786
0.010437871164176613
0.01045862226281315
0.01046627655508928
0.010408495890442283
0.010344430089462548
0.010357525098370388
0.010422708648256958
0.010460586583940312
0.01045736065483652
0.010464801464695483
0.010508520590374246
0.010548433738294989
0.010544403843814507
0.010517741448711603
0.010514264496741817
0.010542125008068979
0.010574746455531567
0.010590305152582004
0.010601453050039709
0.010634205589303747
0.010678895440651103
0.010709580386755988
0.010724135086638853
0.010727096017217264
0.010715074320323766
0.010691903057741002
0.010683439543936402
0.010713138331193478
0.010749771401751786
0.01073377332650125
0.010666046839905902
0.010603641879279167
0.01058096075663343
0.010588720529340208
0.010591414340306074
0.010569052528589964
0.010559260452864691
0.010586435445584358
0.010600319895893336
0.01056028690887615
0.010490410935599357
0.01043991168611683
0.01044502599281259
0.010498327756067738
0.010571444452507421
0.01064246705849655
0.010664221891202032
0.010619030920788647
0.010573867376660929
0.01056605064542964
0.01054854826652445
0.010498405029065907
0.010459104178007692
0.01047383234021254
0.01052383958362043
0.010547795951133594
0.010538897622609511
0.01054288140614517
0.010555114884627983
0.010540868350071833
0.010513634094968438
0.010503672326449305
0.010493805671576411
0.010433536123018712
0.010323687003692612
0.010240768060320989
0.010244205974740907
0.010312099119182676
0.01038098550052382
0.010422598943114281
0.01046186058782041
0.010485725428443402
0.01043071216554381
0.010328256544889882
0.010285845410544425
0.0103127671033144
0.010347403598716482
0.01038305891561322
0.010436217167880386
0.010471069588093088
0.010447036302648484
0.010402621525572612
0.010391125639434904
0.010377647234126925
0.010317482772516087
0.010248359037796036
0.010217147439252585
0.010216815012972802
0.010222710862290114
0.010215764647582545
0.01019790452090092
0.01019888257374987
0.010207047566073015
0.010168613966088742
0.010108839180320501
0.010116665598470718
0.010197880688356236
0.010271326749352739
0.010289947134442628
0.010280769646633416
0.010280801515327766
0.010303980481112376
0.010352809272008016
0.010392612589057534
0.010373271397547797
0.010313732860377059
0.010276065384969115
0.010260939168510959
0.010221222828840837
0.010166334826499224
0.01016211919602938
0.010220056154066697
0.010277830482227728
0.010299471254693344
0.010306228615809232
0.010316116466419771
0.01032347269472666
0.010320400245254858
0.010294037907151506
0.010242440599249676
0.010208458041306585
0.010232534566894174
0.010289157625520602
0.010321198356105015
0.01030596683965996
0.010261269219918177
0.01020214288146235
0.010134813626063988
0.010096646719612181
0.01012509684311226
0.010195566471666098
0.010258882784983143
0.01028910231543705
0.010278868665918707
0.010260996375000104
0.010278480637352913
0.010296026904834435
0.010250036536017432
0.01016940558096394
0.010143403133843093
0.010197847802191972
0.010261459454195574
0.010265496682841331
0.010228361578192562
0.010188975856872276
0.0101468814490363
0.010110209074337035
0.010100136768305673
0.010110199874034151
0.010123717366950587
0.010149744478985668
0.010203699539415538
0.010263713820604608
0.010287600517040118
0.010278344524558634
0.010267288183094934
0.010232856675283983
0.010157438601600005
0.010110736469505355
0.010141898597357795
0.010202319556847216
0.010231862599030138
0.010233608344569801
0.01026883946498856
0.010363297373987734
0.010440593101084233
0.01042908035335131
0.010362902680644765
0.010306705686962231
0.010264513803413138
0.010222119846148417
0.010207264494383708
0.01024255397496745
0.010304759142454713
0.010365798730636016
0.010403797971084714
0.010394580765860155
0.010355766548309475
0.010345429038861766
0.01038054040283896
0.01042213276377879
0.010444350654724986
0.010453472617082299
0.010456804356072097
0.01046766891144216
0.010512084553483873
0.010577104792464525
0.0105944388511125
0.010531793623231351
0.010460658365627751
0.010467920632800087
0.010530133933061734
0.010560081048170104
0.010531438691541552
0.010475407728226855
0.010419706638203933
0.010381209616316483
0.010366956212092191
0.010366732326801867
0.010366053202887996
0.010358717123745009
0.010333562527084722
0.010285660678055137
0.01026192684075795
0.010309329907177017
0.010379738339688629
0.010392923807958141
0.01036104918923229
0.010366347427479923
0.010423720865510404
0.01044631986762397
0.01038778728339821
0.01031942923553288
0.010313905900111421
0.010355096540879459
0.010405030669644474
0.010457787052728236
0.010501504964195192
0.01052798518911004
0.010566783115500585
0.010632332743844017
0.01068106779246591
0.010670643474441022
0.010630147198680788
0.010628538433229551
0.010687797855352984
0.010771342718508095
0.01082941586850211
0.010830990235554054
0.010784092880785466
0.010712090820306911
0.010633665305795148
0.010590415289625526
0.010593534453073516
0.010565763037884607
0.010467432090081275
0.010384242596337571
0.010389417810365557
0.010444508923683316
0.010476803433848545
0.010468886292073876
0.010459338728105649
0.010480990724172443
0.01051702669938095
0.010531445813830942
0.010530474574770778
0.010544811133295298
0.01056852291454561
0.010584164572646841
0.01060342498938553
0.010631577811436728
0.010638930246932432
0.01061503225704655
0.010608490779995918
0.0106443171040155
0.01068441211944446
0.010716396868228912
0.0107467976748012
0.010745350156212226
0.010705468914238736
0.01065080263186246
0.01058721139910631
0.010531134831253439
0.010503007448278368
0.010488882615463808
0.010460257134400307
0.010406657891580835
0.010348465408897027
0.010325274355709553
0.010357816471951083
0.010424813209101557
0.010500422588083893
0.010583719135029241
0.010644559873035177
0.010627030852483586
0.010555664246203378
0.010508870870107784
0.010488510481081903
0.010447963178157806
0.010394341580104082
0.010357687650248408
0.010315799930831418
0.01024854433024302
0.01020700903260149
0.010211519958684221
0.010199798827525228
0.010171029870398342
0.010203441241756081
0.010301218010718004
0.010388256842270493
0.010426876581041142
0.010437476469669492
0.01043934837798588
0.010438287493307143
0.010447356918593869
0.010477698073955252
0.010520924391457812
0.01055299945990555
0.010558212712639943
0.010552116051549092
0.010558830745285377
0.01057773744687438
0.010602327239466832
0.01062178383464925
0.010606872879434378
0.01056829395936802
0.010567301072878763
0.010623145109275357
0.010692011285573243
0.010735880355350674
0.010752031021984293
0.010748076702002436
0.010724353778641671
0.010681234743678943
0.010629776217974722
0.010581268758978695
0.010536486053606495
0.010508016594685613
0.010508777665672825
0.010504418697673828
0.01046514131478034
0.010443657697178423
0.010498208292992785
0.010586090206634253
0.010619841353036463
0.010585605631349608
0.010536990507971496
0.01051078274496831
0.010503534195013344
0.010506150195142254
0.01053225904237479
0.010578919055406004
0.010598124177195132
0.010585890179499983
0.010606541696470231
0.010673768072156236
0.01072165296995081
0.010708635706687347
0.010665538258617744
0.010631793461507187
0.010605944715207443
0.01058480684645474
0.010591336066136136
0.01063746708445251
0.010701702192891389
0.010740475211059674
0.010735175757436082
0.010728903239360078
0.010752363716019318
0.010762229630490765
0.010718968327855691
0.010656931154662742
0.010628443303285167
0.010631410761270672
0.010641243869904428
0.010659500634064898
0.010686516780406236
0.010707828394370154
0.010711907522054389
0.01068659043405205
0.010641334794927388
0.010613518540048971
0.010616282897535712
0.010634716253262013
0.010663720503216609
0.01070168930804357
0.010737676605349406
0.010764499697834252
0.010772295816568658
0.010751817916752771
0.010716107703046873
0.010669055890757591
0.010605416868347674
0.010554576973663642
0.010533856493420899
0.010516632030485197
0.010502521308371798
0.01052381087676622
0.010576053375843912
0.010624524027807638
0.010663383960491046
0.010726059743901714
0.01083002943196334
0.010932467674138024
0.010981616190401838
0.010972240051487461
0.01092732900287956
0.010886200149543583
0.010881073774071411
0.010883147937711328
0.010836267742561176
0.010755313897971065
0.010721529721049592
0.010765760210342706
0.010824536039726808
0.010828671032795683
0.010768699784530327
0.010686192846624181
0.010650524529628455
0.010695989152882248
0.010770713379606604
0.010807763295015321
0.010801552650518716
0.01078673638869077
0.010793148330412805
0.010803393868263811
0.010782907446846367
0.010751475461293012
0.010737765624653547
0.010724118158686907
0.010703806700184941
0.010712770894169808
0.010767919232603163
0.010828544145915657
0.010846635575871915
0.010819143680855632
0.010770371514372528
0.010728952798526734
0.010713817570358514
0.010709771495312452
0.010701071077492089
0.010691324917133897
0.010657651023939252
0.010584873924963177
0.010523301349021495
0.010520738237537443
0.010554385944269598
0.010572339196223766
0.010561574269086122
0.010550903382245451
0.010548724699765444
0.010532008616719395
0.010495326875243335
0.010458872488234192
0.010456280978396536
0.010502364379353821
0.010560108104255051
0.010592725004535168
0.010606780278030782
0.010609464559238405
0.010593392308801413
0.010566206218209117
0.010538035698700696
0.010496305874548853
0.010438993000425398
0.010398776954971253
0.010384484890382737
0.010358248113188893
0.01031119997613132
0.0102865364192985
0.010301035691518336
0.01030647321138531
0.010265572615899145
0.01021870931610465
0.010206046891398727
0.010182139922399074
0.010106756661552935
0.010034714262001216
0.010026540632825345
0.010077599701471627
0.010171764078550041
0.010294155240990222
0.01039912061067298
0.010447653774172068
0.010448117994237692
0.010432066454086453
0.010433185668662191
0.010463621555827559
0.010482838263269513
0.010453635507728905
0.010418186022434384
0.01043478348525241
0.01047559839906171
0.010486548526678234
0.010496275080367923
0.010561095792800188
0.010651329734828323
0.010686204268131405
0.010651324864011259
0.01059979403624311
0.010566177249420433
0.010544945772271603
0.010513305522035808
0.010447395362425595
0.01036759309237823
0.010344556865748018
0.010399747556075454
0.010449366278480738
0.01041557918768376
0.010343063815962523
0.01032289357157424
0.01035245849750936
0.010357080881949515
0.01032416887814179
0.010325097942259163
0.010381931595038623
0.010433223356958479
0.010454037685412913
0.010461266862694173
0.010439306511543692
0.01039086990756914
0.010369418715126812
0.010388306071981789
0.010392679711803793
0.010360748425591737
0.01034866038709879
0.010393754832912237
0.010443712137639522
0.010428651934489608
0.010371080187615006
0.010354020928498358
0.010389741566032172
0.01041068775113672
0.010382422760594636
0.010343540855683387
0.010332388202659786
0.010343284436967224
0.010344885468948633
0.010319390229415148
0.010298363396432251
0.010303329695016145
0.010293220963794737
0.010251185791566968
0.010230380862485617
0.010265997694805264
0.010312543471809477
0.010309876608662307
0.010283619097899646
0.010297494183760136
0.010340844925958664
0.010369764033239335
0.010396189040038735
0.01045046177925542
0.010519738525617868
0.01057535981759429
0.010602997932583094
0.01060169975971803
0.010591126186773181
0.010584006914868951
0.010574791610706598
0.010570387998595833
0.010571683247108013
0.010567840379662812
0.010581529287155717
0.010632865745574236
0.010673797822091729
0.010663669570349157
0.010649172342382371
0.010678600098472088
0.010727733166422695
0.010772227924317122
0.010836847776081413
0.010905110090970994
0.010888780404347926
0.01078265331685543
0.01071390394354239
0.010747088878415524
0.010797084914520383
0.010796275560278446
0.010771778705529868
0.010735707900021225
0.0106818589521572
0.010652304387185722
0.010671155245508998
0.010701462728902697
0.010711727186571807
0.010692106117494405
0.010654526811558753
0.010662186418194324
0.010737646566703916
0.010784962726756931
0.010740506344009191
0.010674291360192
0.01065430952468887
0.010659494649153202
0.010659042918123305
0.010672605421859771
0.010719263821374624
0.010761559300590307
0.01076205088524148
0.01074136001523584
0.010723867255728691
0.010699339455459266
0.010666968785226345
0.010652823210693895
0.010661641301121563
0.01066359550692141
0.010660152102354914
0.010686518957372755
0.010728772098664194
0.010751340677961707
0.01077697991160676
0.010831512946169823
0.010869201649911701
0.010833799827378244
0.010764194070361555
0.010748679281678051
0.010784421460703015
0.010810718412976712
0.010831918602343648
0.01087053112220019
0.010886324117891491
0.010848672105930745
0.01080151460133493
0.010790928336791693
0.010807228956837207
0.010808120893780143
0.010754453220870345
0.010661289510317147
0.010592949602287263
0.010578165850602091
0.010572885274887084
0.010521525053773075
0.01043796718120575
0.010390121906530112
0.010408990611322224
0.010458731080871076
0.01049815931590274
0.010540336295962334
0.010617811556439847
0.010700893639586866
0.010736850809771568
0.010750329641159623
0.01077412169892341
0.010758345765061676
0.010685853818431497
0.010647630814928562
0.010701319614890964
0.010786159876734019
0.010829131384380162
0.010835059799719602
0.010835010148584843
0.010825969439465552
0.010801214454695583
0.010753906245809049
0.010675564559642225
0.010596900277305395
0.010549718313850463
0.01053375143557787
0.010538724747020752
0.010543095960747451
0.010542182985227555
0.010556858021300287
0.010576153984293341
0.010567252195905895
0.010555237687658519
0.010584159810096026
0.010617072673048823
0.010597786328289657
0.010540906626265495
0.010486746253445745
0.010459038075059652
0.010483858359511941
0.010570818558335304
0.010674728793092073
0.01074734487105161
0.01080333412392065
0.010868670295458287
0.010917673266958446
0.010919395417440683
0.010892942117061466
0.010868059513159096
0.010838794885203243
0.010792088364250958
0.01074628736358136
0.010737296431325377
0.010768994325771927
0.01079083169810474
0.010750772405881435
0.010668999836780131
0.010615163808688521
0.010617457728367299
0.01064402462914586
0.010657595316879452
0.010656361570581793
0.010654355240985751
0.010635428358800708
0.010587369264103473
0.010553998067043721
0.01057025280315429
0.010599817372858525
0.010583250341005624
0.010519180702976883
0.010482771475799381
0.010514087968040257
0.010541949092876167
0.010504129973705858
0.010427649130579085
0.01035607189172879
0.010307776394765824
0.010281526057515294
0.010272324790712446
0.010291383783333004
0.010332580541726201
0.010365792238153516
0.010389010624494403
0.010419115428812803
0.01045329932589084
0.010469017690047622
0.010441771789919585
0.01038712041452527
0.010368234959896654
0.010416545225307345
0.010481312177143992
0.010497887255623936
0.010465253640431911
0.01044207023922354
0.010489349728450179
0.01059579812688753
0.010683834000956268
0.010710713223088532
0.010711800530552864
0.01074779860675335
0.010829307299572974
0.01089480317896232
0.01089622833300382
0.010872629969380796
0.010875866694841535
0.010871384267229587
0.01080543850781396
0.010717828327324241
0.010662860374432058
0.010615036021918059
0.01057066479464993
0.01059552191523835
0.010693810496013612
0.01077116034226492
0.010762304780073464
0.010689425487071276
0.010603013855870813
0.010538181986194104
0.010507683514151721
0.010505428060423583
0.010516008052509278
0.010532658779993653
0.010564496591687202
0.01061288692522794
0.010663682320155203
0.010700576920062304
0.01070941696409136
0.010692815207876264
0.010679493874777108
0.010681345569901168
0.010670366650447249
0.01064165388001129
0.010620765492785723
0.010608170058112591
0.01059613421326503
0.010588434364181012
0.010592720019631088
0.010611676501575858
0.01061538654845208
0.010574291835073382
0.010518895047716796
0.010491504578385501
0.010465468873735517
0.010401817010715604
0.010334831613581627
0.01030378729570657
0.010295394354034215
0.010309132561087609
0.010356722618453204
0.010404966403730214
0.0104152023489587
0.010388432843610644
0.01034067670814693
0.01029848307138309
0.010297442881856113
0.010339285894297064
0.01038755348417908
0.010417022351175547
0.01042426077183336
0.010399912821594626
0.01034028065390885
0.01027108215726912
0.010224666895810515
0.010216937321238219
0.010249182840343565
0.010295734945684672
0.0103231091494672
0.01035456036683172
0.01044180063297972
0.010551932621747256
0.010594419208355249
0.01056958366651088
0.010557161392644048
0.01058053325396031
0.010614162359852344
0.010663143158890307
0.01073037982918322
0.010775630476418883
0.010763335516676307
0.010702336765825748
0.010620134815108031
0.010527386195026339
0.010435182834044099
0.010380198154598475
0.010379413743503391
0.010402744030579924
0.010434663675259798
0.010475693005137145
0.010476922476664185
0.010402877253945918
0.010320718146394937
0.01030235774582252
0.01031370611861348
0.010298466682434082
0.010279306368902326
0.010296140732243657
0.010324495390523224
0.010320394576992839
0.010297003015875817
0.010295334670227021
0.010320983552373946
0.010361892476212234
0.01040095396572724
0.010405601751990616
0.010381638454273343
0.010381901827640832
0.010418157251551747
0.010456491487566381
0.0104952788236551
0.010556229914072901
0.010626517294440418
0.010667861797846854
0.010659406441263855
0.010608512996695936
0.010544375425670296
0.010512352851219476
0.010529502087738365
0.010550557472743093
0.01053660040255636
0.010512509299442172
0.010509629587177187
0.010519666746258736
0.01052418157691136
0.010525295326951891
0.01053397565614432
0.010540010097902269
0.01054371429141611
0.010582292224280537
0.010638682425487787
0.010641155389603228
0.01061057157581672
0.01062536139972508
0.010673631562385709
0.01069763510953635
0.010692011299543083
0.01069033976411447
0.01069881061092019
0.010675480649806559
0.010621149309445172
0.010603120278101414
0.010628478301223368
0.010630377826746553
0.010594999459572136
0.010572815050836652
0.01058076210319996
0.010594191930722445
0.010602274425327778
0.010604091256391257
0.010588027511257678
0.010553528924938292
0.010529086710885167
0.010541720108594745
0.010590967047028244
0.010654046903364361
0.01069581349613145
0.010718773189000785
0.010767467468976975
0.010832249892409891
0.010864027929492294
0.01088093725964427
0.010928890316281468
0.010984860258176923
0.010988699758891017
0.010929139740765094
0.010851837052032352
0.010812073210254312
0.010818801082205027
0.010806001545861364
0.010729522267356515
0.010662772862706333
0.01066641988698393
0.010666903657838702
0.010606282509397715
0.010555224167183042
0.010576233323663474
0.010636889915913343
0.010697741385083646
0.010754838427528739
0.010791106421966106
0.010780760075431318
0.010750961056910455
0.010759257834870369
0.010800846258644015
0.010826717955060303
0.010827783031854778
0.01081848663976416
0.010796414527576417
0.010781510239467025
0.01082374650752172
0.010909468666650355
0.01094981977948919
0.010923176556825637
0.01090753376018256
0.010931958819273859
0.010939132652711124
0.010907243427354843
0.01088220598641783
0.010881329372059554
0.010860169690568
0.010801968353334815
0.010746203802991659
0.010704472137149423
0.01065009849378839
0.010583160545211285
0.010528360824100674
0.010499324228148907
0.010490447795018554
0.010487483341712504
0.010495044612325729
0.010518490199465304
0.010526271355338394
0.010499965792987495
0.010478492088150233
0.0104951073625125
0.01052665482275188
0.010548721365630627
0.010583391711115837
0.010650422188919038
0.010721532367169858
0.010751166865229606
0.010730649332981557
0.010705629216972738
0.010728748585097491
0.01078089834190905
0.010788254248909652
0.010746365182567387
0.010720598846673965
0.010712355482392013
0.010681394098792225
0.010649166882503778
0.010631655715405941
0.01058929207501933
0.010518932496197522
0.010474217419978232
0.010493939579464494
0.01055550697958097
0.010605413971934468
0.01063715914497152
0.010664743834640831
0.010668493567500263
0.010658593983389437
0.010688763810321689
0.010764049291610718
0.010814161531161517
0.010787600467447192
0.010737031891476363
0.010744405828882008
0.010795509559102356
0.010822528321295977
0.010817621999885887
0.010822584938723593
0.010849537507165224
0.010855208924040198
0.010809125029481947
0.01075641784351319
0.010733221976552158
0.010702805551700294
0.010656309663318098
0.010636070223990829
0.010644951581489294
0.010654243861790747
0.010662683923728765
0.010690143548417836
0.010732146201189608
0.010745079452171923
0.01070756793487817
0.01066246309550479
0.010649049256462604
0.0106553607666865
0.010667914969380944
0.010702102321665734
0.010760073354467749
0.010796474751550704
0.010772241088561714
0.010717771989293396
0.010677705600392074
0.01064366068225354
0.010601936918683351
0.010575688588432967
0.010589325428009033
0.010647290349006654
0.010736972189042716
0.010812649731524288
0.010814294391311706
0.010746897156350315
0.01068417000817135
0.010655466339085252
0.01061834116699174
0.010559443042147905
0.01052647092146799
0.010554381154943258
0.01060512542258948
0.010608521413523704
0.010555071320850403
0.010495961285196245
0.01047065217513591
0.01046331973047927
0.010443764587398619
0.010447395108640194
0.010505138193257152
0.010541653491090984
0.010505914350505918
0.010482050669379532
0.010532683909405023
0.010585515645798295
0.010573247163556516
0.010536321382969617
0.010516757280565798
0.010483475520741194
0.010416208978276699
0.010367747927084565
0.010379192538093775
0.01040217054542154
0.010393420045729726
0.010383236261550337
0.010375447985716164
0.010332622125279158
0.010271984040737153
0.010248451810330152
0.010282210251316428
0.010340287215076387
0.010351034319028259
0.010275683519430458
0.010179546833969653
0.010155865235719829
0.010190575385931879
0.010205027812626213
0.010200404510833323
0.010231435045134275
0.010280258923303335
0.010289737745188177
0.01027602904010564
0.01030351048335433
0.01037126851733774
0.010402764920145273
0.010373077902477235
0.010347748973872513
0.010355562868062407
0.010364751501474529
0.010375205273739994
0.010393259299453348
0.010381841589696706
0.010330272079445422
0.010296989020425827
0.010321398032829165
0.010354729047976434
0.010336379427462817
0.010280378735624254
0.010229425062425435
0.010190750393085181
0.01015358185628429
0.010119500861037523
0.010108897702302784
0.010129970959387719
0.010147783423308283
0.010135486607905477
0.010115810101851822
0.010110716354101896
0.01011861118953675
0.01013691677013412
0.010150322015397251
0.010142813881393521
0.010130810549017042
0.01013585294596851
0.010151300048455596
0.010151014768052847
0.010123442343901843
0.010105865853838623
0.010132163723465055
0.010158529211767018
0.010137746899854392
0.010111079800408334
0.010142254922538996
0.010231300147715956
0.010314880919177085
0.010316581637598575
0.01023559194523841
0.01016071017831564
0.010150863535236566
0.010170730415266007
0.010158766973763705
0.010105854619760067
0.010065145969856531
0.010062235530931503
0.010047651620116085
0.010005690038669855
0.00998927843524143
0.010013573323376476
0.010041358778253198
0.010055827717296779
0.010065811581443995
0.010079984671901911
0.010113851854112
0.010178268062882126
0.010248964317142964
0.010286098904907703
0.010294103608466686
0.010305787592660636
0.010295977583155036
0.010229833803605289
0.010176607570610941
0.010208110043313354
0.010268522198311985
0.010282701253890992
0.010268381212372333
0.010270874574780464
0.010289259275887162
0.010299960316624493
0.010312221013009548
0.010353018494788558
0.010389098201412707
0.010362662617117166
0.010305451119784266
0.010287175325211138
0.010311195435933769
0.010358701811637729
0.010419617225416004
0.01044467329280451
0.010388818872161209
0.010291415012907236
0.010218006521463395
0.010184557063039392
0.010196138189639896
0.01024871367495507
0.01029541113646701
0.010312528712674976
0.010328025354538114
0.010336730144917965
0.010304951090365649
0.010262816837057471
0.010270666135475039
0.010313658425584436
0.01032474453561008
0.010292488706763834
0.010264388900250197
0.01025771844899282
0.01025230360450223
0.010249614322092385
0.010266400896944106
0.010288937767036259
0.010284268481191247
0.010263547971844674
0.01027028615353629
0.010290337505284696
0.01028033543145284
0.010256398201454431
0.01025218061171472
0.010269309452269226
0.010300171186681837
0.010331081801559776
0.010357251418754458
0.010398906234186142
0.01045086587080732
0.010465967636555433
0.010424786931835114
0.010365596155170352
0.010326999574899673
0.010296675155404954
0.010237469426356257
0.010151779134757817
0.010091827809810638
0.010088984125759452
0.010110729080624879
0.010124927209690214
0.010147884923499077
0.010188990577589721
0.010214748985599726
0.010208881536964327
0.010207959371618926
0.010231108833104373
0.010240829205140472
0.010225320523604751
0.010221763122826815
0.010221624260302632
0.010190185362007468
0.010164369903504849
0.010189070350024849
0.010225476324558258
0.010230860989540815
0.01023759214906022
0.010283726917114109
0.01034136644564569
0.010358255945611745
0.010342634357511997
0.010349342601839452
0.01038252087077126
0.01039329791907221
0.010356548889540136
0.010299670754466205
0.010271169119514525
0.010278745417017489
0.010281034675426782
0.010254979797173292
0.010222436916083098
0.010199378398247062
0.010172375917900354
0.01014648806070909
0.010158917624503374
0.010221120237838477
0.010301500295754521
0.010377862784080207
0.010451498432084918
0.010505584690254182
0.010529920521657915
0.01056025238474831
0.010606305203400552
0.010623350720852614
0.010594461762811988
0.010533199168276042
0.01044690259033814
0.010377790664788335
0.010378261937294155
0.010423973225988448
0.010452013339381665
0.010451726682949811
0.010444220507051795
0.010433318656869233
0.01043556493939832
0.010475964688230305
0.01052387899486348
0.010538405952975154
0.01053607306908816
0.01052900608163327
0.010509699354879559
0.010500759361311793
0.010509750854689628
0.010507752874400467
0.010494717191904783
0.010495111430063844
0.01049780058208853
0.010473158452659845
0.01042816843604669
0.010395977848675101
0.010396442445926368
0.010418145514559001
0.01041736715240404
0.010378130911849439
0.010361220848280936
0.010401234200689941
0.010434860566165298
0.010428245211951435
0.010431940827984362
0.010466798467095941
0.010502197765745222
0.010521671168971807
0.010528081469237805
0.010534268135670573
0.010555885524954647
0.01059105826774612
0.010622185780666768
0.010621057441458106
0.010566306882537901
0.010483647035434841
0.010429645632393658
0.010421809130348266
0.010428830399177969
0.010431678912136704
0.010447785768192261
0.010491282518487424
0.010541385114192963
0.01056407646741718
0.010556577960960567
0.010545344720594586
0.010544284912757575
0.010545082776807248
0.010551473556552083
0.010583288352936506
0.010614331134129316
0.010589901218190789
0.010540240805130451
0.010535188117064536
0.010549367137718946
0.010519736346323043
0.010464618536643685
0.010447610716801137
0.010478702380787581
0.010507456357590855
0.01050709115806967
0.010496255224570632
0.010467800328042358
0.010402567416895181
0.010347547817509621
0.010371893199626357
0.010452245995402336
0.01049227781360969
0.01046349829994142
0.010441090937238186
0.010485506379045545
0.010550762270577252
0.010549266289453954
0.010491941990330815
0.010472517693415284
0.010504865564871579
0.01051452822983265
0.010497456768061965
0.01052343541290611
0.01057665643747896
0.010570876086130738
0.010515930149704217
0.010489093998912721
0.010479883959051221
0.010428378442302346
0.010354570483323187
0.01031378267100081
0.010299958039540797
0.010284726542886346
0.010272319498471915
0.010283898317720742
0.010344630756881088
0.010446646811906247
0.010518192283343523
0.010511988052166998
0.010475313893985004
0.010473100149538369
0.010503169274888932
0.010509079887997359
0.010461634856183082
0.010402622818946838
0.010383971850387752
0.010411808469798415
0.010461079780943692
0.010505225416272879
0.010534999577794224
0.010541571693029255
0.010519101086538285
0.010513834340963512
0.010563710615970194
0.010611077493522317
0.010603964587207883
0.010595841147005559
0.010653964080847799
0.010755223950836808
0.010825665425509215
0.010832681087777019
0.010806139083579183
0.010797027219086885
0.010812915889546275
0.010798709457740188
0.010725354684982449
0.010646844820585102
0.010610282912384719
0.010589592112228274
0.010549821767490357
0.010495059355162085
0.010441288182046265
0.010403330682311206
0.010375685757026076
0.010315724448300898
0.01022424541413784
0.01016953004989773
0.010174800714012236
0.010207312006969005
0.010252129950094968
0.010305500670801849
0.010363428087439388
0.010422725803218782
0.010456936520058661
0.01043984055519104
0.010387455520685762
0.010356732632499189
0.010399663436692208
0.010488708436023444
0.010541271416004748
0.01052996414480731
0.010488921101205051
0.010438707044813781
0.010381183119025082
0.01035168472211808
0.01038278684252873
0.010428660253528505
0.010437624573241919
0.010431658374145628
0.010437514262739568
0.010442431662231683
0.010426835955586284
0.01040130564942956
0.010416876345407217
0.010484484962653369
0.01054101859452203
0.010560688301920891
0.010583684847224504
0.010615876503288746
0.010609778619837015
0.010569871366024018
0.010588023255113512
0.010690387361682952
0.010764743171166628
0.01073989409720525
0.010683032230008393
0.010666399258188903
0.010679926485754549
0.010682913167402148
0.010667544468306004
0.010660067675635218
0.010661182445473968
0.010643624940421433
0.010623696106486023
0.010625507053919136
0.010611071209423244
0.010565973750781268
0.010548222032375633
0.01058254666859284
0.010628856425173581
0.010656791720539332
0.010667019737884403
0.010668183465022595
0.010679185425397008
0.01070849976502359
0.010712245712056756
0.01065846642712131
0.010605872184969485
0.01061316120903939
0.010643913797102868
0.01063501522410661
0.01059452457120642
0.01059097055811435
0.010647960205096752
0.010703327287919819
0.010715289101935923
0.010709655911196023
0.010696686014998704
0.010664731413125992
0.010637059635482728
0.010640917117707432
0.010655820264946669
0.010636383243836462
0.010579161895439029
0.010534092215821148
0.010527298459783197
0.010532280027400703
0.010522610240150243
0.010491267687175423
0.010442736542318016
0.010402090887073428
0.01040054190903902
0.010428190825041383
0.010440687101799994
0.010426444306503982
0.01042076597455889
0.010446512529160828
0.010477938544936479
0.010486788097769022
0.010493224624078722
0.010526928214821964
0.010574899734929205
0.010617218089755624
0.010666599867399783
0.010735730417072773
0.01080157362157479
0.010826472328044474
0.010809435029514133
0.01077176318038255
0.01071107804775238
0.010641169678419828
0.01059801114955917
0.010576536701992155
0.010555561801884323
0.010542931326199323
0.010568280788138509
0.010638825884088874
0.010678395901340992
0.010618788348510861
0.010528397909365595
0.01050425993045792
0.01053891917457804
0.010586839553434401
0.01064099299488589
0.01068827512441203
0.010687779593281448
0.010644851711113006
0.010619527210947126
0.010636982000432909
0.010670500588603318
0.010698395078070461
0.010730694408994167
0.010774465091526509
0.010783493346534669
0.010717482226900756
0.010634279530495405
0.010605454582255334
0.010592069323174656
0.010528913435991853
0.010463337549008429
0.010472329279873521
0.010507085302378982
0.010492436699569225
0.010488793354015797
0.010559131794143467
0.01063025779556483
0.010638475569430738
0.010626324913464486
0.010637383630964906
0.010657891759183257
0.010670253040734679
0.010687359487637877
0.010704360369127244
0.01069065613206476
0.010681931173894554
0.010742961375508458
0.01082041480112821
0.010814093588851392
0.010742354402318598
0.01068431552266702
0.01065438057295978
0.010629974771291018
0.010613690752070398
0.0106107661081478
0.010610118999611586
0.010604643174447119
0.010587564536835998
0.010550021503586322
0.010501156703103334
0.01047778700478375
0.010514435304794461
0.010574975572526455
0.010580485549289732
0.0105370635073632
0.010518097311723977
0.010522120159585029
0.010490539029706269
0.010442921735811978
0.010440438226796687
0.010468451033812016
0.010488817151635885
0.010506030123215169
0.010527545460499823
0.010557139464654029
0.010598237267695368
0.010629829159006477
0.010629451968707144
0.010604719761759043
0.010583713727537542
0.010583874504081905
0.010586017698515207
0.010575309367850423
0.010587580574210734
0.010638790295924992
0.010677907718345522
0.010685097924433649
0.010710445344448089
0.010762460336554796
0.010778330124448985
0.010739620607346297
0.010710925753228366
0.010738540487363935
0.010772251992020756
0.010731082970742135
0.010631857933476567
0.010571944152470678
0.010592282675206661
0.010637689253780992
0.010644370699301362
0.010631256531924009
0.010660510016605259
0.010719686052761973
0.010747676526661962
0.010751340838614851
0.010787445805035531
0.010842455122619866
0.010839172431733459
0.010781354976352304
0.01075175722828135
0.010763551976997405
0.010765318942721933
0.010745062355417757
0.010717982344795018
0.010685247674118728
0.010656255637295544
0.01065784706035629
0.010695294893812388
0.010735801863484084
0.010749436274636537
0.010737538833636791
0.010722825131379067
0.010717391131911426
0.010709295549895614
0.01070998006965965
0.010753652257844805
0.010815344366710633
0.01083994410233572
0.010853174733929336
0.010897634965367616
0.010919217681512237
0.010863455659709871
0.010781465780455619
0.010738332613836974
0.010711548323743046
0.010656567516271025
0.010604430553503335
0.010603504357859492
0.010623946194536984
0.01061305810464546
0.010579574648290872
0.010554334132466465
0.010538255316205322
0.010530683801043779
0.010531579472590237
0.01051246064947918
0.010466157803311943
0.010436918640043586
0.010451297725085169
0.010491897710599005
0.010541807189583778
0.010594232741277665
0.010627431655302643
0.010625147302635014
0.010610183824319393
0.010600091009400785
0.010588136275764555
0.01059703771257773
0.010659931376576424
0.010762394331395626
0.010841195350512861
0.010839989767409861
0.01079589786939323
0.010793402655981481
0.010828959313221276
0.010844496097415685
0.010832656733691692
0.010824548199307173
0.010827443259768189
0.010827101545874029
0.010826632408425211
0.010809045599307865
0.01073493059258908
0.010635759131982923
0.01058423382230103
0.010592857990413904
0.010632766727358103
0.010680287734139711
0.010718265976756812
0.010736250609625131
0.010742953743319959
0.010771087752655149
0.010819871067069472
0.010825538909994065
0.010767076716292649
0.010715545408893377
0.010703875375911593
0.010682354846503586
0.010655138185247779
0.010683472324162722
0.010748978971969336
0.010778710881713777
0.01075550876557827
0.01071445324923843
0.010699009373784065
0.010724385336507112
0.010745390707161278
0.01071808574255556
0.010687250713817775
0.010734158440027387
0.010838527523446828
0.010884078927338123
0.010845424407161772
0.010823477734811604
0.010855770730413496
0.010877364783082157
0.010854294232558459
0.010811766937840729
0.010773857866879552
0.0107529710768722
0.01076616523321718
0.010809366449248046
0.010853944728150964
0.010890721457544715
0.010911240440327674
0.010890596818644554
0.010837177077773959
0.010785351872909814
0.010757560674101115
0.010765920334961265
0.010791237954981625
0.010785632284823805
0.010737885488197207
0.010681583613622933
0.010638112821616232
0.010601450379472226
0.010571510787121952
0.010563088888302445
0.01057056366931647
0.010574784302152694
0.010583680029958487
0.010608120593242348
0.01063344971742481
0.01064782627625391
0.01066234038444236
0.010696044561918826
0.01074017125647515
0.010760109261609615
0.010763944427017122
0.01079059632262215
0.010819317803252489
0.01080586491851136
0.010769068154040724
0.01075496596749872
0.010773188665043563
0.010797532068099826
0.010810635888483376
0.010842866776511074
0.010908188412431628
0.010942741646431386
0.010919293374754488
0.01091483599273488
0.010974672799929976
0.01104136140551418
0.01105125313391909
0.011022250531241298
0.011016865067649633
0.011042326046153903
0.011050453884527087
0.011012770985253155
0.010953586262185127
0.010917224737349898
0.010896213888190686
0.010861733849160372
0.010843635187484324
0.010869449600577355
0.010912382742390037
0.010938770633656532
0.010929776593111456
0.0108937434758991
0.010863152293022722
0.010861877999268472
0.010898835009429604
0.010955064406152815
0.010975539826322347
0.010922041251324116
0.010824649254791438
0.010748998182825743
0.010707362168468536
0.010657554431818426
0.010596497559454292
0.01055664079496637
0.010528099604416639
0.010487032786477357
0.01046231976011768
0.0104919493640773
0.010553090530447663
0.010586789781227708
0.010568507383577525
0.010539623135700822
0.010553404414094985
0.010591661217622459
0.010594694935716688
0.010567421354353427
0.010569573268294335
0.010610763565637171
0.010643423337023705
0.010639981059357524
0.010616130279377103
0.010588762622792274
0.01055229440331459
0.010516891663428396
0.010501132488716394
0.010477283250074833
0.010428696204908192
0.01041081560542807
0.010462432410567999
0.010542994826100766
0.010599930996540934
0.01062275905162096
0.010627773224841803
0.010619530994445086
0.010571744905319065
0.010484558176249265
0.010428346216212959
0.010449451180174946
0.010494148342404514
0.010500615544151515
0.010476998400408775
0.010449901656247675
0.010440393527969717
0.010473761891480535
0.010538321875501425
0.010596547601744532
0.010640359211247414
0.010668507418595255
0.010663999039679765
0.01064002635423094
0.010634760800749064
0.010649828475434333
0.010662323995493352
0.010667813951149583
0.010671713631600141
0.010674047390930355
0.010662611774168908
0.010626730101648718
0.01058719148626551
0.010560867181047796
0.010520659810863435
0.010464192023500801
0.010442429014947265
0.010466427768114954
0.010498710593674332
0.010525948877912014
0.01054367498960346
0.010531640069093556
0.01048384002642706
0.010408198947552592
0.010316735494416206
0.010235918376129121
0.01018829146400094
0.01016787018859759
0.010155508911702782
0.010147206541150809
0.010158990409690887
0.010196060137823225
0.010227752556093038
0.010226253564469516
0.010204342505894602
0.010186428800225258
0.01017340535763651
0.010161741215270012
0.010171227541286498
0.0101991269714199
0.010201805913820862
0.010177780981175602
0.010171193939168006
0.010195820953231304
0.010237009013071657
0.010277297727297992
0.010298937582410872
0.010311613590456545
0.010343114130664617
0.010375650527421384
0.010377066254150122
0.010379901898559182
0.010414386480115355
0.01044078049948439
0.010455068594310432
0.01051696544047445
0.01060275245923549
0.010625114834401756
0.010603011967614293
0.0106100739329122
0.010626213180366904
0.010603041739668697
0.010565708954818547
0.010551057488191873
0.010546614513732493
0.01052185391075909
0.010462843840941786
0.010403475251514464
0.010404355598147959
0.010458539533428847
0.010502733427565546
0.010515153526794165
0.010518919823225588
0.010536196099128575
0.010568721108138562
0.01060412809252739
0.010638118875212967
0.010671027400530875
0.010699766718316824
0.01072681208141148
0.010751431826502084
0.010751775174867362
0.010706236399710179
0.01064460305031389
0.010625526264775545
0.010640862295404077
0.010630578654818236
0.010604264112189413
0.010623709168285131
0.010677214295137674
0.010698609619867057
0.010671615942846983
0.010639515747316182
0.010646792869083583
0.010684706554748118
0.010709002318326383
0.01070559794548899
0.01068705078214407
0.01065361254150048
0.010605440463405103
0.010573945033829659
0.010591693511232734
0.010626944033429026
0.010617349829990417
0.010565488049760461
0.010521185325924307
0.010496397404931485
0.010478611197322607
0.010479199280962349
0.010498733113054185
0.01050533690256998
0.010481560151092709
0.010449827536940575
0.010451443754136562
0.010499956717249006
0.010559211615473033
0.010592308470513671
0.010591213516891003
0.010550354290753603
0.010476861840579658
0.010421404102817177
0.010443227188661695
0.010531314818654209
0.01060870346147567
0.010642928022425622
0.010677423444576561
0.010727171306498348
0.010741785014979542
0.01069355865707621
0.010622984333895146
0.010582097647711635
0.010573739618994295
0.010566173791885377
0.01054556570481509
0.010528372577391564
0.010537819170858711
0.010568183809518815
0.010577543873805552
0.01056087892036885
0.010571597393136472
0.010613086430821568
0.010624115921091288
0.010591714305337518
0.010551713074091822
0.010512083559297026
0.010472010427620262
0.0104509208467789
0.01044163862708956
0.010410126396454871
0.010372628185432404
0.010379531446378678
0.010420639391522855
0.010453153590206057
0.0104691679822281
0.010460217809304595
0.010417252394836396
0.010384158755186945
0.010410618344321847
0.01046638385625556
0.010484831121284515
0.010470972154289484
0.01047727317083627
0.010497027260717004
0.010484606239479034
0.010445441342890263
0.010431534305680543
0.010476051918230951
0.010535133345983922
0.010527259511873126
0.010461881060618907
0.010422015129588545
0.010429289485327899
0.010451344684697687
0.010473625718150288
0.010476476878393442
0.010439713001251221
0.010393502851948143
0.0103663966874592
0.01034149972954765
0.010330705677624792
0.010353467792738229
0.010355688331183046
0.010311495682690292
0.010289140429813414
0.010314951704349368
0.010341884957160801
0.010354213693644851
0.01035928477300331
0.010348195109982044
0.010337597036268562
0.010356337192934006
0.010387585561256856
0.01040093005867675
0.010400188248604536
0.010400291008409113
0.010406177474651486
0.01041223808657378
0.010401072774548083
0.01037723135901615
0.01037564431782812
0.010386420532595366
0.01036387040745467
0.010332978535443545
0.010345052701886744
0.010375008655246347
0.010386007518973202
0.010394842538516968
0.01040336836129427
0.010377323462162167
0.010321852155029773
0.010287301177158951
0.010299990833736956
0.010337760392576455
0.010363528700545431
0.010356879869941622
0.010321530976798386
0.010289157971274108
0.010300035569816828
0.010345024501439183
0.01037087878677994
0.010368075829464942
0.010363866197876633
0.010346423522569238
0.010302417795173824
0.010265309005044401
0.010263385740108788
0.010278888735920191
0.010273271838668734
0.010241137854754924
0.010215098897460848
0.01020731289871037
0.010210827130358667
0.010253033703193068
0.010346496547572314
0.010416817816440016
0.010397174314130097
0.010340811614878476
0.010333426827564836
0.010346490603405983
0.010297644170932471
0.010223982529714704
0.01022321467520669
0.010267651730682701
0.010269970973022282
0.010247333841398358
0.010258472198620439
0.010287147460039704
0.01029656179714948
0.010296849850565195
0.010302370870485902
0.010308819832280278
0.010320098823867738
0.010331298534292727
0.010322539114858954
0.0103061997378245
0.010316975589375943
0.01034435753710568
0.010341123819816857
0.010302364551462233
0.010271307516377419
0.01025847592856735
0.01023386766668409
0.010213479415979236
0.010242400374263525
0.010290991375222802
0.010290807180572301
0.01024565546773374
0.010223455100785941
0.010254590946715325
0.010280543300323188
0.010246941589284688
0.010185799307655542
0.010125508469063788
0.010053838754538446
0.010015035583637654
0.010049559550825506
0.01008941343287006
0.010093034591991455
0.010116557418368756
0.010157308294437825
0.010157737219706177
0.010152758394833655
0.010200155971106142
0.010252337048295885
0.010247669429518283
0.010209800433367491
0.010168456344399602
0.010118945923168213
0.01010126838227734
0.01015825331909582
0.010238300061319023
0.010290870685130358
0.010337225999683142
0.010371679461095483
0.01036151337204501
0.010325193712487817
0.010306749497540296
0.010329403970390559
0.010379958925768732
0.010405553083401173
0.010377767046447843
0.010345787156838924
0.010354811591096223
0.01038147347746417
0.010397068602032959
0.010404417996760458
0.010418089686427266
0.010452187096234411
0.010495091816410422
0.01052053753985092
0.010531977885402739
0.010544820346403867
0.010553696625865996
0.010554557796567679
