0.010101834137458354
0.01008139861980453
0.010022128883283585
0.009971973618958145
0.009950303859077393
0.009944572173990309
0.009936397643759847
0.00996679833624512
0.01010416539153084
0.010273945070803165
0.010292680924758315
0.010122919755522162
0.009922115050721913
0.009823162432294339
0.009792325864546002
0.009730329285375774
0.009637788264080882
0.00961458896053955
0.009705534831155091
0.009825988106895238
0.009887439880985767
0.009928394278977066
0.010025099047925323
0.010118895103223622
0.010120533856097609
0.010078143593855202
0.010019597734790296
0.00988023292273283
0.009703554618172348
0.009625774819869547
0.009658295738045126
0.009704827086534352
0.009740740158595145
0.009781530750915408
0.009795837025158106
0.009796678132843226
0.009824282266199589
0.009836393925361335
0.009804369292687624
0.009790147631429135
0.009837819975800813
0.00994131833780557
0.010081256355624646
0.010187197313643991
0.010166694319341332
0.01003238676348701
0.009921455844305456
0.009948791381902992
0.010064102259930223
0.010119306191336363
0.010105028045363723
0.01012048034928739
0.010133291180245578
0.010104522472247482
0.01010883427457884
0.010122465305030345
0.010068208167795092
0.009966913682874293
0.009849225177895278
0.009769713969435543
0.009827542179264128
0.01000224326737225
0.010121013834141195
0.010079617113806307
0.010001911823637783
0.01003928082063794
0.01014770888723433
0.010246392411645502
0.010348216460552067
0.010432940046302974
0.010451316388789565
0.01042763500707224
0.010412051095627248
0.010431174484547228
0.010481900332961232
0.010519613437354565
0.010527309174649417
0.010536395069211722
0.010553294802084565
0.01055845919298008
0.010563293078448624
0.010607926012016832
0.010669892146252096
0.010652417209930718
0.01053691386943683
0.010436554406769574
0.01047529197530821
0.010642721850890666
0.01073300132062286
0.010612669081892819
0.01047454059123993
0.010494440749753267
0.010540031061973423
0.010473193845245986
0.010381136881187558
0.010403805072419345
0.010519376113079489
0.01057396988151595
0.010516780577600002
0.010457438819576054
0.010432015948463231
0.010401460085995495
0.010426222179085017
0.010482811403926462
0.0104176563071087
0.010254727567080409
0.010152207356877625
0.010143964407034219
0.010157020876649768
0.010150822589639574
0.010135380334686488
0.010120036837179214
0.010156633788719774
0.0103208222030662
0.01053794842446223
0.010667041388805955
0.010724921110086143
0.01076538440072909
0.010759964473545552
0.010714493619743734
0.010690091492142529
0.010711807268671691
0.010721940994262696
0.010684623059350997
0.010688057115767152
0.010754687041044235
0.010754721930716186
0.010684149847365916
0.010670747328549623
0.010688171379733831
0.010608451303560286
0.010402837281581014
0.010160168875008821
0.01007441151421517
0.010243846261873841
0.010446282760240138
0.010437825198750942
0.010318424722645431
0.010340253617614507
0.010504014065954834
0.010562926118727773
0.010448498378973454
0.01036137182964012
0.010399236460216343
0.01047168845543638
0.010482375344727188
0.010419125878252089
0.010376005570869894
0.01042158437659964
0.010516512715257704
0.010625843494199216
0.010688680710736663
0.01063774477923289
0.010569984840694815
0.010590383769012987
0.010658709621056915
0.010738854522351175
0.010827040551230311
0.010887335170991719
0.010846697678789496
0.010687260499689728
0.010561390705406666
0.010582414283417165
0.010623633903451264
0.01055229076417163
0.010404451021458953
0.010279447238426656
0.010223358639050275
0.01018748891307041
0.010136492913588882
0.010106358353514224
0.010095772806089372
0.010086515105795115
0.010088687711395324
0.010052917301654815
0.009970605226699262
0.009985301671549677
0.010126743854489178
0.010230372743681073
0.010270893147680909
0.010380469241645186
0.010576981336344033
0.010749059712979942
0.010795808529946953
0.010719035216607154
0.010619746495503932
0.010572286697570234
0.010564821301959454
0.010554681406356394
0.010522833135910332
0.010492153458762914
0.010468184349592775
0.01044395505450666
0.010466647495049983
0.010524299321696162
0.010504281921312213
0.01039061253424734
0.010314913713373244
0.010382263781502843
0.01051137006143108
0.010538335044402629
0.010494976388290524
0.010498926993459463
0.010493016373366117
0.010432584725786
0.010401317561045289
0.010413405185099691
0.01041294246679172
0.010384232145734132
0.010382968226913362
0.010501765296794474
0.010689398795366288
0.010766848160419612
0.010734791581053288
0.010758775572758167
0.010848574042320251
0.010856075868941844
0.010759101156145335
0.010673800292424858
0.010617281957529486
0.010546355529222638
0.010512317304965109
0.010528454396408052
0.010498146407771856
0.0104217306827195
0.010402890446130186
0.010405483259819447
0.010330990855582058
0.010247244131751359
0.010241787077393382
0.010246631696354598
0.010186944301240146
0.010115436953492462
0.010084686854388564
0.01003994328668341
0.009953112045768648
0.009864773354493081
0.009785298444330692
0.009758554899599403
0.009828477152623236
0.009907397578936071
0.009930107574909926
0.009956042692065238
0.010000049632508308
0.010001742688473314
0.00996859687846154
0.00997145269997418
0.010000568875111639
0.009980361668858677
0.00991751209134236
0.00986995242536068
0.009833785349037498
0.009816533969715237
0.009876039512455463
0.009966846394818277
0.009978378252126276
0.009930420112796127
0.009907863105181604
0.0099481454747729
0.010044242669828236
0.010094441692344844
0.010026028207503259
0.009951593067962677
0.00993113022763282
0.009846154861152171
0.009689293678384274
0.009599565505050122
0.009603118882514536
0.009645007476210594
0.009746534219011664
0.009892624570056796
0.00996289276285097
0.009940960644744336
0.009960655837785453
0.010051682048942894
0.010110736938659102
0.010133682063315063
0.010179283649194985
0.010185629220213741
0.010084644267335534
0.009963778243400157
0.009916257685981691
0.009870784098748118
0.009779399593826383
0.009808440268971026
0.010077435949351638
0.01041431758319959
0.010559684936888516
0.010454572290182113
0.010293012734036893
0.010291314576752484
0.010423343812581152
0.01051773659652099
0.010511670056730508
0.010498499609529971
0.010584904169663787
0.0106987175042741
0.0106711085466668
0.010519756765570492
0.010401185979135334
0.010386965838260948
0.010472821933217347
0.010608378441538661
0.010670873476192356
0.010619884082116187
0.010559872190933675
0.0105340610537678
0.010497629821766169
0.01044503427343443
0.010404459109995514
0.010412759664468467
0.010436263082083315
0.010362506837118417
0.010225646165199578
0.010193342564161868
0.0102739507262595
0.010325460261665285
0.010297595653682948
0.010252149859443307
0.010193007527850568
0.010089863007888198
0.010056322026066482
0.010185721179004759
0.010309756845235824
0.010302468144800514
0.010315029663033784
0.010412019221112132
0.010444938892032952
0.010398456647526472
0.010417996102478354
0.010516436216421425
0.010587699750903994
0.010630511487834155
0.010647489426191896
0.010501997533719987
0.010199737285729498
0.010008418653160333
0.010074157644994556
0.01023408819688484
0.010289422797504812
0.010236016872804612
0.010178018331062048
0.010166529109701514
0.010189716333989053
0.010200599017553031
0.010151518816128373
0.01010973414639011
0.01017792234197259
0.010292118471115828
0.010357012818567456
0.010380667923018337
0.010339541882276536
0.010224147420376539
0.010145234419032931
0.010168619472533464
0.010231548431329429
0.010285205401014536
0.010346442069858313
0.010424217097461224
0.010444744070991874
0.010313309386838228
0.010123275613877922
0.010091428554151207
0.01022923290496692
0.010343963883351535
0.01034221007488668
0.010341191326733678
0.010452428155113012
0.010591275079641492
0.010654182282742113
0.010679618339054286
0.010666044203098864
0.010539993587881326
0.010377212571911513
0.010313410824164749
0.01031164160463959
0.010295856890734286
0.010294461089652032
0.010317884334363044
0.010304983460810036
0.010216914005577565
0.01012259371811524
0.010131702006328852
0.010265601316932589
0.010461207279004157
0.010588472187519073
0.010553094206843526
0.010427253821399063
0.010314780967310071
0.010253312503919006
0.010280672791413963
0.010359492555726319
0.010343690724112094
0.010213878573849797
0.010148036435712129
0.010208859152626246
0.010254309154115617
0.010245271567255259
0.0102812616690062
0.010316763995215297
0.010229396880604327
0.010107986605726182
0.010119079349096864
0.010216028436552733
0.010254649715498089
0.010242284189444036
0.010282252409961074
0.01037808199878782
0.010426394797395915
0.010416409000754356
0.010464337028097362
0.010571846847888082
0.010612732956651598
0.01057269754819572
0.01055231915321201
0.010579783637076616
0.010568550475873052
0.010463022079784423
0.01032477646600455
0.01023792302934453
0.010233870258089155
0.010289924608077854
0.010340523081831634
0.01035013226326555
0.010346884008031338
0.010339974900707602
0.010318370386958122
0.010311103099957109
0.010317317263688891
0.010305362124927341
0.01031749727204442
0.010387691848445684
0.01046756976051256
0.010531736775301398
0.01059157565003261
0.010643208953551949
0.010654739115852862
0.010619426243938506
0.010627304126974196
0.010694391869474202
0.010672625843435526
0.010554309622384607
0.010536984680220485
0.010636808041017503
0.01065701573388651
0.010588833217043429
0.010597736074123532
0.010673606456257402
0.010658572751563043
0.010563274887390435
0.010563627714291215
0.010656101433560251
0.010661415006034076
0.010600830130279064
0.010653400097507983
0.010792689868249
0.010817899913527072
0.010644948382396251
0.010396643076092005
0.010241013574413956
0.010201541979331524
0.01020351384067908
0.010210941086988896
0.01019761256640777
0.010135526976082474
0.010083261108957232
0.01013273466611281
0.010259698100853712
0.010360173450317233
0.010412904494442045
0.010459499335847795
0.010484758447855711
0.01046762365847826
0.010436489006970077
0.010409236976411194
0.010393423123750835
0.010384642959106714
0.010353939549531788
0.010337545045185834
0.010402060637716204
0.01049246934009716
0.010518048864323646
0.01049076290568337
0.010448861378245055
0.010424853374715895
0.010446573991794139
0.010471981600858271
0.010452418215572834
0.010389269078150392
0.010312220270279795
0.010269656295422465
0.010234285912010819
0.01016879317117855
0.010207223154138774
0.010406624474562705
0.010533436825498938
0.010424246226903052
0.010217590818647294
0.010129193225875497
0.010185071378946304
0.01022905100369826
0.010212742581497878
0.010206526718102396
0.010153967728838325
0.009998229208867997
0.009828463071025908
0.00972132702358067
0.009700122706126421
0.009781995171215386
0.009930778157431631
0.010077109627891332
0.010180101413279772
0.01021246180171147
0.010183358259964734
0.010191986705176532
0.010323446695692837
0.010486917349044233
0.010522486416157335
0.010452158029656856
0.010387718558777124
0.010325584856327624
0.010261422172188759
0.010254656323231756
0.010281812837347389
0.010253278899472206
0.010169927864335477
0.010122841517440974
0.010168072183150799
0.010271833669394255
0.010360951838083565
0.010400795261375606
0.01038223756942898
0.010301618955563753
0.010228648027405142
0.010214334118645639
0.01019731653155759
0.010187742649577558
0.010266902546864003
0.010375579972751438
0.010400649413932116
0.01036694253096357
0.010385963879525662
0.010458143169526011
0.010437016633804887
0.010296170185320079
0.010217611957341433
0.010300092410761862
0.010437546875327825
0.010505235791206359
0.010531355815473945
0.010624329305719583
0.01074814931023866
0.01079921582248062
0.010832354354206472
0.010932906111702324
0.011048315817024559
0.011112515528220684
0.01116717912722379
0.011238869330845773
0.011218423892278223
0.011043519540689885
0.010860335868783296
0.010835721828043461
0.010943820783868432
0.011023115515708923
0.010959931656252593
0.010793286515399814
0.010647660414688289
0.010578359405044466
0.010576095245778561
0.010626990837045014
0.010666893918532878
0.010636377779301256
0.010576240671798586
0.01055726777529344
0.01057587915332988
0.010570937730371953
0.0105194735317491
0.010472628250718118
0.010476593701168895
0.01051705467281863
0.01056923842523247
0.010620278599672019
0.010656196670606733
0.01069475221913308
0.010723740130197256
0.010613199714571237
0.010487750230822712
0.010282708157319576
0.010384900060016663
0.010610400489531458
0.010639468375593424
0.010487141890916974
0.010410934642422945
0.010480974658858031
0.010541380187496542
0.010506036449223757
0.010435880615841598
0.010398149953689427
0.010391276550944895
0.01037073422688991
0.010306191253475845
0.01023980394238606
0.010231805657967925
0.010222065399866552
0.010136495819315314
0.010068736823741346
0.010085964556783438
0.010092598071787506
0.010102112381719052
0.010237020805943757
0.010395805535372346
0.01037651249440387
0.010220323672983795
0.010101986781228334
0.010101718604564667
0.010203050575219095
0.01033460521372035
0.010431810901500284
0.010491940220817923
0.01053103247890249
0.01053438062313944
0.01049746858421713
0.010475688423030078
0.010502686486579477
0.01053305686218664
0.010555479591712356
0.010596459745429457
0.01059783746721223
0.010517643650528043
0.01045381012139842
0.010466493212152272
0.010484185630921274
0.010462457872927189
0.010419589893426746
0.0104023034311831
0.01049002644373104
0.010508148416411131
0.010629423342179508
0.01057930318871513
0.01041329869767651
0.010290288575924933
0.010286637279205025
0.010328989424742759
0.010341151265893132
0.01034055887022987
0.010391462314873933
0.010496027506887913
0.01053469946142286
0.010427018811460584
0.010297275497578084
0.010319369244389236
0.010443661177996546
0.010485061418730766
0.010447108633816243
0.010437426813878119
0.010395963371265679
0.010268442775122821
0.010181834662798792
0.010188849854748695
0.010179388250689954
0.010149295250885189
0.010203317652922124
0.010343666290864348
0.010496738387737424
0.010580330158118158
0.010544310035184025
0.010448010384570806
0.010346485516056419
0.010202622136566787
0.010036267237737775
0.00998870498733595
0.010143218750599772
0.01036234050989151
0.010443706256337464
0.010380944744683802
0.01030212477548048
0.010285108345560729
0.010334644049871713
0.010377366489265114
0.010336702344939113
0.010284417469520121
0.010305346362292767
0.010305169892963022
0.010204489324241877
0.010095985908992588
0.010072715731803327
0.010124339889734983
0.010179964886046946
0.01019887750269845
0.010252659677062183
0.010389888358768076
0.010516174067743123
0.01054532269248739
0.010510150259360671
0.010463936920277774
0.01038705422077328
0.010288440298754722
0.010276971464045347
0.01037786130560562
0.010470626826863736
0.01046837816014886
0.01038198582828045
0.010279380965512246
0.010261237090453505
0.010385740522760898
0.01059606057824567
0.01076358907390386
0.010823042460251599
0.010828980195801705
0.010819949724245817
0.010728699520695955
0.010554836394730956
0.010429223575629294
0.010404321972746402
0.010445231646299362
0.010550309629179537
0.01069366094423458
0.010809129404369741
0.010844950147438795
0.010817081716377288
0.010808825902640819
0.01083061086712405
0.010818868023343385
0.010803338268306106
0.010863331686705351
0.010962789531331509
0.010988296689465642
0.010909901161212474
0.010829451796598732
0.010812418353743851
0.010769497053697705
0.010678837068844586
0.01067324289586395
0.01075189261464402
0.01079735129373148
0.010838951596524567
0.010924102284479886
0.010977219766937196
0.010968880536966026
0.010952520677819847
0.010944882221519948
0.010887432328891009
0.010724232930224389
0.010528858739417047
0.010442774591501803
0.010486410995945335
0.010550556434318424
0.010550951564218848
0.010525373029522597
0.010518643611576409
0.010475916985888034
0.010414430478122086
0.010469941396731883
0.010613830885849893
0.010664018588140606
0.010623063521925359
0.010645889388397336
0.010724243465811014
0.010725049977190792
0.010698769057635218
0.010828866146039218
0.011071007598657161
0.011175471604801715
0.011052258361596614
0.010831121078226716
0.010641705230809748
0.010515354585368186
0.010446653764229269
0.010478201135993005
0.010624884990975261
0.010746500082314014
0.010727186664007604
0.010683127886150032
0.01074777323519811
0.01086916338186711
0.01097212994005531
0.011052305817138404
0.011086106218863278
0.011050852320622653
0.011012765942141414
0.011064830590039492
0.011171435629948974
0.011203191583044827
0.011149302592966705
0.011127424200531096
0.0111803592951037
0.011233118178788573
0.011209925306029617
0.011117998722475021
0.011032090410590173
0.010980807063169777
0.010951263715978711
0.010980301934760064
0.011057903885375708
0.011070788393262775
0.010981132497545332
0.010904926743824034
0.010934410698246211
0.010991998554673046
0.010995538427960128
0.011057890697848051
0.011245198082178831
0.011337395457085222
0.011178689987864344
0.010959357570391149
0.010874131692107767
0.01085496565559879
0.010812481024768204
0.010775061671156437
0.010682832503225654
0.010456013488583266
0.01026388351339847
0.010314998927060514
0.010507026985287667
0.010577342107426375
0.010471213145647197
0.010362489914987236
0.01041919477749616
0.010562159947585314
0.010620936518535018
0.010564577721524984
0.010451639592647553
0.010318111495580524
0.010205770044121891
0.010118175216484815
0.009987570471130311
0.009835831576492638
0.009804484345950186
0.009934461330994964
0.0100942074181512
0.010146050527691842
0.010064083302859217
0.00994769882177934
0.009939887842629105
0.010030064678285272
0.010026727095246315
0.00984167868969962
0.009658175718504936
0.009656680219341069
0.00974493387620896
0.009774602039251477
0.009799664579331875
0.00990197507897392
0.010026125577278435
0.010121726063080132
0.0101861477131024
0.010168348159641027
0.01007812753552571
0.010049117440357804
0.010083187739364802
0.010008313732687384
0.009832898024469613
0.009762364213820547
0.009822793058119714
0.009870318281464278
0.009873285219073295
0.00987651051953435
0.009859234322793781
0.009797167687211186
0.009764702823013068
0.009849947656039148
0.009977087683510036
0.010006920855958015
0.009994957782328128
0.010105214659124612
0.010325286765582859
0.010488092703744768
0.010465707792900503
0.010334949889220298
0.010213937053922564
0.010112664226908237
0.010058850122150034
0.010119795210193842
0.010213097149971873
0.010203864506911487
0.010142041631042957
0.010156646026298405
0.010250669391825794
0.010303321096580475
0.010215028061065824
0.010072090269532055
0.010068724430166185
0.010179127471055836
0.010153242896776646
0.009928008706774563
0.00974824575940147
0.00983992597553879
0.0101350233447738
0.010355185528751462
0.010370259452611209
0.01032338868593797
0.010332581717520953
0.010344705318566412
0.010299927887972444
0.01018602958181873
0.01006907245144248
0.009992696293629706
0.010012641458306461
0.010027098604477942
0.01001272585708648
0.01002974207745865
0.010051024013664573
0.010027104981709271
0.010024010906927288
0.010087625326123088
0.01013934264658019
0.010138663351535798
0.010139691685326397
0.010180558464489876
0.010243049666751176
0.01025879078079015
0.010174793759360909
0.01005033298395574
0.009984007673338055
0.00997693394543603
0.009959081618580968
0.009907347494736313
0.009889142089523375
0.00993849806021899
0.009979202207177877
0.00997810544911772
0.009969555349089205
0.009920597479213028
0.009838110813871027
0.009836535970680415
0.009932896527461708
0.009997717910446227
0.009931720551103354
0.009817076888866723
0.009830344736110419
0.009962324006482958
0.010045873783528805
0.010077905873768032
0.010204357989132405
0.010415547639131545
0.010530974806752056
0.010444910074584186
0.010242408998310566
0.010087007062975318
0.010038659500423819
0.010052909988444299
0.010101400939747691
0.01014937361003831
0.010167854593601078
0.010242010205984116
0.010394383384846152
0.010554304453544319
0.010568912664894015
0.010497266661841422
0.010454303973820061
0.010465480436105281
0.010485924328677357
0.010489792090374976
0.010491679217666387
0.010500226598232985
0.010505581819452346
0.010515506395604462
0.010554856585804373
0.010638388327788562
0.010763352015055716
0.010898015443235636
0.010988460259977729
0.010995310982689261
0.010936139409895986
0.010857169539667666
0.010768836785573513
0.010695437509566546
0.010670711977872997
0.010645944653078913
0.010561137795448303
0.010438745738938451
0.010350249414332212
0.01037108083954081
0.010509202221874148
0.010671765806619079
0.010765764419920743
0.010784069222863764
0.010770485203247518
0.010725402482785284
0.010629128138534725
0.010550956702791154
0.010535421487875283
0.010475060883909464
0.010330110010690986
0.010235951440408826
0.010263933832757175
0.010346237591002137
0.01041920265648514
0.010486081743147224
0.010556390029378235
0.010560916753020138
0.010436477498151362
0.010295720999129116
0.010292140077799558
0.010372991871554405
0.010401150393299759
0.01037850890075788
0.010393579218070954
0.010463112976867705
0.01052001419942826
0.01052842076169327
0.010511163552291692
0.010486902629490941
0.010466014177072793
0.010445267329923808
0.010382005921564996
0.010262748498935253
0.010164795422460883
0.010154251554049552
0.010184256415814162
0.01016642879229039
0.01008147930027917
0.009979471892584114
0.009910864997655153
0.00989850467769429
0.009936714686919004
0.00996339599136263
0.009908347560558467
0.009819334039930254
0.009850475629791617
0.010058099546004087
0.010283518033102155
0.01035011030966416
0.010268787846434861
0.010134684622753411
0.010007263331208377
0.009945009029470384
0.009971277599688619
0.010019184497650713
0.010010829761158675
0.009949218295514584
0.009912798989098519
0.00997667297720909
0.01009919345844537
0.010154074556194246
0.010106646795757115
0.010026621799916029
0.00996075308183208
0.0099086606153287
0.009889035446103662
0.00992528609232977
0.00997205525636673
0.009969192638527602
0.009928621293511242
0.009874264146201312
0.009796625394374132
0.009719692443031818
0.009676823776680976
0.009645657807122916
0.009620163466315716
0.009628818309865892
0.009644862653221935
0.009625770798884332
0.009588009957224131
0.00955337300663814
0.009516218919306993
0.009488495832774788
0.00950355502543971
0.009553964915685356
0.009600701644085347
0.009641634763684124
0.009673978756181896
0.009673832005355508
0.009656805873382836
0.009661573732737452
0.009713535383343696
0.009820673605427146
0.00997211787616834
0.010134764686226845
0.010214923769235612
0.010148329734802246
0.010049749738536775
0.010035320734605193
0.010038329092785715
0.010004847031086683
0.00996274639153853
0.009901484774891287
0.009861515124794096
0.009940247279591858
0.01010039411019534
0.010195277049206197
0.010175707892049104
0.010104398103430867
0.010040458391886204
0.010027727442793549
0.010094345749821513
0.010199576211161911
0.010235550249926745
0.010136272045783698
0.00996746588498354
0.009862531258258969
0.009893313602078705
0.00999949522782117
0.010078995034564286
0.01015066088642925
0.010267389607615768
0.010351026395801455
0.010323823988437652
0.010246230897027999
0.01019843678921461
0.010190238268114627
0.01021583152236417
0.010255687537137419
0.010263334210030735
0.010265866969712078
0.01037580804200843
0.010587400002405047
0.010704366674181074
0.01061328182462603
0.010429526667576284
0.010296723514329642
0.010285350396297872
0.010403793512377888
0.01055956369265914
0.010665640085935593
0.01072708894731477
0.01073861887678504
0.010654670705553143
0.010483024385757744
0.010347740172874183
0.0103683339827694
0.010456237958278507
0.010466217794455588
0.010450660253409296
0.01048690575407818
0.010535100663546473
0.01057937005534768
0.01063115439377725
0.010656141135841608
0.010604091605637222
0.010467864261008798
0.01034470807760954
0.010362319094128906
0.010456403421703725
0.010435621673241257
0.010320793783757836
0.010284868995659053
0.010340299208182841
0.010411385328043253
0.010520499888807535
0.01068810920463875
0.010830253164749592
0.010862513906322419
0.010795961546245963
0.010705410451628268
0.010666620375122875
0.010688348731491715
0.010718065674882381
0.010742113781161607
0.01076089113485068
0.01075802921783179
0.010789697298314423
0.010896596114616842
0.0109956407523714
0.01101846324512735
0.010962303436826915
0.01082668783608824
0.01066203550901264
0.010535320122726262
0.010459407763555646
0.010454995518084615
0.010515454392880201
0.010547522238921374
0.010496850006747991
0.010391661082394421
0.01026270643575117
0.010148658759426325
0.010115469086449592
0.01020607326645404
0.010337494683917613
0.010363174262456596
0.010313564161770046
0.010305961426347494
0.01029723261250183
0.010259350636042655
0.010302689322270454
0.010412620117422193
0.010431655563879759
0.010351242895703763
0.010349834505468607
0.010530262438114732
0.01073623294942081
0.010734847106505185
0.010570012363605202
0.010481717686634511
0.010499804974533617
0.010459860786795616
0.010352826721500605
0.010332697404082864
0.010410458247642964
0.010415435142349452
0.010281582716852427
0.010140260602347552
0.010096906775142998
0.01008955626981333
0.010015779549721628
0.00992566898232326
0.00994737755972892
0.010042844144627451
0.010093135370407253
0.010089065856300294
0.010028388581704349
0.009927752639632671
0.009896696414798498
0.009927747189067304
0.00991341303102672
0.009884298944380135
0.009913347202818841
0.009990657281596213
0.01007557070814073
0.010107753269840031
0.010091836194042116
0.010112174127716572
0.01015581097221002
0.010153359861578792
0.01015039415564388
0.010225633198861033
0.010330399356316775
0.010324874580837785
0.010203697681427003
0.010141979979816824
0.010199596837628633
0.010242705103009939
0.010215306733734907
0.010179063316900282
0.010145692264195531
0.010080597596243024
0.009988226920831948
0.009948553568683564
0.010019958545453846
0.010100198390427978
0.010082772793248295
0.01003839202458039
0.010056714010424912
0.010112603397574275
0.01014974675141275
0.01018865466117859
0.01027667121263221
0.010332980854436756
0.010269292281009257
0.010192196737043559
0.010217001824639738
0.010276204734109342
0.010281730080023407
0.010262289047241212
0.010283627766184508
0.010344402301125228
0.010368009321391583
0.010310711367055773
0.010215637115761638
0.010132199123036116
0.010086078965105116
0.010074822620954365
0.010063030612654985
0.01006597357103601
0.010113061056472361
0.010164012007880956
0.010207024663686752
0.01023865094408393
0.010192476857919247
0.010093016177415847
0.010031338788103313
0.009988317401148378
0.00994186766212806
0.009939258664380758
0.009969965815544128
0.009966539284214378
0.009914983839262276
0.009909898259211332
0.01000954668270424
0.010079427883028983
0.010042513918597252
0.010054109133780003
0.010153640373609961
0.010194515283219517
0.010188359722960741
0.010253856603521854
0.010370193144772201
0.010411783365998416
0.010315348932053894
0.010146859157830477
0.009976732833310962
0.00984847605926916
0.009841757365502418
0.009931703442707657
0.009996007590088993
0.010009295309428125
0.010001939740031957
0.009979344042949378
0.009934292244724929
0.009839594608638435
0.009708879282698035
0.009622283685021103
0.009634275350254028
0.009748227887321263
0.009929082926828415
0.010049530304968357
0.00997742272913456
0.009800215715076775
0.009764525555074215
0.009928456128109246
0.010094616080168635
0.01013526180293411
0.010140034633222968
0.010176987964659929
0.010161371100693942
0.010035498249344528
0.00988853569375351
0.009868221348151565
0.009997713866177947
0.01012995621189475
0.010191916993353516
0.010261056241579353
0.0103390276664868
0.01038244666531682
0.010448903162032366
0.010580292977392674
0.010719895076472313
0.010776205314323306
0.010730115559417754
0.010712130519095808
0.010786464805714786
0.010783829516731203
0.010648531029000879
0.010558174315374345
0.010551962070167065
0.010544989330228419
0.010550297959707678
0.010567075742874294
0.010544338733889163
0.01051601903513074
0.010577189726755023
0.010720688318833708
0.010801981182303279
0.010761686665937305
0.01069380268920213
0.010631286757998168
0.010569884011056274
0.01057689337991178
0.010668816082179546
0.01080749967135489
0.011001330837607383
0.011243216230068355
0.011399373833555729
0.01129748409613967
0.010984805291518568
0.010747676298487932
0.010825909720733762
0.011146484042983502
0.01133905806345865
0.011177200661040842
0.010894153367262334
0.010778235169127584
0.010754893240518868
0.010692721642553806
0.010722662520129234
0.010938961629290134
0.011143904300406576
0.011135635094251483
0.010992493547964841
0.010858442885801196
0.0107025932893157
0.010532512539066374
0.010479218813125045
0.010505889432970435
0.010450342977419496
0.01034788934281096
0.010348346570972354
0.010407972030807287
0.010364289074204861
0.01021719871321693
0.01011077443137765
0.010134538414422422
0.010246335959527642
0.010331376611720771
0.010320550615433603
0.0102611800073646
0.01025829152436927
0.010322988224215806
0.01035191030241549
0.01031865480588749
0.010295671499334276
0.010260690925642848
0.010154025808442385
0.010053071971051396
0.01007026830688119
0.01018151187337935
0.010262983022257685
0.01027110863244161
0.010264095566235483
0.010239644842222333
0.010151397914160042
0.010028447879012675
0.00996082898695022
0.010010057108011096
0.010134656007867306
0.010268446321133525
0.010364805422723293
0.01033750653034076
0.010226598852314054
0.010229439178947359
0.010355778022203594
0.01043650938430801
0.010462633382994682
0.010509611580055207
0.010525499871000647
0.010459440343547613
0.01040054889395833
0.010471020815894008
0.010653998828493058
0.010826190535444766
0.01091946815373376
0.010922862465959042
0.010841514898929745
0.010722879623062908
0.010608957058284432
0.010499125698115676
0.010415551441255957
0.01044596239225939
0.010621400326490402
0.010798107648734004
0.010841920198872685
0.010809557759203017
0.010796292477753013
0.010811247462406755
0.010840822092723102
0.010841298843733966
0.010773023322690279
0.010727448996622115
0.010779987899586558
0.010817899049725384
0.010803084168583155
0.010892451328691094
0.011095133547205477
0.011209695446304978
0.01115547689376399
0.011062206279020756
0.011034171048086136
0.011017844688612968
0.010968664647080004
0.010945753881242127
0.010930723964702339
0.010834062872454524
0.010728353406302632
0.01076129537075758
0.010873041597660631
0.010883078060578555
0.010786943025887013
0.010716787751298397
0.010697338576428593
0.010683618353214115
0.010708886259235441
0.010767276042606681
0.01075206700945273
0.010652566135395319
0.010563849317841233
0.010525737949647009
0.01052281510317698
0.010514065246097744
0.010488507051486523
0.010531896154861897
0.010674873939715326
0.010812760046683252
0.010879124130588025
0.010896352457348258
0.010895129006821663
0.010891783835832029
0.010869211936369538
0.01079422959825024
0.010686957514844836
0.010625406366307289
0.010661700156051666
0.010763953041750937
0.01085058031603694
0.01087540459120646
0.01086516308831051
0.01084153339965269
0.010764060714282096
0.010615052201319485
0.010497430565301329
0.01054585016099736
0.010703574444632977
0.010775118875317275
0.010739514837041497
0.01074239628855139
0.010816945976112038
0.010864799243863672
0.010865136377979069
0.010905087196733802
0.010987584819085896
0.011024386622011662
0.01104563988512382
0.011149110931437462
0.011246457861270756
0.011153893715236335
0.010915042464621365
0.010726019525900483
0.010609953817911445
0.010474523280281573
0.010365403082687408
0.010378451119177044
0.010447967678774149
0.010479326178319752
0.010535512543283403
0.01066260211635381
0.010765070486813784
0.01079487919807434
0.010812335137743503
0.010852085831575096
0.010889139075297862
0.010866151740774512
0.010735905489418655
0.010546542655210942
0.010430761971510947
0.010494006322696805
0.010699617022182792
0.010868999366648495
0.010905211141798645
0.010898225838318468
0.010915948189795016
0.010906480383127928
0.010815298280213027
0.010656354951206594
0.010499944505281746
0.01042629377450794
0.010484450096264482
0.01064279626822099
0.010767106553539635
0.010782534671016038
0.010784575955476612
0.010821525470819325
0.010786577488761395
0.010649753282777966
0.010515271693002433
0.010425105532631278
0.010353537336923182
0.010331183841917663
0.010373465497978032
0.010398966192733497
0.01036300037521869
0.010321830993052571
0.010304121363442392
0.010287884573917836
0.010308048170991242
0.01043804561952129
0.010664868890307844
0.01087501055561006
0.010992449901532381
0.011091133384034037
0.011245284429751336
0.011318991964217276
0.011189056667499244
0.011020094715058803
0.010977014459203929
0.010992008233442903
0.011012791725806891
0.011080656985286623
0.01114818820497021
0.011088698711246252
0.010874989207368345
0.01065265057142824
0.010572094260714949
0.010597317931242287
0.010589632543269546
0.010503948531113565
0.010418369232211263
0.010417825619224459
0.010471188775263728
0.010495785484090447
0.01050833065295592
0.01055073261493817
0.010594136929139495
0.010631685638800263
0.010716084979940206
0.010822552116587758
0.01079928947146982
0.01066271474584937
0.010678751193918288
0.010850662745069713
0.010862726734485477
0.010686226235702635
0.010579629926942289
0.010598500594496726
0.010642956830561162
0.010707136583514512
0.010789478856604546
0.010840186120476573
0.01086280401563272
0.010893862552475184
0.010937419037800282
0.01098532606381923
0.01103889760794118
0.01108536901185289
0.011075066046323627
0.010975876573938876
0.010839933927636594
0.01075159543659538
0.010727964027319103
0.010702239403035491
0.010641277018003166
0.010641835913993418
0.010772750976029784
0.010914923804812134
0.010941929896362126
0.010891933040693403
0.01082430882845074
0.010729044445324689
0.01065781531156972
0.010724619564134627
0.010914693167433143
0.011097468384541571
0.01122801146004349
0.011333022112958134
0.011397547672968357
0.01142070495057851
0.011430687953252345
0.011416981935035438
0.011370340161956847
0.011293457236606628
0.011185749219730496
0.011098076661583037
0.011060537658631802
0.011023845237214119
0.010981189331505447
0.010979966884478927
0.011026556270662695
0.011065240781754256
0.01103385299211368
0.010983512601815165
0.011030507986433805
0.011168640232644975
0.011306138362269848
0.011378899880219251
0.011337342320475728
0.011215588578488677
0.011138856092002243
0.011123536177910865
0.011058295329567045
0.01091422383673489
0.010822736897971481
0.01090190050425008
0.011054213736206292
0.01108600850449875
0.011009632770437747
0.010978193425107747
0.010987637240905315
0.010949581230524927
0.010925270703155547
0.010994418142363429
0.011071187271736562
0.011083051129244268
0.011088655046187341
0.011060143779031932
0.010901086165104061
0.010725325259845703
0.010719159082509578
0.01082492328248918
0.010849523379001767
0.01074584802147001
0.010650224625132978
0.010669655483216047
0.010746352353598922
0.010803767985198647
0.010853223667945713
0.010893277341965586
0.010869422783143819
0.010738672807347029
0.010543734743259847
0.010452853750903159
0.01055752811487764
0.010686157592572272
0.010680496972054244
0.010643261016812176
0.010690825823694468
0.010757365904282779
0.010788426552899182
0.01081312193069607
0.010787868115585297
0.010696469533722847
0.010671863935422153
0.010728604211471975
0.010703684114851057
0.010619747063610702
0.010659046228975058
0.010788909709081054
0.010830148661043495
0.010756000692490488
0.010672339091543108
0.01065531125990674
0.010638689901679755
0.010486927630845458
0.010275402467232197
0.010229810269083827
0.010332875882741064
0.010388351627625525
0.01039393338141963
0.010461935631465167
0.010565210164058954
0.010624734307639301
0.010642522701527924
0.010623037207406014
0.010538932087365538
0.010459163282066584
0.010511195056606084
0.010648415349423885
0.0107001757575199
0.010635162077378482
0.010560521760489792
0.010544515994843096
0.010539650355931372
0.010456152968108654
0.01029054978163913
0.010127301949542016
0.010055284157861024
0.010107575941365212
0.010235006075818091
0.010385779722128063
0.010554475004319101
0.010682279877364635
0.010694430170115083
0.01067202422535047
0.01076033252524212
0.010914751214440912
0.010951998895034194
0.010830576242879033
0.01066881334176287
0.010545558843296022
0.01050162479514256
0.010569040784612299
0.010631095592398197
0.010564359317068011
0.010503763426095247
0.010589057698380202
0.010695570132229477
0.010713408987503498
0.01073347380850464
0.010833620997145773
0.010973757910542191
0.011086584872100503
0.011165116678457708
0.011255712572019547
0.011314521408639849
0.011251057183835655
0.011161160527262837
0.01119310389040038
0.011286824496928603
0.01133026160299778
0.01134085880126804
0.011363928508944809
0.011399091249331831
0.011425933432765305
0.01140163152711466
0.011301318323239684
0.011173313404433428
0.011069261815864593
0.0109723195200786
0.010878810319118202
0.010840512139257043
0.0108573765354231
0.010877284719608724
0.010897046001628042
0.010931179635226726
0.010951363875064998
0.010931571312248707
0.010895752760116012
0.010882123247720301
0.01087639071745798
0.010836451719515026
0.01079620721982792
0.0108247254579328
0.010852845015469938
0.010769969848915935
0.01067880358081311
0.010749045342672616
0.01094564320286736
0.011125204807613046
0.01123303550761193
0.01130373654421419
0.011346683031879365
0.011348117382731289
0.01133645209716633
0.011280781291425228
0.011120119288098067
0.010956695680506527
0.01090493831783533
0.010904604909010232
0.010885362506378442
0.010836034696549177
0.010733540495857596
0.010597387515008449
0.010517925589811057
0.010572821663226933
0.010706933827605099
0.01076271636178717
0.0107237664796412
0.010723552308045328
0.010765517100226133
0.010725044766440988
0.01057620402192697
0.010397565052844584
0.010269170324318112
0.01024882348254323
0.010338666245806961
0.010454056202434003
0.010519043684471398
0.0105958828702569
0.01074870916781947
0.010881461901590228
0.010941057715099305
0.011002186532132328
0.011063204701058567
0.011083531368058175
0.011109783283900469
0.011146885780617595
0.011110259147826582
0.01101631903089583
0.010985522153787316
0.011009902793448418
0.010939910931047053
0.010743261950556188
0.010611835138406604
0.01066043420927599
0.010686231225263328
0.010504314615391195
0.01023506823927164
0.010043035610578954
0.009943333384580911
0.00990450547542423
0.00993037542561069
0.010033847512677312
0.010176891728769987
0.010320158510003239
0.010454692749772222
0.010526166148483753
0.010496127207297833
0.010414541265927255
0.010347633557394147
0.010352281604427844
0.010438308147713541
0.010519480477087199
0.01051539696054533
0.010444636202882975
0.010370778082869948
0.010320908068679273
0.01027125908061862
0.010198209001682699
0.010129098733887076
0.010088261645287276
0.010057695209980011
0.010046948201488704
0.010056207922752946
0.010045502174180002
0.010035021335352213
0.010056442960631103
0.010067664571106433
0.010029987799935042
0.01000017286511138
0.01005035564303398
0.01007701296824962
0.009965385794639587
0.009854513378813863
0.009868039775174111
0.009898238568566739
0.009874508995562793
0.00985644183587283
0.00985893070930615
0.009862419194541871
0.009882089907769114
0.00992640725336969
0.009979356441181152
0.010012243331875652
0.01002262708498165
0.010057815704494716
0.010118395444005729
0.010143213612027467
0.01014861332019791
0.010208860323764384
0.010303628717083483
0.010315121070016175
0.010187347973696888
0.010022535391617566
0.009945084159262478
0.009953305430244655
0.009976029237732291
0.009984258865006267
0.010012814549263567
0.01008931580465287
0.01019528379663825
0.01031570059247315
0.010424560019746423
0.010452439594082534
0.010354753686115145
0.010188049331773072
0.010109645863994956
0.010220365235581994
0.010409753294661641
0.010514980524312705
0.01055394384311512
0.010625268819276244
0.010698943785391747
0.010709917242638766
0.010717910064850003
0.010784145805519074
0.01086596624692902
0.010908428367692978
0.010887103860732168
0.010771577684208751
0.010589387540239841
0.01050721378531307
0.010608024559915066
0.010720778019167482
0.010744672464206816
0.010793226440437138
0.01088072644546628
0.010865464932285249
0.010678334971889853
0.010452632301021367
0.01026933386689052
0.010264296957757324
0.01037918042158708
0.010510033746249973
0.01054771981202066
0.01045659325318411
0.010383473299443722
0.010451859347522258
0.010569369469303638
0.010616982269566507
0.01059592813020572
0.010550869789440184
0.010498502235859632
0.010429358407855034
0.010349329358432443
0.010266928842756897
0.010196782804559917
0.01019524603150785
0.010263250949792564
0.0102977546909824
0.010217087629716843
0.01006532090716064
0.009989784366916865
0.010044099001679569
0.01009647186845541
0.010061745748389512
0.009994387463666498
0.009960326440632343
0.010001299872528761
0.010072452558670193
0.010064506200142204
0.009991213446483016
0.009960886952467263
0.009993025618605315
0.01002629689173773
0.010031132611911743
0.010009839104022832
0.009948099283501505
0.009849532502703368
0.009775951756164431
0.009773703517857939
0.009794747517444193
0.009783809033688157
0.009755869337823242
0.009723361253272743
0.009701671353541315
0.00975184876471758
0.009898189096711576
0.010091904939617962
0.010218771924264729
0.010308326564263552
0.010288406552281231
0.01017738955328241
0.010016588470898568
0.009898740551434457
0.009897707416675984
0.009933429525699467
0.009924541430082172
0.009942424229811876
0.01005036368733272
0.010162686011753977
0.01012997341575101
0.00997924555791542
0.009924113005399703
0.010029522539116442
0.010178856654092669
0.010306279622018338
0.010355673970188946
0.010282587164547295
0.010190064597409218
0.010210093061905354
0.010314071024768055
0.01033360140863806
0.010207702163606882
0.010128990886732936
0.010240840301848948
0.010384899273049086
0.010350733490195125
0.0101819555927068
0.01008931057760492
0.010135217302013189
0.010192593450192362
0.010223655602894724
0.010326162283308803
0.01046680854866281
0.0104751259367913
0.01036199577851221
0.01033743865787983
0.010458428410347552
0.010567191373556852
0.01057430126471445
0.010533954959828406
0.010485513780731709
0.010416974164545536
0.01035593741107732
0.010344087502453476
0.010339562669396401
0.010263844856526703
0.010129280497785657
0.01004598988685757
0.010082903003785759
0.010194883225485682
0.01033511818619445
0.010500614035408943
0.01061048411531374
0.010565518417861313
0.01045162349473685
0.010421030381694436
0.01043120676651597
0.010310583712998778
0.010062899335753172
0.009951401965226979
0.01011367427650839
0.010322651253081858
0.010370881496928632
0.010322801179718226
0.010284670679830014
0.010286945288535208
0.010313072255812586
0.01030619813594967
0.010249327034689486
0.010172058765310793
0.010126700554974378
0.010176738570444287
0.010277509384322911
0.010314219198189676
0.010294748197775334
0.010304310852661728
0.010332115774508566
0.0102920458256267
0.010189007103908807
0.010138058990705759
0.01014340560650453
0.010066824061796069
0.009921513062436134
0.009889858495444059
0.00999662013258785
0.010074400494340807
0.01004112080205232
0.009985117907635867
0.009992607193998993
0.010037391216028481
0.01008934304350987
0.010190951058175414
0.010318878686521203
0.010360789953265339
0.010316733787767589
0.010313001356553286
0.010397134537342936
0.010487276648636907
0.010518891056999564
0.010501614375971257
0.010423854591790587
0.010279480572789908
0.010181014761328697
0.010228525495622308
0.010331501185428351
0.010352677684277296
0.01030634116847068
0.010293189794756472
0.010334780926350505
0.010358881161082537
0.010347077096812428
0.010354740174952894
0.010355473675299437
0.010283966399729252
0.010186890938784927
0.010134707922115922
0.010112762688659132
0.010087519113440066
0.010077976719476283
0.010116776351351291
0.010158863663673402
0.010152531934436411
0.01015959111507982
0.010220769981388003
0.010261962711811066
0.010254833935759962
0.01024039349751547
0.010228705145418644
0.010233547077514232
0.010255856483709067
0.010263874924276025
0.010277451556175947
0.010315931250806898
0.010342628047801554
0.010341576074715704
0.010313933358993381
0.010285572381690145
0.010325358870904893
0.010450213786680252
0.010613241579849273
0.010708791255019605
0.01060544666601345
0.010379313749726862
0.010278198048472404
0.010344573056790977
0.010406557056121528
0.010387494305614382
0.010340408226475119
0.010283587388694287
0.010203341357409954
0.010159958223812281
0.010221886441577226
0.010324694430455566
0.010351426578126847
0.010294740060344339
0.010240680915303528
0.010243992647156119
0.010274693428073078
0.010309790503233671
0.010363220111466944
0.010372871826402843
0.010285167619585991
0.010223077340051533
0.010299973548389971
0.010401393712963908
0.010373069108463823
0.010270980775821954
0.010247643538750708
0.010281844350975006
0.01025755307637155
0.010245158988982438
0.010361102945171296
0.01049243810819462
0.010502727911807596
0.010464493785984814
0.010452154083177448
0.010389042098540812
0.01022835547104478
0.010076557411812246
0.010061830973718315
0.010161069629248232
0.01025248880730942
0.01029348562238738
0.010318783819675445
0.010354941852856427
0.010409200508147478
0.010425821130629629
0.010340204988606274
0.010201646571513266
0.01004852919606492
0.009897123109549284
0.009902954210992902
0.010090521250385792
0.010190671922173352
0.010106640567537397
0.0100586293078959
0.010145801387261599
0.010251560485921801
0.010344037476461381
0.010482577793300151
0.010595790974330157
0.010573435293044895
0.010494520894717425
0.010481978624593467
0.010500838526058941
0.01049148025456816
0.01046279794536531
0.010419712408911437
0.010383146714884788
0.01040149558102712
0.010472133965231478
0.010504502034746111
0.01039227818371728
0.010169210159219802
0.010028726498130709
0.010097276801243425
0.01025867028394714
0.010305971445050091
0.01024348198901862
0.010254803728312254
0.010356523348018527
0.010386703575495631
0.010337517689913511
0.010329321841709316
0.010321146384812891
0.010223724001552909
0.010162009028717875
0.010297087321523577
0.010520223767962307
0.01058387991040945
0.010460664662532508
0.010333180809393525
0.010290404949337244
0.010261023794300854
0.010193952901754528
0.010163956135511399
0.010284208464436234
0.01048608528682962
0.010541478369850666
0.010451057211030275
0.0104233100079
0.010436267512850463
0.010375127086881548
0.010352068189531565
0.010427415445446968
0.010451586525887251
0.01038901689229533
0.010379484666045755
0.010446048583835363
0.010473691213410347
0.010474705458618701
0.010559872582089156
0.010672756247222423
0.010696998108178377
0.01068905478110537
0.010743314768187701
0.010847781139891594
0.010913895103149116
0.010870919891167431
0.010811341861262917
0.010864774270448834
0.010975697312969714
0.011067815572023392
0.011165855717845261
0.011223457914311438
0.011163877826184034
0.011054148799739778
0.011001211113762111
0.010983672537840904
0.010914614317007363
0.010796508200000972
0.010715053852181881
0.010674273441545666
0.01059893230907619
0.010528145986609162
0.010550718023441732
0.010630585397593676
0.010714865492191165
0.010809026947245002
0.010900893455836922
0.010953688395675272
0.010922828582115471
0.010824641603976488
0.010775011917576193
0.01081694421125576
0.01081580864265561
0.010665718903765083
0.010493080208543688
0.010487461274024099
0.01060033984016627
0.010678002580534666
0.010745404791086911
0.01082747417734936
0.010805066940374673
0.010676046391017735
0.010597209064289927
0.010615031574852765
0.010594535539858042
0.010441528228111565
0.010255366775672882
0.010136582700069993
0.010026622880250215
0.009911621306091547
0.009904791521839797
0.010012661684304475
0.010082143018953502
0.01004403474740684
0.01004066424909979
0.010152762932702898
0.010210195067338645
0.010146712828427553
0.010146343810483814
0.010225304951891303
0.010221000011079014
0.010184215130284429
0.010246597547084093
0.010343233295716346
0.010385447461158038
0.010381202031858265
0.010345787843689322
0.010320522738620639
0.01031464081723243
0.01024203043896705
0.010117002073675394
0.010085281212814151
0.010179018224589527
0.010268491334281862
0.010259781437925995
0.010199689585715533
0.010135539141483605
0.01004710238892585
0.00999356044922024
0.010050448044203221
0.010106351240538061
0.010034676026552915
0.00995340222492814
0.010027815965004265
0.01016880312934518
0.01018207282293588
0.010067062759771943
0.009943894050084055
0.009864093046635389
0.009858909412287176
0.009956605178304016
0.010105295386165381
0.010218410589732229
0.01025281960144639
0.010259230541996657
0.010316768861375749
0.010381808234378696
0.010391122875735164
0.010406820210628212
0.010457210880704225
0.010463807554915548
0.010419416315853596
0.010392562267370523
0.010359063600189984
0.010251958202570677
0.01013841537758708
0.010131405531428755
0.010161122595891357
0.010077424957416951
0.009950046110898256
0.009940529079176485
0.009979233033955098
0.009944137278944254
0.009908117847517132
0.009950129850767552
0.01002221018075943
0.01004980550147593
0.009982185550034045
0.00986026355996728
0.009851649799384177
0.010048120887950063
0.010307573173195124
0.01043663640972227
0.010421761120669544
0.010356701337732374
0.01028413113206625
0.010252854800783098
0.010331469383090734
0.010443350998684764
0.010419409577734769
0.010262675373815
0.010151859619654716
0.010168993179686368
0.010214599622413516
0.010239893603138626
0.010341199357062578
0.0105662527307868
0.010813058232888579
0.010923677701503038
0.010839721579104662
0.010682673249393702
0.010600419803522528
0.01057930869050324
0.01052330387290567
0.010419133193790913
0.010347499768249691
0.01040044994559139
0.010541634624823928
0.010605163257569074
0.010553625226020814
0.01053304085507989
0.010595945748500526
0.010645635067485273
0.010662669693119823
0.010724564660340547
0.010811685048975051
0.010789827210828662
0.010654938826337456
0.010615744316019117
0.010740684578195214
0.0108184734871611
0.01074691658373922
0.010655942121520639
0.010631541972979903
0.010636579543352127
0.010631053168326616
0.010642734551802278
0.010712095703929662
0.010822692764922976
0.010932261724956333
0.010981709412299097
0.010919821225106716
0.010787805444560945
0.010682463678531349
0.010656421808525919
0.010691780191846191
0.010721324803307652
0.01070487658958882
0.010665656039491296
0.01064599837642163
0.010707070101052523
0.010858990354463458
0.010969488588161767
0.010946335280314088
0.01085996390786022
0.010745932250283658
0.010584069550968706
0.010452894954942166
0.010444316915236413
0.010518294684588909
0.010552828097715974
0.01050065795890987
0.010456240456551313
0.010500436648726463
0.01056625482160598
0.01057386706583202
0.010530466889031231
0.01047786146402359
0.010472948714159429
0.010512789762578904
0.010510422387160361
0.010441128360107542
0.010371254128403961
0.010352329248562456
0.010400056410580873
0.010492408401332795
0.010571253108792008
0.010601857448928059
0.010599249717779457
0.010611075717024505
0.01067827564664185
0.010796254063025116
0.010913383732549846
0.010961494725197553
0.01094299434684217
0.010931400870904327
0.010932760331779718
0.010906994165852666
0.01086479305755347
0.010785246011801064
0.010642523323185741
0.010543729583732784
0.010590545586310326
0.010704815038479865
0.01074616935569793
0.010686149038374424
0.010613190368749201
0.010584947178140283
0.010565258231945335
0.010550257042050362
0.010560045260936022
0.010550411394797265
0.010524775236845016
0.010532459667883813
0.010557325556874275
0.010614961297251283
0.010695493244566024
0.010654502655379474
0.010497565311379731
0.010430541490204632
0.010496210251003503
0.010557391713373363
0.010564196244813502
0.010610990324057639
0.01075302813667804
0.010873290537856519
0.010849844315089285
0.010706689949147403
0.010525107560679316
0.010382768479175866
0.010334481466561556
0.010367194847203791
0.010425980668514967
0.010461092274636031
0.010430560833774506
0.010343943471089006
0.01031195820774883
0.010398796782828868
0.01045228763949126
0.010329315005801618
0.01017758714966476
0.010188072193413973
0.01028223562054336
0.01031766717787832
0.010323760048486293
0.010353290857747197
0.010368376141414046
0.01033485995605588
0.010274990051984787
0.01025670278351754
0.01032395580317825
0.010406185141764581
0.010399862360209226
0.010306867375038564
0.010221219318918884
0.010230077095329762
0.01030676631256938
0.010354482531547547
0.010377808050252497
0.010438285204581916
0.010518230088055134
0.010577667951583863
0.010613045878708363
0.010621243175119161
0.010590739604085684
0.01052498354576528
0.010475677805952727
0.01050276894122362
0.01056479150429368
0.010587447606958449
0.010598681862466037
0.010619526691734792
0.010555226751603187
0.010335292113013565
0.010071785771287978
0.009948796406388283
0.009987620734609664
0.010094275665469468
0.010234218030236662
0.010380261573009192
0.010454517947509885
0.01044627480674535
0.010431045177392661
0.010425240285694599
0.010398186780512332
0.01038987009320408
0.010396141153760254
0.010305648669600487
0.010165673620067537
0.010176295530982316
0.010303546381182969
0.010324383359402419
0.010239549214020371
0.010236059534363448
0.010341928675770759
0.010422911187633872
0.010412254421971738
0.010402522119693457
0.010508014997467398
0.010668830862268806
0.01073726491536945
0.010707668466493488
0.010692361788824201
0.010738456822000444
0.01075422804336995
0.010652385209687055
0.010546953845769168
0.010590808801352977
0.01069231758825481
0.010718999775126576
0.010743447598069906
0.010798910125158727
0.01075798478908837
0.01062960319686681
0.010581440608948469
0.0106066605867818
0.010538466367870569
0.01037963988725096
0.01029172752983868
0.010310276448726653
0.010349006396718324
0.01039230622816831
0.010495139705017208
0.01066216773353517
0.010788940247148276
0.010797445178031922
0.010779133546166123
0.010810766094364226
0.010808548550121486
0.010761451642028987
0.010803912724368274
0.010920716626569628
0.010956383808515966
0.010928448075428605
0.010943743125535548
0.010929871606640518
0.010817300206981599
0.010774829918518662
0.01089641174301505
0.010983644668012858
0.010930864261463285
0.010884006167761981
0.010913457055576146
0.01091539888177067
0.010825347597710788
0.010747821279801428
0.01080690017901361
0.01090639437083155
0.010868098484352232
0.01074031566735357
0.010659202020615339
0.01059882115572691
0.010528666665777564
0.01052541961427778
0.010611999644897879
0.010717547652311622
0.010728747718967497
0.010581865678541363
0.01038896817713976
0.010279157957993447
0.010206506731919944
0.010124175241217018
0.010109019661322237
0.010176517316140235
0.01021636779885739
0.010217638788744807
0.010330131566151977
0.010569963078014553
0.010759043991565704
0.010826631807722151
0.010809588842093945
0.010691577317193151
0.010522781410254539
0.010424822447821497
0.010428359187208115
0.010493130250833928
0.010553288250230252
0.010561218792572618
0.01057342000771314
0.010606922460719943
0.010524943009950221
0.010297278091311455
0.010119215226732195
0.010106426454149187
0.010151757919229567
0.01019155390560627
0.010302492808550596
0.010432552522979676
0.010419779266230762
0.01031200151424855
0.010281951599754393
0.01032791772391647
0.010326640550047159
0.010234754537232221
0.010128050982020796
0.010089699290692805
0.010109228589572012
0.010132491858676075
0.010126765393652022
0.010082894312217832
0.01004789277445525
0.010092181409709156
0.010168377086520195
0.010163059593178331
0.010111413556151092
0.010135691496543586
0.010269665741361678
0.010472220219671726
0.010654692393727601
0.010737037640064956
0.010739950924180447
0.010725404168479145
0.010703819510526956
0.01066261344589293
0.01062285443302244
0.010596978757530452
0.01053150094114244
0.01042755569331348
0.010379609218798578
0.010349735403433442
0.010217894529923797
0.010071874302811921
0.010057313297875226
0.010135831334628165
0.010219958098605274
0.010239191986620426
0.010148711875081063
0.010021604304201901
0.00993713045027107
0.009915049308910967
0.010007292465306818
0.010212701517157257
0.0103795111970976
0.010383494882844388
0.01033145776949823
0.010378753626719117
0.010467777969315648
0.01051177083980292
0.010564678297378123
0.010610118731856346
0.010532679073512553
0.010369867724366487
0.01029861070215702
0.010373776094056666
0.010477330107241868
0.010496571348048746
0.01042411728296429
0.010317504056729376
0.010256669824011624
0.010295848264358937
0.010380386332981289
0.010403612172231078
0.010368549358099699
0.010357055659405888
0.010379821192473174
0.010359708168543875
0.010233658482320607
0.010075395056046545
0.010049863569438457
0.010150881255976857
0.010179241844452918
0.010081039518117904
0.010028594359755515
0.010124718975275756
0.01027305810712278
0.010351338097825647
0.01038316559512168
0.010448092785663903
0.010494038118049503
0.01047952906228602
0.010547883100807667
0.010770617406815291
0.011000814409926533
0.01110798142850399
0.011087745651602745
0.011017739372327924
0.011007879320532083
0.011107309143990279
0.011261355434544384
0.01135015650652349
0.011305952612310648
0.011188992667011916
0.011092331469990313
0.011055909278802574
0.011052706334739924
0.010998029792681337
0.010853873500600457
0.010684250788763165
0.010583640555851162
0.01062429488170892
0.010818857923150063
0.011056975750252605
0.01115967174526304
0.011091444701887667
0.01100122932344675
0.011002464159391821
0.011068144207820296
0.011158890621736646
0.011268519768491388
0.011322056683711708
0.011263738390989602
0.011196350748650729
0.01121892709750682
0.011276698191650211
0.011285583912394941
0.0112632238259539
0.011261185994371772
0.011212445273995399
0.011001002206467093
0.010722862426191568
0.010612182328477502
0.010677020074799657
0.010709636346437037
0.01061084812041372
0.010483765839599073
0.010450707231648267
0.010465962295420468
0.01040838030166924
0.010333770965225995
0.010376808126457035
0.010465765632688999
0.010421699862927198
0.01024085610639304
0.010088936761021614
0.010094858789816499
0.01025930693373084
0.010470122816041112
0.010535808987915516
0.01039128533564508
0.010241583632305264
0.010269386223517358
0.010387938828207552
0.010460375654511155
0.010477768485434353
0.010463253008201718
0.010450783814303578
0.010478914282284677
0.0105192509572953
0.010567113352008163
0.010673618614673615
0.010779703729785978
0.01077643188647926
0.01069983229972422
0.010664981505833566
0.010706168496981264
0.010774828479625284
0.010837195958010852
0.010865823007188738
0.01079588950611651
0.010645518633536995
0.010553368660621345
0.010574595234356821
0.010611879113130272
0.010602629058994353
0.010585052552632987
0.010576648493297399
0.010564498254097998
0.010608073170296849
0.010790176535956562
0.011047367048449814
0.011225425284355878
0.011316236266866326
0.011427820539101958
0.011555531872436403
0.011591230281628668
0.011535555166192353
0.011539843128994108
0.01163873600307852
0.011642697621136905
0.011499795564450323
0.011410810127854347
0.011444693063385785
0.01144898311700672
0.011346302437596023
0.011214493131265045
0.011089879833161832
0.010952247651293873
0.010903352941386401
0.011016579936258495
0.01110414278227836
0.01099913300946355
0.01082112345378846
0.010719374511390925
0.010699726911261677
0.01075494136661291
0.010849084644578398
0.010894792028702796
0.01087222395464778
0.010780680989846587
0.010591660481877626
0.010363171468488872
0.010213406276889145
0.010214151162654162
0.010332575817592442
0.010417296453379094
0.01035844523459673
0.010228054272010923
0.01018702507019043
0.01030181468464434
0.01046788644976914
0.010532122100703417
0.010460014762356877
0.010343719106167555
0.010286015756428242
0.010303375641815365
0.010348194134421647
0.010390368942171335
0.01040264300070703
0.010343987490050494
0.010237868991680443
0.010137491449713707
0.010041062161326409
0.009973900895565747
0.010009153997525572
0.01012730878777802
0.010177356186322867
0.01004225573502481
0.009848435707390309
0.009827581075951457
0.009913430386222898
0.009868217590264976
0.0097694490570575
0.009858373035676778
0.010077190361917019
0.010179983889684082
0.010107475137338041
0.010005596089176833
0.009985122722573578
0.010021721739321946
0.010064265821129084
0.01009326689876616
0.010103990770876408
0.010124399829655885
0.010137135302647949
0.01005010325461626
0.00988628395833075
0.009791555507108569
0.00981492457445711
0.009885523007251323
0.009952076254412532
0.010037728073075413
0.010151281114667654
0.010207026028074323
0.01015217671636492
0.010062668593600393
0.010016840859316289
0.01003992635756731
0.010108448145911098
0.010129554327577353
0.010098462803289293
0.010141325923614204
0.010263171000406145
0.010319776576943695
0.010261858054436744
0.010163943595252932
0.010058252876624464
0.009945164090022445
0.009907552371732891
0.010006683934479952
0.010145609243772924
0.010220669652335345
0.010234797508455813
0.010166832567192615
0.00999733225442469
0.009837723905220627
0.009815329178236425
0.00990935331210494
0.009980876720510424
0.009956365977413952
0.009949381011538208
0.010069125141017139
0.010207391642034054
0.010226798434741795
0.010178217575885355
0.010200561215169728
0.010370614184066653
0.010598707520402968
0.010670308582484722
0.010546544548124075
0.010439160447567701
0.01049027851782739
0.010609702188521624
0.010669218460097909
0.01068259000312537
0.010710324910469353
0.010750904278829694
0.01081711292732507
0.01092743378598243
0.01101828958839178
0.011016928078606724
0.010929278852418066
0.01082226054277271
0.010764098735526204
0.010726471450179815
0.010637500463053584
0.010560612720437347
0.010595880150794983
0.010680662360973656
0.010711696646176279
0.01069408820476383
0.010665943627245725
0.010653332159854471
0.010679616620764136
0.010736690401099622
0.010823800689540803
0.010982028474099934
0.011177287176251412
0.011244871211238206
0.011124253170564771
0.010992575283162297
0.010994767392985523
0.01108775740955025
0.011208417508751154
0.011301089911721646
0.011258259182795882
0.011092486851848661
0.010976817421615125
0.010976940584369004
0.0109782291110605
0.010897581800818443
0.010802732366137206
0.010802893713116647
0.01090093214996159
0.010996825555339455
0.010965779256075621
0.01078216230031103
0.010608610166236758
0.010596664892509579
0.01067513193935156
0.010692875254899264
0.010631749890744686
0.010596851599402726
0.010637910640798508
0.010675600999966263
0.010674055800773203
0.010691255079582334
0.010705176973715425
0.01064318255521357
0.010547949094325304
0.010510283620096744
0.010550607442855835
0.010642384397797286
0.010729030068032443
0.010774285425432026
0.010820259535685182
0.010875061135739088
0.010863940552808345
0.010772289433516562
0.010672921733930706
0.010632608593441546
0.010653054504655302
0.010661432375200093
0.010627866610884667
0.010611764541827141
0.010617711385712027
0.010578642226755619
0.010477613280527294
0.010404002442955971
0.010442340862937272
0.010510749598033726
0.01051106238272041
0.010511611485853792
0.010565168703906239
0.010630579870194197
0.010720946067012847
0.010844847578555345
0.01093989999499172
0.010976575082167983
0.010954518392682076
0.010876491228118538
0.010786262187175454
0.010707177030853927
0.010596268428489566
0.010486573781818151
0.010535313887521625
0.010710194339044393
0.010739150606095791
0.010605126027949155
0.010579332322813571
0.010713731157593429
0.010816655228845775
0.01080704650375992
0.010762100447900593
0.01071885067038238
0.010613973592408002
0.010463903048075736
0.010426282277330756
0.010537424967624246
0.01063730837777257
0.01064461330883205
0.010593261662870645
0.010465793628245592
0.01029499149415642
0.010233321357518435
0.0103315808204934
0.010456813704222441
0.0104694340005517
0.010392096377909183
0.010373011715710163
0.01042459486052394
0.010401270817965269
0.010320375440642238
0.01034858304541558
0.010502545577473939
0.010662674978375435
0.010736550465226173
0.01071459451224655
0.010650042868219316
0.010560607039369643
0.01043286381289363
0.010284236446022988
0.010120638702064753
0.009949456886388361
0.009818837819620967
0.009778342004865407
0.00980573118198663
0.009783348790369928
0.009682072433643043
0.009662072649225592
0.009795737797394394
0.009934734809212387
0.009975947169587017
0.009993615727871656
0.010032773846760393
0.010002578622661532
0.009911157726310193
0.009931250233203173
0.010059055252932013
0.010079413619823754
0.009953175322152674
0.009835396171547472
0.009766492596827447
0.009696414317004383
0.009673304399475455
0.009765693284571171
0.00988291174173355
0.009847249635495246
0.009685068526305258
0.00960497222840786
0.009646987840533257
0.009686122331768274
0.009709380231797696
0.009780082465149463
0.0098584293294698
0.009848908325657248
0.009763695071451367
0.009736941172741353
0.009824271071702242
0.009916502428241073
0.00995187741238624
0.009996324037201703
0.010037559606134892
0.009969985913485288
0.009806492002680897
0.00966781036928296
0.009608602696098388
0.009600614104419947
0.00963474493008107
0.009744369564577937
0.00990978098474443
0.010057768975384533
0.010160909839905799
0.010234554619528354
0.010313457432202995
0.010398740656673908
0.01041250763926655
0.010345929404720663
0.01029006164520979
0.010268448321148753
0.01026836602948606
0.010306963813491166
0.010348952407948673
0.010337589420378207
0.010296207047067582
0.010299706039950252
0.01035213892813772
0.010375281097367406
0.010359923145733774
0.010375463855452835
0.010406823647208512
0.010381796760484577
0.010309113143011927
0.01021740841679275
0.01011541741900146
0.010058700549416244
0.010077935867011547
0.010123212025500834
0.010116220694035291
0.010026464960537851
0.009963985597714782
0.010036393846385182
0.010131325209513306
0.010103455074131488
0.01001663069240749
0.010009941044263542
0.010082749724388123
0.010101494258269667
0.010004079714417458
0.009913187026977539
0.00993563891388476
0.009987082541920244
0.009965353198349475
0.009938329108990729
0.010004952060990035
0.010103600174188614
0.010138178220950067
0.010149814784526826
0.010173153718933464
0.010152902100235223
0.010115187452174722
0.010112154963426292
0.010076771737076343
0.010001541026867925
0.009979181443341076
0.010011488958261906
0.010068130842410029
0.010164488218724727
0.010285572446882725
0.010377406678162514
0.010369435739703477
0.010270845387130976
0.010205543409101665
0.010204132879152894
0.010160322994925081
0.01004946461878717
0.009972621570341289
0.00998050309251994
0.010005269362591208
0.010021480503492058
0.010117898550815881
0.01030246091540903
0.01043413489125669
0.010454622721299529
0.010467265686020254
0.010531203574500977
0.010601526512764393
0.010671952422708273
0.010806597513146698
0.01098743999376893
0.011040795659646392
0.01089569142088294
0.010735448696650565
0.010699124159291386
0.010741719524376095
0.010780530860647558
0.0107475755084306
0.01069245524238795
0.010746216881088913
0.010830071778036654
0.010765295876190066
0.010642626322805882
0.010660421140491962
0.01075194999575615
0.010740856532938778
0.01068311943206936
0.010715393288992346
0.010775530626997352
0.01077857615891844
0.010777891320176423
0.010761856213212012
0.010655769710429013
0.010525398519821465
0.010452136592939497
0.010389927653595804
0.010298675163649023
0.010229022931307554
0.01024994283914566
0.010312284389510751
0.010305005847476423
0.01027725290041417
0.010317844646051526
0.010341137228533626
0.01029079049360007
0.010275939544662833
0.010313102342188359
0.010268220556899904
0.01012957468163222
0.010030578738078475
0.009997288421727717
0.009929844033904374
0.0098490280052647
0.009890429894439876
0.010029614046216011
0.010108552454039455
0.010073517858982086
0.009970874921418727
0.0098527871677652
0.009747254587709904
0.00966177327092737
0.009647413147613406
0.009746099230833352
0.009902703654952348
0.010041073099710047
0.01010292265098542
0.010077826078049839
0.010050232117064297
0.010035575549118221
0.0099517558561638
0.009876768360845745
0.00994482522830367
0.010040754592046142
0.010005584983155132
0.009904701691120864
0.009834027830511332
0.009769981126300991
0.009715044121257961
0.00971925724297762
0.009733376163057982
0.00969644264318049
0.009718765066936612
0.009910234338603914
0.010151463877409696
0.010243891151621937
0.010153123610652983
0.010032606744207442
0.010039150309748947
0.01013598429504782
0.010223009227775037
0.010311607015319168
0.010377858569845556
0.010344514190219343
0.010241176304407417
0.010138108180835843
0.010057938080281019
0.010063019106164575
0.010213608182966709
0.010395833849906921
0.010414359620772301
0.01028306461405009
0.01021823690738529
0.01027768939267844
0.010317222913727164
0.010342683224007488
0.010466433470137418
0.01064805748872459
0.010774789107963444
0.010780457356013358
0.010701156021095812
0.010672065448015928
0.010715046138502658
0.01071334954816848
0.01064905032981187
0.010595303876325488
0.010575380898080767
0.010583045091480017
0.010612729727290571
0.010662367157638073
0.010720293219201267
0.01072780947200954
0.010664006262086332
0.010636319341138005
0.010734383217059076
0.010851945979520678
0.010819869539700449
0.01066694428678602
0.010568095962516963
0.010602065222337842
0.010710159065201879
0.010785603448748588
0.010720209120772779
0.01050770651549101
0.01034012159332633
0.010419223285280168
0.010667344746179879
0.010801807893440128
0.01068511139601469
0.010470080380328
0.010344879115000366
0.010312559599988162
0.010324994344264269
0.010378820807673036
0.010467119603417814
0.010580139411613345
0.01066830403637141
0.010660141259431839
0.01057499036192894
0.010514267929829657
0.010550964986905456
0.010638846498914063
0.010633466769941152
0.010507521713152527
0.010405365466140211
0.010374619164504112
0.010320541970431805
0.010231373142451048
0.010222726422362029
0.010344002083875238
0.0104526591533795
0.010431423452682793
0.010364291374571621
0.010325777195394039
0.01028730953577906
0.010266804108396173
0.010288307527080178
0.010316352662630379
0.010336529091000557
0.010336864464916289
0.010320039447396994
0.010340666207484901
0.010377539708279072
0.01033807233441621
0.010221681911498309
0.01014880393166095
0.010210875142365693
0.010305887041613459
0.010270278491079808
0.01014381051529199
0.010066134091466665
0.010051898285746574
0.010091959345154465
0.010212646429426969
0.010304075363092125
0.01022773108445108
0.010084255626425146
0.010070304535329342
0.010181244821287691
0.010269899759441614
0.010294616101309656
0.010311964810825884
0.010295197772793472
0.010199300115928053
0.010087803318165244
0.010046990872360766
0.010124706900678576
0.010299019082449377
0.010456887483596801
0.010514395465143024
0.010486752395518124
0.010440179300494491
0.010459665288217367
0.010570227187126875
0.010670846346765756
0.010650213737972081
0.01053224781062454
0.010422487072646617
0.010347541295923293
0.010267397463321686
0.010225160489790141
0.010293498462997376
0.01042464904487133
0.010535401161760091
0.010606491011567415
0.010628252401947974
0.010606523831374942
0.010565915256738662
0.010523733403533696
0.010525115630589426
0.01055862001143396
0.010517889866605401
0.01038462339900434
0.010273659024387599
0.010277963848784566
0.010364783322438597
0.010433341129682958
0.010467907157726586
0.010527344904839992
0.010613670726306736
0.010696134092286229
0.01076354858931154
0.01079002105165273
0.010776862748898566
0.010805471632629633
0.010937824482098221
0.011084789475426078
0.011094672810286284
0.010981777906417847
0.010901010474190115
0.01089122318662703
0.010891353911720216
0.010949148326180875
0.011091371113434435
0.011195041271857917
0.011197829339653253
0.011126573351211845
0.01097383071668446
0.010772446230985224
0.010624554986134172
0.010609581703320145
0.010699314810335637
0.010735820569097996
0.010620172382332385
0.010478754085488618
0.010481822015717625
0.010615360797382891
0.010723903877660632
0.010702892374247312
0.01062263796571642
0.010609602914191782
0.01065012559760362
0.010672493786551059
0.010680878781713546
0.010681172157637775
0.010649625854566693
0.01059502157382667
0.010582690332084895
0.010644791494123639
0.010689971349202097
0.010660663819871843
0.010643326016142964
0.010687409634701907
0.010701303072273731
0.01059116133954376
0.010442237895913422
0.010447683497332036
0.010598961766809224
0.010688336114399136
0.01062350584194064
0.0104704036610201
0.010313142165541649
0.010204772814176977
0.010143840652890503
0.010091936900280415
0.00999779352452606
0.009865660052746535
0.009828961179591715
0.009962254599668086
0.01012259878218174
0.010197289241477846
0.01021623426117003
0.010143535803072154
0.009973353026434779
0.009873090288601815
0.009910719245672226
0.00996280150488019
0.009967843126505614
0.009962936504743993
0.009973003109917045
0.01000848513096571
0.010069054765626789
0.010152049623429775
0.010258233086206018
0.010350219858810305
0.01035089532379061
0.010238049142062665
0.010136169642210006
0.010199596667662262
0.010378378676250577
0.01046073978766799
0.010347756114788354
0.01014533573295921
0.010009983973577618
0.009993836963549257
0.010049454239197075
0.010100424466654658
0.010058253039605915
0.009915844146162272
0.00979955627117306
0.00974848387297243
0.009668985158205032
0.00961748069152236
0.009745954326353968
0.009986011041328312
0.010118773351423442
0.010060424916446209
0.009915191647596657
0.009824907816946506
0.009854978797957301
0.010000064363703131
0.010185837750323118
0.010295307361520827
0.010291492813266814
0.010261726742610335
0.01029993780888617
0.010382216176949441
0.01040069174952805
0.010332753895781935
0.010285027301870286
0.010316348876804113
0.010374431228265167
0.010446534943766891
0.010567123391665519
0.010704027549363672
0.010810496732592583
0.010889515690505504
0.01096381654497236
0.011070700087584555
0.011171630704775453
0.011118090515956282
0.010884245643392205
0.010656439960002899
0.010571836200542748
0.010573706333525478
0.010599470315501094
0.010683945235796273
0.010787836294621229
0.010797152346931398
0.010740612386725842
0.010732039604336023
0.010775280622765422
0.01081100529525429
0.010800353945232927
0.010730263362638652
0.010673502604477107
0.010756281558424235
0.010942364567890763
0.011014283713884652
0.010917253601364791
0.010859556118957699
0.01091736120171845
0.010896153701469301
0.010731178079731762
0.010640677949413656
0.010730961491353809
0.010826762313954533
0.010835165535099804
0.010887954598292709
0.011036101635545493
0.011153969769366086
0.011149818580597638
0.011076655532233417
0.011045860317535698
0.011070779734291136
0.011083566565066576
0.011104645091108978
0.011197631298564374
0.011294013932347297
0.011275544418022037
0.011152011714875698
0.011036739177070558
0.0110214317496866
0.011082268916070462
0.011102486406452955
0.011023693531751633
0.010906626372598111
0.010788351683877408
0.010648518321104347
0.010578885739669204
0.010683026029728353
0.010875489255413413
0.011047595529817045
0.011168352467939258
0.011192407794296741
0.011106329499743878
0.01095635533798486
0.010816412200219928
0.010748296128585935
0.010735040390864014
0.010743297273293137
0.010765878590755165
0.010770019297488033
0.01076819144655019
0.010824375255033374
0.010885918936692178
0.010809691222384572
0.010632806736975909
0.010596653851680458
0.010788584416732193
0.010997506785206496
0.011065810699947179
0.011108125555329024
0.01121467751916498
0.01125053427182138
0.011140891136601567
0.011029905183240771
0.010987747278995812
0.010903997365385294
0.010732217715121806
0.010549904592335225
0.010441594887524844
0.010431437715888024
0.010465649361722172
0.01048051225952804
0.01045004014391452
0.010370746054686606
0.01027659016661346
0.010225619026459753
0.010250425832346081
0.010338705442845821
0.01039942898787558
0.010315093770623207
0.010132088465616107
0.01001987244002521
0.010014301650226116
0.010048325760290027
0.01014062087982893
0.010289180371910334
0.010355206364765763
0.010312257814221085
0.010300366203300654
0.010298310089856386
0.01020827797241509
0.010149420066736638
0.010232492731884122
0.01032795015256852
0.01029869396239519
0.01019919257145375
0.010126582691445946
0.010065793460235
0.010021395962685347
0.010090346410870553
0.010248345360159873
0.010337722366675734
0.010338629982434212
0.010371717154048382
0.010458610444329679
0.01049711266066879
0.010437378212809562
0.010398199395276607
0.010525774643756449
0.010719720125198364
0.010749104744754732
0.01063075900543481
0.010568961687386035
0.010615263846702874
0.010662984615191818
0.010646710367873312
0.010598781700246036
0.010590558736585081
0.0106464758887887
0.01073127739597112
0.010809436556883156
0.010848343591205775
0.010830766167491674
0.01081378840841353
0.010881985970772803
0.01100723332259804
0.01104052477516234
0.010925233908928932
0.010823395196348428
0.010874266168102623
0.010964100188575686
0.010936573552899063
0.010855983993969857
0.010845134602859616
0.010835640607401728
0.010736875873990357
0.010662336251698434
0.010680195321328937
0.010645292000845075
0.010513881160877646
0.010419620014727116
0.01039584334474057
0.010385884488932788
0.010428547896444797
0.010566382040269672
0.010712991687469184
0.010797893647104501
0.010875619924627244
0.010959462733007968
0.010941315935924649
0.010800527408719063
0.01067646212875843
0.010635373112745584
0.010609789472073316
0.010590159720741212
0.010612355023622512
0.010596232260577381
0.010434796824119985
0.010189246670342982
0.010034788763150573
0.010055954647250474
0.010174499377608299
0.010254782694391906
0.010245750667527318
0.010217657834291459
0.010256609614007175
0.010364903118461371
0.01051045162603259
0.010656561744399369
0.01071141372434795
0.010647030542604624
0.01061630666255951
0.010732664689421655
0.010858115795999766
0.010821668268181383
0.010708854487165808
0.010716137229464948
0.010833039684221148
0.010895834621042013
0.01088818680960685
0.010944814370013774
0.011090334234759212
0.011194739532656968
0.011182572063989937
0.011156594203785062
0.011220811349339783
0.011290763039141893
0.011279820213094354
0.01125734540168196
0.01126780190039426
0.011262209825217724
0.011229083626531064
0.011202504360117018
0.011183379516005516
0.011171136894263326
0.01120708791539073
0.011285097491927444
0.011308588846586644
0.011219247449189425
0.011080704252235592
0.010980489635840059
0.010935404477640987
0.010924746547825635
0.010943642249330879
0.010989232338033617
0.011041449564509094
0.01109293223824352
0.011146110594272613
0.011187880053184926
0.011211733692325651
0.011221254584379494
0.011216284846886993
0.011207668841816485
0.01120181976351887
0.011168629410676659
0.011088181659579277
0.0109862281056121
0.010880611776374281
0.010812695417553187
0.010873964373022318
0.011041507609188556
0.011142729865387082
0.011081948862411081
0.010945761972106994
0.010863391235470771
0.010840163989923894
0.010763202733360231
0.010625960240140557
0.010577686354517937
0.010615402404218911
0.010566939441487193
0.010409538662061095
0.010250992942601442
0.010128875756636261
0.010011859582737087
0.009876243942417205
0.009766577971167862
0.009758974825963378
0.009852783991955221
0.009999788575805723
0.010167999118566513
0.010298509639687837
0.010324030839838088
0.01025043346453458
0.01013359856326133
0.00998700238764286
0.009785271040163935
0.009597115288488566
0.009565973607823252
0.009702256103046238
0.009890900128521025
0.010045630023814738
0.010121306348592042
0.010108310170471669
0.010035166232846678
0.009937097877264022
0.009873586939647794
0.00989628342911601
0.00996573784854263
0.009992054044269026
0.009949885508976877
0.009900042172521353
0.009888789276592433
0.00989668591413647
0.009931480260565877
0.010027434537187218
0.010132848350331188
0.010163674117065966
0.01012771328445524
0.01007600556127727
0.0099952281313017
0.00987285745330155
0.009814375336281956
0.009924010494723917
0.010099942092783748
0.010156179177574814
0.010120374471880496
0.010115576917305589
0.010092753898352385
0.01000862524844706
0.009951173192821443
0.009964965940453112
0.010044790273532271
0.01016486359294504
0.010267253192141652
0.010353377447463572
0.01043365872465074
0.01045482981018722
0.010397806982509791
0.010282999239861965
0.010122960284352302
0.009982733386568726
0.00996024954598397
0.010059672370553017
0.010175717920064926
0.010266895540989935
0.0104172609327361
0.010596590228378772
0.010646824296563863
0.010585368489846586
0.010550953331403434
0.010544481151737273
0.010501298406161368
0.010439616902731359
0.010436103641986848
0.01051619607489556
0.010575308287516237
0.010534526109695434
0.010492306412197649
0.010542736849747597
0.01061493976507336
0.010598650411702692
0.010505594075657427
0.010434006066061556
0.010395895303227008
0.010326638622209429
0.01025566934607923
0.010217566736973821
0.010109151848591864
0.009919307962991297
0.009835852789692581
0.009905920843593777
0.009932899586856366
0.0098001101706177
0.0096286611398682
0.009588575940579176
0.009678303771652281
0.009789345231838524
0.00989097530953586
0.00996796553954482
0.009967557988129556
0.009937694910913706
0.009987383396364749
0.010100746140815318
0.010143183371983468
0.010068347449414433
0.010006800228729844
0.010048370771110059
0.010118699725717306
0.010176065019331873
0.010275950087234378
0.01038186410907656
0.010380704840645193
0.010294411950744688
0.010250416775234044
0.010250754482112824
0.010171142960898579
0.010031547928228975
0.010013156444765628
0.010136805311776697
0.010215518241748213
0.01015608333516866
0.010062745320610703
0.010037957630120218
0.010036480235867203
0.00999931399244815
0.010008681849576533
0.010083879842422903
0.010064828060567379
0.009939002632163465
0.009894828842952848
0.009989734245464206
0.010125783546827733
0.010238622911274434
0.010331290545873345
0.010416234820149839
0.010465340325608849
0.010480019049718976
0.010544566912576556
0.010663313972763717
0.010720257242210209
0.010686645656824112
0.010653836140409111
0.010667038825340569
0.010687350407242774
0.010692495056428015
0.010691063832491637
0.010628553372807801
0.010473774950951338
0.010391227952204644
0.010523138386197388
0.010704766516573727
0.010695162946358323
0.010525661348365247
0.01042506201658398
0.010476321512833238
0.01051394062116742
0.010434200391173362
0.01037269259802997
0.010416865246370435
0.01042268834542483
0.010290706874802708
0.01016240742057562
0.010191157520748674
0.010304789217188954
0.01036520594265312
0.010409616674296558
0.010480741462670267
0.01045705696567893
0.010323474146425725
0.010286587625741958
0.010432063885964453
0.010587322851642966
0.010617921878583729
0.010590052483603358
0.010569782597012817
0.010503044622018932
0.01040675702970475
0.010404156357981264
0.010467190369963646
0.010458528236486018
0.01040961598046124
0.010414392384700478
0.010426789592020213
0.01040117748081684
0.01036386791151017
0.010293574328534305
0.01017906324006617
0.010100605492480099
0.010100112301297487
0.010118951597250998
0.010116828395985067
0.010106407855637371
0.01008091707713902
0.010028570056892932
0.009993127044290305
0.010036953673698008
0.010150548885576427
0.010228903791867196
0.010181251601316034
0.010069037796929478
0.010013816528953612
0.010017713168635964
0.010049606687389315
0.010142825650982559
0.010266673071309924
0.010286165345460176
0.010117911156266928
0.009906216971576214
0.009819097695872187
0.009989124536514283
0.010254831220954656
0.010400282265618444
0.010346111468970775
0.010209098383784294
0.010150260352529585
0.010125322109088302
0.010053539532236755
0.010046516852453351
0.01015750519465655
0.010228327275253832
0.010173820313066245
0.010122483214363456
0.010143160084262491
0.010118917049840092
0.010043132179416716
0.010087052751332521
0.010244532437063754
0.01031634682789445
0.010268172374926507
0.010200912291184068
0.010094768111594021
0.009922021124511958
0.009775171377696098
0.009712538020685314
0.009732082919217646
0.00985383564606309
0.010039028208702803
0.01016253390815109
0.010167220579460264
0.010127576808445156
0.010109501713886858
0.0100964176049456
0.010099481008946896
0.010164580089040101
0.010222583846189081
0.010167359746992588
0.01007988311816007
0.010105789760127664
0.010205213641747833
0.010247560692951083
0.010215564602985979
0.010171323139220477
0.010131136165000498
0.010071824016049504
0.009988466105423867
0.009944379031658172
0.010086718816310167
0.010356449373066425
0.010483197653666138
0.01027273956220597
0.01003610499203205
0.010038366955704987
0.010193319488316775
0.010311398659832776
0.01031715726479888
0.010300191342830658
0.010352014801464976
0.010378256239928305
0.010263391360640526
0.010089292181655765
0.010011476688086987
0.010028826892375947
0.01004025537520647
0.010051930733025074
0.010092338295653463
0.01008307797834277
0.010034788325428963
0.010052199712954462
0.010100475153885782
0.01012527741957456
0.01017963093239814
0.01026418833527714
0.010339610492810607
0.010422607748769224
0.010499477344565094
0.010492830690927803
0.010387897137552499
0.010290674879215658
0.010287206373177468
0.010339705720543862
0.010385683095082641
0.01040769027080387
0.010388713837601244
0.010332857184112072
0.010313720307312906
0.010376744363456964
0.01045016719494015
0.010453988541848957
0.010386835150420666
0.010295277563855051
0.010259622191078961
0.010340755842626094
0.010470657641999424
0.010488956794142723
0.010399490315467119
0.010391851225867867
0.01045964791905135
0.010432239756919443
0.010394990956410766
0.010507307634688913
0.01064512335229665
0.010643769619055093
0.01056027005892247
0.010538724907673895
0.010615180251188577
0.010674638454802335
0.010621939250268043
0.010533563024364413
0.010480946940369905
0.01041072721593082
0.010326423454098404
0.010309590524993837
0.010364625276997686
0.01045034488197416
0.010560037689283491
0.010649031214416026
0.010643060142174364
0.010603423975408078
0.01066349845379591
0.010794616602361203
0.01087699697818607
0.010891994065605103
0.010896671474911272
0.010915603186003865
0.010926570091396571
0.010963832321576774
0.011092576864175498
0.011240177401341499
0.011282459176145494
0.011228885767050088
0.011157849142327904
0.011126286960206925
0.011156792528927326
0.011201325263828039
0.01120134061202407
0.011164393494836986
0.011091405372135342
0.010971326595172286
0.010881513417698442
0.01091702165082097
0.011042726123705507
0.011113008228130638
0.011048948601819574
0.01097274429164827
0.010999772106297314
0.011003968031145632
0.010899365614168346
0.010831612697802483
0.010849793134257197
0.010818339847028256
0.010699857431463898
0.010601449725218117
0.010569688538089395
0.010539910322986543
0.01049481987953186
0.010513721029274165
0.01062708165962249
0.010759511939249932
0.010875953589566051
0.011027191146276892
0.01117328243330121
0.011191816446371376
0.0111093690386042
0.011046633468940853
0.011001557372510433
0.010939317722804844
0.010912486347369849
0.010926039936020971
0.01088094659615308
0.010750285885296761
0.010648510716855526
0.010634445860050619
0.010623048492707312
0.010568114849738776
0.01052982517518103
0.01052181001752615
0.010463805999606848
0.010327924848534167
0.010198353286832572
0.010143508976325393
0.010141904461197554
0.010151740219444037
0.010182831506244838
0.010246661268174648
0.010253743613138794
0.010132367378100754
0.010026367129758
0.010090443482622504
0.010218502995558083
0.010239124530926347
0.010146667920053006
0.010054549309425056
0.010078285527415574
0.010186297865584493
0.010266980244778097
0.010361855514347554
0.01047780193388462
0.010412108558230103
0.010151653457432986
0.009999544764868916
0.01010326296556741
0.0102834561932832
0.010368602126836777
0.010380659596994518
0.010355850383639335
0.010257518482394517
0.010122651918791234
0.010026309164240957
0.009938563057221472
0.009823404811322689
0.009735694988630712
0.009707703772000968
0.009664462637156248
0.00954714335501194
0.009457348049618303
0.00950592162553221
0.009583029658533632
0.009539297469891607
0.009470247221179307
0.009513031891547143
0.009598842654377222
0.009662439092062413
0.009752214681357145
0.009856812357902527
0.009913698453456164
0.009916808460839093
0.009912693789228797
0.009935148134827614
0.009958611051551998
0.00995629976503551
0.009939147382974625
0.009916732227429748
0.009890237310901284
0.009862314597703516
0.00986526554916054
0.009924068301916122
0.00997117924503982
0.00996707062702626
0.009994520992040633
0.010071342312730849
0.010117329149506986
0.010133914831094444
0.010159132983535529
0.010146419554948806
0.010043170377612114
0.009896665918640793
0.009829359371215105
0.009880035556852818
0.009908309713937342
0.009818943068385124
0.009764591418206691
0.009878244143910706
0.01000288468785584
0.009958815104328096
0.009883348788134754
0.010007981616072357
0.010250296210870147
0.010376076418906451
0.010396217312663793
0.01045724167022854
0.010558521952480077
0.010627309936098754
0.01068149772938341
0.010769644705578684
0.010831939205527306
0.010791392964310944
0.010755503131076694
0.010835699765011668
0.010917357937432825
0.010919063803739845
0.010920424479991198
0.010896968678571284
0.010772933294065297
0.01063098938204348
0.010550685562193393
0.010490610403940082
0.010435843570157886
0.010429346170276403
0.010455794767476618
0.01044735171366483
0.010413496769033373
0.010412816079333425
0.010434930576011539
0.010456597339361906
0.010465056397952139
0.010429941806942225
0.010403054570779204
0.01045082970522344
0.010477773169986904
0.010373318870551883
0.010201399992220105
0.01007021197117865
0.010022390433587134
0.01009265257511288
0.010257418430410326
0.010380339366383851
0.010373458131216467
0.010341894919984043
0.010441298950463534
0.010633890847675503
0.010727080535143613
0.010659936224110425
0.010603964864276349
0.010698223202489317
0.010803778399713337
0.010703561478294432
0.010455560740083455
0.010311243832111358
0.01034390342887491
0.010396665488369762
0.01036958294454962
0.01033146240748465
0.010345425573177636
0.01035733320750296
0.010325781162828207
0.010308707864023745
0.010312725813128054
0.0102797063998878
0.010239098202437163
0.010238446183502675
0.010253367070108653
0.010277423160150647
0.010303973420523107
0.010263298070058227
0.010158758498728276
0.01011909928638488
0.01018243950791657
0.01023258448112756
0.010229052440263332
0.010251985234208404
0.010311098480597138
0.010346901351585985
0.01034458574373275
0.010340613657608628
0.010427163629792631
0.010638651852495969
0.010772821949794889
0.010634918785654009
0.010396428233943879
0.010305463606491684
0.010378069896250963
0.010475222538225352
0.01051351320464164
0.010472711902111768
0.010399305592291058
0.010406870604492724
0.010569385313428938
0.010794991930015384
0.01089214043226093
0.010801197490654885
0.010622930829413235
0.010434221024625004
0.01022404364310205
0.009968228596262634
0.009713949719443917
0.009637574856169522
0.009811619012616575
0.010110177588649094
0.010383333372883498
0.010536934835836292
0.01054592569824308
0.01053136307746172
0.010608654208481312
0.010726241213269531
0.010873062522150576
0.011177680185064674
0.011585319177247583
0.011762166526168585
0.011605242760851979
0.011710410513915121
0.011794654200784863
0.011744239372201265
0.01162288999184966
0.011525700096972286
0.011419031624682248
0.011377825955860317
0.011476810532622039
0.011579652563668788
0.011486638449132442
0.011316830283030868
0.011332572447136044
0.01178535130340606
0.01257340784650296
0.013435935857705772
0.01411572186741978
0.014436295786872506
0.014431068114936352
0.014453894440084696
0.014692218587733806
0.01480922249611467
0.01487500720191747
0.015197963546961546
0.015751686729490757
0.015981244244612752
0.016302258879877626
0.017626711009070276
0.019094272572547196
0.019571879212744534
0.01996688415762037
0.0213371244398877
0.022692901133559644
0.023780621578916906
0.024654495185241102
0.025025693546049298
0.02541177229490131
0.026387007813900708
0.02782358427066356
0.029552937559783457
0.031201362195424735
0.03278745543211699
0.03503940177615732
0.03807884933892638
0.040420750994235276
0.04058217328041792
0.041653515212237834
0.04303265331313014
0.044469845513813194
0.04673447232693434
0.049791150144301355
0.052401276123709976
0.05445938713382929
0.05590056733693927
0.056471239998936655
0.05677604862023145
0.05777750307228416
0.059466673661954704
0.0619051587022841
0.06458498819265515
0.06653639480471611
0.06713118739426135
0.0675710371369496
0.0689656696235761
0.07113328790757806
0.072674295254983
0.07202103320043535
0.0733655367884785
0.07597184744197875
0.07774686003569514
0.0780776391364634
0.07840421690139919
0.07957005211617797
0.08117168330121785
0.08256992333568633
0.08350692924112081
0.0832721200864762
0.08198815875221044
0.0806566283898428
0.0800034951325506
0.08012688435148448
0.08041478912346064
0.08052824863698334
0.07948209901805967
0.08062774050049484
0.08263862704392523
0.08333651179447771
0.0824856449989602
0.08156035450752824
0.08046651359181851
0.08001755225937814
0.08014273046515882
0.07887598214671016
0.07660408347845077
0.07706216339487583
0.07997233830392361
0.08042948812711984
0.07858540486078709
0.0771760321687907
0.07554096835665405
0.07472017601598054
0.07528218346647918
0.07563107767608017
0.07471564526204019
0.07440671331249177
0.07410595298279077
0.07324081947561353
0.07210187493357807
0.07110031241551042
0.070153012345545
0.06949147250968962
0.06918479549698532
0.06923386693466455
0.06844177291262894
0.06644511684775352
0.06511538183782249
0.06701499706134201
0.06722360321786254
0.06445405916310847
0.06443818318657576
0.06511613360140472
0.0648913650168106
0.06353783194441348
0.06281641975976526
0.06222877356223762
0.061290510059334335
0.06130662941839546
0.06148439888376742
0.06182754559908062
0.06280556106939912
0.06289925978053361
0.06146691618487239
0.06041196910664439
0.060983225582167504
0.05893740757368505
0.05721177532337606
0.05616037100553513
0.05668345791753381
0.05648116913158446
0.05592183717060834
0.05473542674910277
0.05271597171202302
0.051479745991528034
0.051868300181813536
0.05078862145077437
0.04820460473187268
0.04680041260086
0.0473586451401934
0.04721642293967307
0.04660187708679587
0.04433882871177047
0.04125645936932415
0.03880236079450697
0.038252929081209
0.038137279842048885
0.03843875437043607
0.038817072729580106
0.038209488950669765
0.03709141599945724
0.035532564958557486
0.03432458160445094
0.034200296383351085
0.03391538053750992
0.03322669220622629
0.032140742838382724
0.03211228643544018
0.0315919764013961
0.030483185374177994
0.03138141199946404
0.03108264073729515
0.031232094108127058
0.031239439300261438
0.031525888233445584
0.030418978682719172
0.029638726771809162
0.02934700167737901
0.030375684117898344
0.03107779431156814
0.030318779009394347
0.029925499712117016
0.02993458040058613
0.029744230546057224
0.02999669256154448
0.030658272984437643
0.03180918443016708
0.031560237151570615
0.031768516539596024
0.031736200787127015
0.03268914184998721
0.03433495304081589
0.03558704582508653
0.03648660455830395
0.03714832452125847
0.03596707773860544
0.03489459725562483
0.035608304757624866
0.03579432320781052
0.03573979408014566
0.035861405804753305
0.035659780423156914
0.03625618411693722
0.0359640434011817
0.035985572100616994
0.03607777444180101
0.036066443701274695
0.03600130928680301
0.03595936314668506
0.03689311402849853
0.03758839134126902
0.03797405281104147
0.037821139828301965
0.03826404537539929
0.03882094834465533
0.039198443870991466
0.039249263196252285
0.03934953834395856
0.03970476631075144
0.03984626640565694
0.03888398571871221
0.03763244353700429
0.03638657735195011
0.036494119395501914
0.03634511722251773
0.0371159927546978
0.03743781503755599
0.03745885724201799
0.03688991362694651
0.036722601242363456
0.03726642788387835
0.036633518207818266
0.0359154519578442
0.036318177082575856
0.03637324020732194
0.03556914152577519
0.034390753624029456
0.034386948361061515
0.03428366797510535
0.03424611821770668
0.03393023589625955
0.03241667141672224
0.031123692877590658
0.030758014302700757
0.03039050003513694
0.03081712662242353
0.03101067613810301
0.030288839992135764
0.02965358993038535
0.029461266924627125
0.02940146829932928
0.030270726922899484
0.031179688363336025
0.03233590423129499
0.032353774905204774
0.03265158801805228
0.03294011336285621
0.03283701052889228
0.03271445973776281
0.03212720543146133
0.031666346667334436
0.0319354599667713
0.032683469816111026
0.03222317308653146
0.03147360533010215
0.031066307006403802
0.03183531805407256
0.031241521509364246
0.02939833793323487
0.029468254456296562
0.030873345360159874
0.031235504779033363
0.03109947587829083
0.031169024980627
0.03172745862044394
0.030825561233796178
0.030738572711125015
0.031876437477767465
0.03125922731589526
0.03147006317507475
0.03252121836412698
0.03297859574668109
0.03416504550725222
0.035686163939535616
0.03554959604050964
0.035645471685566005
0.035945327375084164
0.03644688404165208
0.03782916388474405
0.03859859350603074
0.03802515924908221
0.03823746153153479
0.0391037977905944
0.038560033426620066
0.03939620879944414
0.03914394795428962
0.03884622950572521
0.038700524289160966
0.03933913009241223
0.04030435806605965
0.040341372196562586
0.039755341610871256
0.039033973701298234
0.0383234272710979
0.038477193396538496
0.038089523799717424
0.0382003193628043
0.03900616671424359
0.03918391782790422
0.03878916958346963
0.03812024232931435
0.037755737802945076
0.03768316302914172
0.03775675696320832
0.038512896657921375
0.038798695607110856
0.03820927069988102
0.038857695553451775
0.03938580792862922
0.03968489202670753
0.04053357430268079
0.040740736173465845
0.044251462700776754
0.04530848426744342
0.04602048674132675
0.046474187495186926
0.04725942299701273
0.04779554068576544
0.04824387528467924
0.0477512290654704
0.04749039113987237
0.04751688785851002
0.04702793445438146
0.04607964351773262
0.04578940422274172
0.04514353067614138
0.04485310791060328
0.044020721358247104
0.04267064672429115
0.0419474014500156
0.042150043309666214
0.041349464035592975
0.041156656108796597
0.04231156423222274
0.041689320830628276
0.04160714547615498
0.04161539536435157
0.04216233400627971
0.04269080770201981
0.04169636223930866
0.04155411228071898
0.041202083099633455
0.04193509042263031
0.04282229986041784
0.042544979890808465
0.04312379227485508
0.04409742705989629
0.04534474700689316
0.04641313531901688
0.046434541791677476
0.04719341409392655
0.04758200897835195
0.04819311505649239
0.04961015596985817
0.049945744117721916
0.04950527367647737
0.04936743757221848
0.049097062828950586
0.0503754460811615
0.04971169836819172
0.04893145465292036
0.05085325211752206
0.0489519118797034
0.047731123049743474
0.048196356068365274
0.05052243470214307
0.05073807500302792
0.0495684262458235
0.051079156138002874
0.051435290984809395
0.050487188696861265
0.050886224722489715
0.05085348492022604
0.049925925680436196
0.05020949248690158
0.05145646803546697
0.05204086172860116
0.052483008708804846
0.052953727529384195
0.05249600813724101
0.05237026590388268
0.053763026725500825
0.05390435100067407
0.05329049402847886
0.053020724812522534
0.052770849983207885
0.05216216729488224
0.05125113538000733
0.050305965705774724
0.05044862458482385
0.05075066237244755
0.051150338100269435
0.04963818593416363
0.04824253714177758
0.048470068615861235
0.048068000059574845
0.04651532236021012
0.04457249341532588
0.043717490886338056
0.044857740923762324
0.04507110306061804
0.045176719687879084
0.04529670021031052
0.044210747657343744
0.04355537985917181
0.043332364629022777
0.04478497409727424
0.04512924634385854
0.04386424402706325
0.04490006039384752
0.044178581847809255
0.042026714575476944
0.04055676370393485
0.04135169898159802
0.04054129443131387
0.03777482413686812
0.03577005777973682
0.03567212823778391
0.03371037613600492
0.03444898623041809
0.03730910846963525
0.03855476961936802
0.038005492640659215
0.03793494887650013
0.037592001180164515
0.036645847004838285
0.0362326656607911
0.03604044624604285
0.03540100955404341
0.035353725305758414
0.034824444837868215
0.03352722781244665
0.03234096969943494
0.03179573672823608
0.031789942141622306
0.032108535510487854
0.032384398938156665
0.032493530274368826
0.03270490494556725
0.03327369840815663
0.033140739100053905
0.032700919969938694
0.03302962734829634
0.03375864122528583
0.034039906547404825
0.034186025825329126
0.034542328380048275
0.034449078370817
0.03395798304118216
0.033150743246078494
0.032266134866513314
0.032062950651161375
0.03099989489186555
0.031154041332192718
0.030994195053353907
0.031241824463941158
0.030402198228985072
0.0294513171678409
0.028837642865255475
0.027924387366510928
0.02856567137874663
0.028810954177752136
0.02908445492852479
0.028403875455260276
0.027611709437333046
0.027533021462149917
0.02796495018992573
0.027794474754482507
0.027944792918860914
0.02703903743997216
0.02401524182409048
0.022629491998814047
0.023291424089111386
0.02312123310752213
0.023351582675240935
0.023595335008576513
0.02388614168856293
0.02400733303744346
0.02462953276000917
0.025473203202709557
0.026542522008530797
0.027126578744500876
0.027201233562082053
0.027442303150892258
0.027303477539680897
0.027338826805353166
0.026914153066463768
0.027009069006890058
0.027070298860780894
0.026220329236239195
0.025561622437089683
0.025652952762320637
0.02578432055655867
0.025581389772705732
0.025106230839155613
0.02483058630488813
0.024745222898200154
0.024683276186697186
0.025151553922332825
0.02567984091117978
0.025865886490792037
0.025018826737068595
0.02508955255150795
0.024884034381248057
0.024535458879545332
0.024380142325535415
0.023838414018973707
0.02332635653205216
0.02331461200956255
0.0225871024094522
0.021717340317554772
0.021148279970511795
0.02072144823614508
0.02033241211436689
0.020118087618611752
0.02006747358944267
0.01966975121293217
0.019566861405037342
0.01950285661034286
0.018619599686935544
0.018641168321482837
0.01867571144364774
0.018695556963793932
0.01900669581256807
0.018532154555432497
0.018030508947558702
0.018147397320717573
0.018390439692884685
0.01774957202374935
0.017959896344691514
0.018840639726258813
0.01950102419126779
0.020022143549285828
0.02198518626857549
0.024264653897844254
0.02499232110567391
0.025155911124311387
0.025123320277780293
0.024737830553203822
0.024872585460543634
0.02500672072172165
0.024891827129758893
0.02450994576793164
0.02397162748966366
0.023752236240543425
0.023669410003349184
0.023647923259995877
0.02368348871357739
0.02309200868476182
0.02228196245152503
0.022057488774880767
0.022473734482191504
0.022623571497388185
0.022492606099694966
0.022840767153538763
0.023364324285648764
0.023684573541395366
0.02392235869076103
0.024414454735815525
0.024201654898934066
0.024067065315321087
0.024391879118047653
0.02484870355576277
0.02497466287110001
0.024938505641184747
0.025120515152812006
0.025440943650901316
0.02534581693354994
0.02513596134260297
0.025196183100342752
0.02543268063105643
0.025182299599982798
0.024558265632949768
0.024238432059064507
0.024187955297529696
0.024205964910797774
0.023850946952588856
0.023474402991123498
0.023630838319659234
0.02244733851868659
0.020701509602367878
0.020164953586645426
0.020833055349066855
0.019619966861791908
0.017326597245410084
0.017072383025661112
0.017259450694546104
0.01734988312702626
0.018183832401409746
0.018580432077869774
0.018671405464410783
0.01874445960856974
0.018946297080256046
0.01911707071121782
0.01913337491452694
0.019289717781357466
0.019544515232555567
0.020129000688903033
0.020730341039597987
0.020837468504905702
0.02112616942729801
0.021201881291344763
0.020968360505066813
0.022111168703995644
0.022729115500114857
0.022226644055917857
0.022254445515573026
0.022438942366279663
0.02279024536255747
0.023054139483720065
0.02286708281841129
0.022667579716071487
0.02245979805011302
0.022358396961353718
0.02266902023460716
0.02298150976188481
0.023047999418340622
0.023037593215703964
0.023022061744704843
0.023123740484006703
0.022922529564239083
0.022522443295456468
0.023254892136901618
0.02408720487728715
0.02404881144873798
0.02404487947933376
0.023975025527179242
0.023918941454030573
0.02404310609679669
0.024408921203576028
0.02450679660309106
0.023852023244835437
0.022570102410390973
0.02170863941311836
0.021614537839777768
0.021352662718854845
0.02155416243709624
0.021361501119099558
0.021170277688652275
0.020490907509811224
0.020585138220340013
0.020846114759333432
0.021636057100258767
0.022241820143535734
0.022713468307629228
0.023144835853017867
0.023345121736638247
0.02273886077105999
0.02234505408909172
0.022333408053964377
0.0217499156948179
0.021172352596186102
0.021366754146292806
0.020258585186675192
0.019291433729231356
0.01947238582652062
0.019334333478473128
0.019413199671544135
0.019020522045902908
0.019214883670210837
0.019885409525595605
0.020290859048254787
0.02005371111445129
0.02059566479641944
0.020413426379673184
0.02028245946392417
0.020231568720191717
0.020170933422632514
0.02029735020827502
0.020316679370589553
0.020119835464283822
0.020055349399335683
0.019327533645555377
0.018744495143182577
0.01872011442668736
0.018648438192903995
0.018550630598329006
0.018757680412381888
0.019494221559725702
0.019688117695041002
0.019921108069829642
0.021320583950728177
0.021959061678498985
0.02200539463199675
0.02221756416372955
0.022625464722514154
0.022783735147677363
0.022688710037618874
0.02229392632842064
0.022924656202085315
0.02312180385924876
0.022850372274406255
0.021811515199951826
0.021122384006157516
0.0206703108176589
0.02005903079174459
0.019366128467954696
0.01944512960035354
0.019358728686347602
0.019233378507196905
0.019235159307718276
0.019237448084168135
0.019121867488138378
0.018977341931313275
0.01895394074730575
0.018617482357658446
0.01851764152292162
0.018401614399626853
0.017951766615733503
0.017433693050406873
0.016808111621066928
0.01621940908022225
0.01626281950622797
0.015777507619932293
0.01606111043598503
0.016243066219612957
0.01618154038209468
0.016062997351400553
0.016095786169171334
0.015874492628499867
0.016097965477965773
0.01621568397153169
0.015922860992141068
0.01576975021045655
0.0159893635334447
0.016204812657088043
0.016426300131715834
0.016377997943200173
0.01582246140111238
0.015531145092099905
0.01515700584743172
0.014003968005999923
0.013555759247392416
0.013458754955790938
0.013448682334274053
0.012631333377212286
0.012459782850928604
0.012924555465579033
0.012861038413830102
0.012663606936112046
0.013174917716532945
0.013509569414891303
0.014231884237378836
0.015354916737414896
0.015846499647013842
0.015920981955714522
0.016094453232362867
0.015974445808678864
0.01634689239319414
0.01759705484379083
0.018626074073836207
0.01877221304923296
0.018974096202291547
0.01952381504699588
0.021154677313752472
0.02170163391623646
0.022281500520184638
0.022982282843440772
0.02328080954030156
0.023173961518332363
0.022898013293743132
0.02277816235087812
0.022967627565376462
0.022866427674889566
0.02279579686932266
0.02283085581380874
0.02332703904248774
0.024035986866801976
0.02401284531224519
0.024031973560340703
0.024219710631296038
0.024901729025878012
0.025374498181045056
0.025282075949944555
0.025129511207342147
0.025084532573819162
0.024794815545901655
0.024532539905048906
0.02412105056922883
0.023969246908091008
0.023770244140177966
0.02350229092873633
0.023411391372792422
0.02354122235905379
0.02392382816411555
0.023853389699943363
0.024394910149276257
0.02485023601911962
0.024737139153294264
0.024978666547685862
0.024872514540329575
0.02464902984444052
0.024735697410069406
0.02505874615162611
0.025661632819101214
0.02557419814635068
0.02552150601055473
0.026082362961024046
0.026451738835312426
0.02544286211952567
0.024746682061813772
0.02473064087331295
0.02417654522228986
0.023653538739308713
0.02213701793923974
0.021537954430095853
0.02084916104096919
0.020102455392479898
0.01968729771208018
0.020438595740124584
0.02125352304894477
0.021297807437367738
0.021325370776467026
0.021710665985010563
0.021818207586184146
0.02147500009741634
0.02121217443142086
0.021658460376784205
0.022379948236048223
0.02270935380831361
0.022357049128040672
0.02144881558138877
0.021134860012680293
0.021568057090044022
0.021908621191978454
0.021952268178574742
0.021948209260590375
0.022152072712779046
0.023116086632944642
0.024266230491921306
0.024765878175385295
0.024984574746340513
0.025132428924553096
0.025438840300776065
0.025753654167056085
0.02606994494795799
0.024995258231647312
0.02392065810505301
0.023994362261146308
0.023658792404457927
0.022737379278987647
0.02312856844626367
0.02288335266523063
0.021571675171144306
0.021299855429679156
0.021696085538715125
0.021607251106761396
0.02109438702929765
0.02068380576558411
0.020987980533391237
0.021003158977255226
0.02090919984970242
0.021150817824527622
0.021242310986854137
0.021269950005225836
0.02152273599524051
0.021765476414002477
0.0215457799192518
0.0218117419956252
0.02114901489112526
0.0203106302395463
0.020896093039773404
0.022013043495826425
0.022430817824788393
0.022344218194484712
0.023532038615085186
0.02486949395854026
0.02519750878214836
0.024846841269172727
0.024648094680160285
0.02457823240663856
0.024726877454668283
0.025049573313444852
0.025031873802654446
0.024652171130292118
0.024527156092226506
0.024808011869899928
0.025432412968948482
0.025950330044142902
0.024570272364653648
0.0268560588452965
0.029579148031771182
0.02942715907935053
0.029774555251933635
0.029584383168257775
0.030207887822762132
0.030840504290536044
0.032286713761277494
0.03269620063714683
0.0323993919743225
0.03260944444686174
0.03213283465243876
0.03153234745841473
0.031375262904912236
0.030793904345482587
0.03127292247489095
0.0322288419585675
0.03256355719640851
0.03224820611067116
0.03223897590301931
0.032605721475556494
0.03253110752440989
0.03265260003041476
0.032677672966383395
0.03269494216423482
0.03283879990223795
0.03266531357076019
0.032924190731719136
0.03348518047016114
0.03409505631774664
0.03438549424987286
0.03389649422839284
0.033271772973239425
0.03344078539405018
0.0333930329978466
0.03262570066377521
0.03177109762094915
0.030592312472872436
0.030525340563617647
0.03111272308975458
0.03173178358003497
0.03188594853971154
0.03150403843726963
0.031115814736112954
0.03159695066977292
0.031908762813545766
0.031725875474512576
0.030804680152796207
0.02973444129806012
0.03047840419691056
0.028300160123035312
0.025804426413960756
0.02580122957006097
0.025199545063078404
0.0249947383441031
0.02427175671327859
0.023667459026910365
0.02219436135608703
0.021578177800402044
0.021829157643951477
0.02213334099855274
0.022317065112292766
0.022681730017066002
0.02325574916321784
0.023520322116091848
0.0226171155879274
0.021622300879098475
0.021432322547771037
0.02125846383161843
0.021140728192403913
0.02081162819173187
0.021532974150031806
0.022693688250146806
0.023167862691916525
0.0229599418817088
0.0226001394726336
0.022538440683856607
0.022238379367627202
0.021478772619739173
0.02095464255195111
0.020665414384566247
0.02069335388019681
0.02026719041634351
0.019435995854437352
0.01909548796247691
0.01846861851401627
0.01758751950226724
0.01733415186405182
0.017417222913354635
0.017366788582876325
0.017012333017773926
0.01692625129595399
0.01742142322938889
0.01835424775723368
0.018714216286316514
0.018749473541975023
0.01869570804294199
0.018907673568464817
0.018521965323016046
0.017776629626750945
0.017231280375272037
0.01694932619575411
0.01692622045520693
0.017041572276502846
0.016785267195664345
0.016516639753244817
0.01651513615157455
0.016931595006026326
0.017336444496177137
0.017077013328671457
0.016597338155843317
0.016499834819696843
0.01671082550659776
0.01660390111617744
0.01656225122511387
0.017229600423015655
0.01828890104778111
0.01903956355061382
0.01910515220835805
0.019601248037070036
0.020613479246385395
0.020531741832382978
0.018944843616336585
0.01826931959018111
0.018496222556568683
0.019003140041604638
0.019463198515586554
0.01971339389216155
0.01974607420153916
0.019815526101738215
0.020105615574866533
0.019922941788099707
0.0197248977329582
0.019808997614309192
0.020064574289135634
0.020617331163957715
0.021465914538130165
0.022100000479258596
0.02162328497041017
0.021353065320290625
0.021181471683084964
0.020966794113628565
0.020402263905853032
0.01961684418376535
0.019119416526518763
0.01873021759558469
0.018975129569880664
0.018805357916280626
0.019171479674987495
0.020026754438877106
0.020750127215869725
0.0209957027528435
0.020914957844652235
0.020466210092417895
0.02056317447684705
0.020855530383996665
0.02089998418930918
0.021059053712524475
0.021155798556283117
0.02115349154919386
0.02185211595147848
0.022402839520946145
0.022160738739185035
0.02180512194056064
0.021658311556093393
0.021178377000615
0.020969202211126685
0.02062240744009614
0.020572176282294095
0.01961972812656313
0.01823832739610225
0.017593892836011947
0.01790847955737263
0.01819977563805878
0.018288538255728782
0.017920830994844438
0.017540146573446692
0.017630686280317606
0.01788941552862525
0.017821734943427144
0.017537645497359335
0.017509384923614563
0.01748257423751056
0.017333608348853887
0.017103269258514048
0.016720432844012974
0.016347631770186125
0.015999703980050982
0.016299506966024637
0.016051678517833352
0.016672471333295108
0.017688317457213998
0.01789514010772109
0.01775441747624427
0.018067380962893367
0.018767739292234183
0.018566404567100108
0.019148218217305838
0.019075971581041812
0.018438275242224335
0.017978579038754106
0.017859786017797887
0.018114304966293276
0.01821068501099944
0.017956258677877486
0.017845314675942064
0.017791872355155648
0.017906843442469834
0.018266351311467588
0.01857188175432384
0.017880148929543795
0.01738628180231899
0.01753886808641255
0.017512184479273857
0.017218500096350908
0.01704108599573374
0.01637664285954088
0.01577843476086855
0.015713439392857253
0.015996714839711785
0.016525228559039533
0.01665175083093345
0.016682609827257694
0.01696281796321273
0.017085174699313938
0.017293549925088882
0.01832302167546004
0.01924984322860837
0.019519941001199186
0.019450310901738703
0.019710184880532323
0.020112377861514687
0.020111883175559342
0.020413276441395282
0.020655422429554163
0.020481743649579585
0.019944147360511123
0.019778342489153146
0.020006191791035233
0.020192828844301403
0.019363718791864812
0.018480249075219037
0.018877742737531664
0.019396090148948133
0.018899286342784764
0.018207908007316292
0.018144112587906422
0.01746961864642799
0.017203921671025454
0.017157554598525165
0.01672093982808292
0.01640109745319933
0.016705973432399334
0.01722553974483162
0.01718274107668549
0.017130509596318007
0.017719960352405906
0.01782888750080019
0.01717983812559396
0.01750671913381666
0.01767482533119619
0.018169468212872745
0.017683843518607318
0.018170797876082362
0.018278296925127505
0.018981415550224482
0.01975487733259797
0.020126052517443895
0.02009873709641397
0.01976669427473098
0.019471537619829178
0.019899360523559152
0.020448064203374087
0.02027046399656683
0.01987391447648406
0.01959769257809967
0.018587055779062212
0.017626822544261813
0.017206572885625063
0.017173381973989307
0.017081787087954582
0.016812065313570202
0.01731104143895209
0.017301046317443253
0.017225517174229026
0.017679642573930322
0.018129983143880965
0.018866439959965647
0.019673659359104933
0.02038457425311208
0.02043260253034532
