0.010375924268737435
0.010377451670356095
0.01034621441271156
0.010369629040360451
0.010439408984966576
0.010463599408976733
0.010427538398653268
0.01037883387412876
0.010350623871199787
0.010339392921887338
0.010311983325518668
0.010280559491366147
0.01029789201915264
0.010351292514242232
0.010376320723444223
0.010344483773224056
0.010289807850494982
0.010285084475763142
0.010365940588526428
0.010479104109108447
0.010538630113005638
0.010529771908186375
0.010515395225957036
0.01052268189843744
0.010516552245244384
0.010479680350981653
0.010442510228604079
0.010458181025460362
0.0105232118582353
0.010552364466711879
0.010510336463339627
0.010476688016206026
0.010517351403832436
0.010591589072719216
0.010629953411407768
0.010639346898533403
0.010673519955016673
0.010717837768606842
0.010708279688842595
0.010658909818157553
0.010645071915350855
0.010682732150889933
0.010708849155344069
0.010677904621697962
0.010646739592775702
0.010691443230025471
0.010766235683113336
0.010774838710203767
0.01071439687628299
0.01066079399548471
0.010677187698893248
0.010732660284265876
0.010738488249480725
0.010687716412357986
0.010648038806393742
0.010658625196665526
0.010721944267861544
0.010812370418570937
0.010874674986116589
0.010870737773366272
0.010820004418492317
0.010776458913460374
0.010768795241601766
0.0107811462553218
0.010782634629867971
0.010759420599788428
0.010742130680009723
0.010772243714891374
0.0108295030426234
0.010863715899176896
0.010855055721476674
0.010797497318126261
0.010710961841978133
0.0106399104045704
0.010594187937676906
0.010579229961149395
0.010619205636903644
0.010678956317715347
0.010700326059013604
0.010694369445554913
0.010679745874367654
0.0106400614278391
0.01060276453383267
0.01062428351957351
0.01067108562681824
0.010654047536663712
0.010588146909140051
0.010570228495635093
0.01062185240443796
0.010685256258584559
0.010738172377459705
0.010805158452130854
0.01087175827473402
0.010892534423619508
0.010852300324477255
0.010759951784275473
0.010655455142259598
0.010603292183950543
0.010607281122356654
0.010587446936406196
0.010515432879328728
0.01048347813077271
0.010533500332385301
0.010567054199054838
0.010508833103813231
0.010400321786291897
0.010330785550177097
0.010353852538391948
0.010431031142361461
0.010491868727840484
0.010533416918478906
0.010570621150545776
0.010583318429999053
0.010577911008149386
0.010591772748157383
0.010632451684214174
0.010680608190596104
0.010708713778294623
0.010693069384433328
0.010655572200194
0.010650518466718495
0.010683633615262806
0.010707985516637564
0.010711530214175582
0.01072216966189444
0.010743619138374925
0.010754793402738869
0.010726870899088681
0.010667676944285632
0.010661230790428817
0.010756138414144516
0.010869050417095422
0.010899427947588265
0.010865481807850302
0.010853150766342879
0.010874112518504262
0.010872278013266623
0.010852257828228176
0.010868933317251504
0.010917608449235559
0.010943266414105892
0.010921034100465476
0.01087684595491737
0.01083877591881901
0.01079084374010563
0.010715528437867761
0.010649318057112396
0.010640392126515508
0.01067867263685912
0.010691182832233607
0.01063136436510831
0.01056226973887533
0.010563041521236301
0.010605195220559836
0.010627546864561736
0.010632925676181912
0.010648202961310744
0.010682353102602064
0.010724735930562019
0.010752826817333699
0.010762122999876738
0.010760144260711969
0.010741215627640487
0.0107110046595335
0.010692263054661453
0.010697590149939061
0.010717887310311197
0.010714207133278251
0.010666410769335926
0.010617103772237896
0.010602036346681417
0.010621653664857148
0.010685592480003834
0.01078435660339892
0.01085631962865591
0.010841756160371006
0.010765921054407955
0.01071551965083927
0.010714705069549382
0.010735210897400975
0.01078166936058551
0.01083775337319821
0.01085165070835501
0.010829496774822473
0.010826273020356894
0.010866622780449689
0.010929754902608693
0.01097786394879222
0.010975381410680711
0.010916590774431825
0.010854780124500394
0.010848987475037574
0.010886448090896011
0.010908185970038176
0.010901792855001986
0.01091605085413903
0.010958931045606732
0.010968322148546577
0.010922640124335884
0.010884424946270883
0.010888754464685917
0.010874678324908018
0.0107954186713323
0.010703984131105244
0.010690927938558161
0.010794220184907317
0.010940274456515908
0.011018198993988336
0.01102013918105513
0.010998036279343069
0.010970451985485852
0.010947417607530952
0.010930615752004087
0.010892993141897022
0.010830735182389617
0.010776379792951048
0.010742902546189726
0.010737282671034337
0.010780198643915355
0.010838122074492276
0.010848911618813873
0.010824033576063812
0.010808604126796127
0.010811914526857435
0.010825438853353263
0.01083270724862814
0.01082184586673975
0.010801384821534157
0.010777122527360915
0.010737583874724805
0.010669451816938817
0.010593436718918383
0.010561877684667707
0.010582090164534748
0.010607094168663025
0.010607962892390788
0.01058524327352643
0.010556125384755432
0.010541083151474595
0.010536895617842674
0.010546479816548526
0.01058143148664385
0.010609048926271498
0.010592183605767786
0.010563948187045752
0.01059208664111793
0.010679481234401465
0.010741521138697863
0.010723852659575641
0.010688324915245176
0.010706201884895563
0.010750968791544437
0.010765054053626955
0.010750219733454287
0.01074446778278798
0.010745408572256565
0.010703096659854054
0.010611598156392574
0.010543958377093076
0.010549107645638288
0.010590001638047398
0.010624677888117731
0.010661230757832527
0.010695100841112436
0.01069807861931622
0.010680936640128494
0.010673046354204416
0.010678305719047786
0.010690716719254851
0.01071312881540507
0.010761064090766014
0.010826575043611229
0.010840465682558715
0.010764340949244798
0.010689541827887297
0.01070869380608201
0.010764446086250245
0.010770784043706953
0.010756839280948043
0.010761624844744801
0.010755330547690392
0.010741440136916936
0.010764957410283387
0.010812453608959913
0.010824546325020492
0.010780284241773188
0.010711120869964362
0.010654738787561655
0.010627554571256042
0.01062329115346074
0.010615282538346947
0.010581206786446274
0.010532625559717417
0.010504910866729915
0.010513802613131703
0.010536466422490776
0.01055906439665705
0.010604509166441858
0.010665408563800155
0.010694456496275961
0.010700417631305754
0.010734995240345597
0.010802092435769737
0.01086949220392853
0.010899510155431925
0.01087047888431698
0.010819180337712168
0.010781915746629239
0.010748469703830778
0.010734085845761
0.010749062062241138
0.010738911209627985
0.010681961909867824
0.01062651456333697
0.01060153663624078
0.010596872130408884
0.010581090808846056
0.010515880445018411
0.010416683838702739
0.010352931781671942
0.01035096678417176
0.01036424856632948
0.010356421582400799
0.010336221838369965
0.01031050325371325
0.01027826361823827
0.010267436793074012
0.010310723888687789
0.010375240161083639
0.010398534219712019
0.010384069588035345
0.01036936595570296
0.010365706547163426
0.010369850965216755
0.010361300376243889
0.010339938821271061
0.010354434815235436
0.010395467863418162
0.010382574796676636
0.010307961865328253
0.010235765520483255
0.01020219701807946
0.010231192028149962
0.010335337859578431
0.010445502963848411
0.010462047178298234
0.010388277783058585
0.010316347642801703
0.01029542955569923
0.010301336753182113
0.010311685279011726
0.010322331069037318
0.010316635225899517
0.010290366937406361
0.01027242504991591
0.010279787336476148
0.010297243683598935
0.010313307545147836
0.010339502985589206
0.01038187438622117
0.010402121078222991
0.010354217616841197
0.010267054680734872
0.010216684960760176
0.0102229691343382
0.010245823580771685
0.010246775154955685
0.010210123439319431
0.010149792097508907
0.010105375866405666
0.010101384790614247
0.010120151722803712
0.010137833282351493
0.010145166432484984
0.010113918920978904
0.01003425587899983
0.00996924534905702
0.009964638366363942
0.009978088112547993
0.009969894723035395
0.009954995922744275
0.009942454174160958
0.009910741886124015
0.00985257123131305
0.009811430387198925
0.009834515554830432
0.009906152454204857
0.00998137371148914
0.01004566740244627
0.010110722878016532
0.010173730230890214
0.010196154182776808
0.01015443633776158
0.01010483774356544
0.010135010834783315
0.010231800489127635
0.010280217146500945
0.010232234238646925
0.01017010707873851
0.010168596762232482
0.010207121917046607
0.010231219800189137
0.01021268573589623
0.0101691485196352
0.010146143180318177
0.010138842249289156
0.010102078444324434
0.01006600399967283
0.010100061190314591
0.010175561122596264
0.010213665715418756
0.010215495587326586
0.010239044316112994
0.010295625366270543
0.01033649355173111
0.010335932904854416
0.010333648580126465
0.010375513075850905
0.010456294897012412
0.010533344438299537
0.01056715582497418
0.010554149178788066
0.010525820730254053
0.010506974156014622
0.010512609048746527
0.010562291601672769
0.010625723567791283
0.010641225674189627
0.010623992700129748
0.010632859789766372
0.010669642370194196
0.010691813584417105
0.010665524695068597
0.010603707898408175
0.010557574713602661
0.010530671174637973
0.010471188803203404
0.010389889026992023
0.010366058354265987
0.010409207632765174
0.010440397756174207
0.01041092689614743
0.010338863860815763
0.010268659344874323
0.010244262334890664
0.010276112058199942
0.010337890540249646
0.010401152526028454
0.010452640438452364
0.010481869573704899
0.01046970954630524
0.010423949798569082
0.010399471959099174
0.010422827904112636
0.010449259271845222
0.010445212689228356
0.010429508560337126
0.0104084412753582
0.010365713094361127
0.010318173356354236
0.010304986299015582
0.010332292602397502
0.01037819436751306
0.010434707216918469
0.01049772121477872
0.01053417287301272
0.010526352482847869
0.010526102180592715
0.010577230243943631
0.01062784971203655
0.010618709535337984
0.010587056400254369
0.010589711889624596
0.010618375851772726
0.010661726724356413
0.010730400579050184
0.010785135999321937
0.010776138077490031
0.01074467905331403
0.010765704740770161
0.01082873597741127
0.010863373223692178
0.010846034060232341
0.010815353761427105
0.010805475357919932
0.010819057426415384
0.010835579000413417
0.010811253632418812
0.0107197670545429
0.01060466346796602
0.010539426081813873
0.01054247942287475
0.010582771836780011
0.010628248653374613
0.010638871523551642
0.010598336854018271
0.010566513431258499
0.010594270271249116
0.010648322193883359
0.010686407699249684
0.010689963577315212
0.010648473571054638
0.010598727501928806
0.010587749029509723
0.01059331483207643
0.010578477173112333
0.010566751239821315
0.01057159576099366
0.010541394595056772
0.0104698490165174
0.01044884553179145
0.010515520484186709
0.010569085809402167
0.010534017640165984
0.010466257641091943
0.01042070098221302
0.010393101596273482
0.010396962286904454
0.01041658497415483
0.010388635746203363
0.010321385157294572
0.010284420414827765
0.01029843303374946
0.010323946345597506
0.010304659251123666
0.010231673568487167
0.01018016517162323
0.01020125913899392
0.01024475496262312
0.01027029350399971
0.010298947500996292
0.010332662146538496
0.010349283330142497
0.010350481527857482
0.010352574451826514
0.01037395853549242
0.010429020393639804
0.010486570610664785
0.01049323780927807
0.010460150404833257
0.010436589536257089
0.010433094846084713
0.010437207440845668
0.010427247402258217
0.010378155205398799
0.010316092581488192
0.010290968841873109
0.01029082921333611
0.010275590633973479
0.010263853170908988
0.01029621932655573
0.010340732615441084
0.010340737900696695
0.010319144637323916
0.01031796120107174
0.010314236618578434
0.010295495535247027
0.010308566284365953
0.010364289339631795
0.010399192152544857
0.010388374491594733
0.010380539004690945
0.010384660973213613
0.010372644448652863
0.01036169302649796
0.010367889101617038
0.010372487655840814
0.010364006091840565
0.010345395584590734
0.010332345208153128
0.010327618671581149
0.010296217240393162
0.010237761214375496
0.010203373990952969
0.010194510128349066
0.010171975828707219
0.010141048724763095
0.01012317935936153
0.010103974197991193
0.010062342644669115
0.010003841980360448
0.009956285268999636
0.00995946828275919
0.010027821329422294
0.010100841610692442
0.010089159291237593
0.010005068145692348
0.009977391776628793
0.010071226344443858
0.010188714428804814
0.010228159721009433
0.010211221161298453
0.01019551871344447
0.010181409125216305
0.010149091603234411
0.010116044422611594
0.010100106340833009
0.010078128702007234
0.010024471865035594
0.009942857036367058
0.009878190997987986
0.009892618949525058
0.009970224872231483
0.010021873563528062
0.010024815453216434
0.010032262485474348
0.010050840508192778
0.010054458039812744
0.01006068910472095
0.010070920293219387
0.010041415705345572
0.009978172909468412
0.009950244603678583
0.00999056940432638
0.010063446848653257
0.010135095529258252
0.010185650126077235
0.010172037994489075
0.010105978515930474
0.010078873629681765
0.010121400230564176
0.01017785410862416
0.010218615741468966
0.010258795670233667
0.010306938448920847
0.010351659832522273
0.01037110133562237
0.010359668205492199
0.010325991539284587
0.010261910650879145
0.01018494192045182
0.010150511204265057
0.010174795989878476
0.010226920573040843
0.010268384120427071
0.010276776445098222
0.010268224356696009
0.010272527211345733
0.010291516711004079
0.010308090383186936
0.01032461253926158
0.010358673208393156
0.010401812260970473
0.01043196632526815
0.010446754079312085
0.010441313586197794
0.010399051131680609
0.010335370451211929
0.010299001815728842
0.010296693909913302
0.010285341260023416
0.010266783651895822
0.01027429428882897
0.010285342670977115
0.010282601527869702
0.010306781730614603
0.01036269502248615
0.010391798820346593
0.010367492595687509
0.010326073658652603
0.010295219225808979
0.010275315870530903
0.010266562732867896
0.010245168646797538
0.010190797299146652
0.01014465424232185
0.010150322667323053
0.010175481727346778
0.01016142578329891
0.010117281549610198
0.010107610025443137
0.010155785982497036
0.010207404843531548
0.010214416882954538
0.010199333978816867
0.010191582133993507
0.010193129181861877
0.01021660399157554
0.010251340586692095
0.010250914297066628
0.01022224257234484
0.010218846118077636
0.010232758028432726
0.010214709723368288
0.010191157166846097
0.010238188346847891
0.010329374712891876
0.010339162233285605
0.010244114650413394
0.010175124825909734
0.010214262478984892
0.010292633650824428
0.01031320103444159
0.010273231421597301
0.010246267621405424
0.01025725663639605
0.010258437609300017
0.010235135182738305
0.010213593007065355
0.010209173765033483
0.010228361045010388
0.010251291361637414
0.01023402854334563
0.010175056303851307
0.010136587363667786
0.010174982151947915
0.01026427639182657
0.010313811302185059
0.010283242557197808
0.010239095790311695
0.010247185826301575
0.010263481736183166
0.010208502705208957
0.01010605376213789
0.010051951687783002
0.010066805090755224
0.010096062766388058
0.010130779081955553
0.010179115347564221
0.010187625465914608
0.010138848503120244
0.010104361912235618
0.010107355169020593
0.01008180642966181
0.010010505267418921
0.009944410473108291
0.00988434254657477
0.009811874097213149
0.009785606572404505
0.00984848810825497
0.009927877290174365
0.009944373769685625
0.009914701897650957
0.009895765208639204
0.009922891110181808
0.009980419343337417
0.010006672809831798
0.009983795545995235
0.009965716819278896
0.009985126336105168
0.010013500107452273
0.010018013757653535
0.009996475572697817
0.009963536411523819
0.009944324330426753
0.009954292397014796
0.009976890836842358
0.010000432748347521
0.010039357566274703
0.010102382390759885
0.01017301948275417
0.010213175490498543
0.010218489808030426
0.010248978603631258
0.01032705819234252
0.010390099044889212
0.01040337497368455
0.010410082899034024
0.010442139068618416
0.010476125255227089
0.010482716336846352
0.010454954402521253
0.010405240803956986
0.01035530389752239
0.010323461522348224
0.01031516453716904
0.01030804586596787
0.01028918411117047
0.010285912733525037
0.010298323552124202
0.010290455208159983
0.010263612559065223
0.010246338481083512
0.010245869508944452
0.01025055996607989
0.010259956964291632
0.010287789800204337
0.010327758649364114
0.010362848564982414
0.010397673253901302
0.010437700836919249
0.010470139402896166
0.010470527568832039
0.010422113761305809
0.01035019027069211
0.010302509577013553
0.01029762303456664
0.01031806054059416
0.010331957819871604
0.010326255839318036
0.010309821907430888
0.010282380538992584
0.010256364052183926
0.01026514186989516
0.010287969140335917
0.010280075604096056
0.010272997138090432
0.010316771869547665
0.0103948136838153
0.010462350454181433
0.01050124377477914
0.010520558725111186
0.010542090865783393
0.010586059829220175
0.010640096734277904
0.01065631167963147
0.010607838146388531
0.010530327437445522
0.010477042300626635
0.010439381068572402
0.010378192136995494
0.010343403089791536
0.010420610755681991
0.010554830119945109
0.010616918108426035
0.010605283775366842
0.010592886619269848
0.010561531349085272
0.010476207286119461
0.010407839496619999
0.01042682281229645
0.010485217273235321
0.010494495150633157
0.010460108346305787
0.010456106043420732
0.010506487376987934
0.010594591568224131
0.010696092112921178
0.010752968499436974
0.010730315442197024
0.010672102109529078
0.010647732401266694
0.010675407373346388
0.010701231453567743
0.01067744689527899
0.010640096659772098
0.01063863820862025
0.010652871122583746
0.010649216095916927
0.010635881908237934
0.010629122089594602
0.01062860838137567
0.010629277690313757
0.010630217227153481
0.010629888297989965
0.010637591583654285
0.010674018114805221
0.010708999475464226
0.010665094745345414
0.010525621445849538
0.010370573047548532
0.010290977000258862
0.010288950805552304
0.010285323983989656
0.01022438105661422
0.01013479626737535
0.010079359984956682
0.010063242097385228
0.010030149021185935
0.00996181000955403
0.009925214238464833
0.009969510571099818
0.01004021753091365
0.01007660975214094
0.010102428295649588
0.010144352852366865
0.010171770700253546
0.010175527804531157
0.010197650180198253
0.010241548400372266
0.010258479937911034
0.010238552056252957
0.010222136634401977
0.01022919049486518
0.01024740690831095
0.010269587016664446
0.010293302638456226
0.010311506558209657
0.010325605110265314
0.010334787336178123
0.010320961577817797
0.010278928307816387
0.010248533789999783
0.010265946253202856
0.010291038402356208
0.010277584474533797
0.010266782683320343
0.010305444314144551
0.01036316379904747
0.010387162249535321
0.010380185130052268
0.010397641817107797
0.010447079832665622
0.010464427080005407
0.010447596204467119
0.010460878172889352
0.010491493120789529
0.010467727687209844
0.010387304229661823
0.010312971035018563
0.010268205502070487
0.010227976362220942
0.01018730982206762
0.010151523146778346
0.010109072420746087
0.010066455816850067
0.01005743938498199
0.010100662745535373
0.010172564974054695
0.010241367742419244
0.010300275445915759
0.010322918491438031
0.010273213014006615
0.010207205829210579
0.010217178291641175
0.010278005180880427
0.010305953877978027
0.01030265962705016
0.01032282299362123
0.010374030456878245
0.010403055199421942
0.010359013243578375
0.010286259716376662
0.01029124166816473
0.010369423190131783
0.010406854907050728
0.010368875097483396
0.010326840206980705
0.010321840611286461
0.010344106112606824
0.010395008325576782
0.010440223570913076
0.010406903619877995
0.01031066309660673
0.01023564400151372
0.010196619210764766
0.010163509072735905
0.0101460225507617
0.010158020639792084
0.010186826465651394
0.010214457660913468
0.010211726115085185
0.01017666922416538
0.010171815934590996
0.010225037224590778
0.010258590350858868
0.010222758366726339
0.010205135559663176
0.010293859858065843
0.010440039336681367
0.01053214244544506
0.010532185966148973
0.01050385951064527
0.010509812911041081
0.01052617521956563
0.010492155537940561
0.010407669115811586
0.010350168123841286
0.01038111777510494
0.010472148638218642
0.010557141243480147
0.010604532030411064
0.010621275948360563
0.010622428557835519
0.010608884184621274
0.010594639433547855
0.010613851682282984
0.010638801925815643
0.010584468827582896
0.010469695343635977
0.01043006040621549
0.010499439402483404
0.010566923385486007
0.010591435958631337
0.01063269899226725
0.010672119478695095
0.010637382194399834
0.010560284196399152
0.010526373507454992
0.010545941856689752
0.010571119543164968
0.010569835007190704
0.010550558646209539
0.01054088722448796
0.010561631140299142
0.010608602468855678
0.010642790198326112
0.010640019639395178
0.010625362955033779
0.010610214262269437
0.01056392782367766
0.01048062504734844
0.010424453364685178
0.010454247347079218
0.010514984703622759
0.010507783428765833
0.010444334419444203
0.01041583803948015
0.010453442661091685
0.010508355246856808
0.010536269848234952
0.010537911430001259
0.010535934972576797
0.0105445604538545
0.010556989996694029
0.010571136181242764
0.01060023056808859
0.010640834481455386
0.010681409598328173
0.010718284430913627
0.010728853861801326
0.01070627243258059
0.01069808354601264
0.010711358152329922
0.010675090779550374
0.01057914980687201
0.010515976729802787
0.01053673486225307
0.010587080768309533
0.010607345253229141
0.010610020547173917
0.010643340433016419
0.010699199694208801
0.01069538051262498
0.010610232073813676
0.010531203020364047
0.010500839916057885
0.010478723901323974
0.010458585652522744
0.010456428257748484
0.010444514122791588
0.010421680570580065
0.010440512360073626
0.010504564540460705
0.010570487244985998
0.010641450341790915
0.010737557653337717
0.01083455235697329
0.010898393453098834
0.010897738169878721
0.010821120096370578
0.01074287059251219
0.010736152068711818
0.010744215389713645
0.010704629770480097
0.010675694686360657
0.010694557321257889
0.010693856826983393
0.010644541829824447
0.010600111125968396
0.010592615096829832
0.010601740991696716
0.01059123223181814
0.010552842458710075
0.010539419231936336
0.010607952736318111
0.010719313328154385
0.010776843992061913
0.010767228673212231
0.01074625703971833
0.0107220463687554
0.010690530794672668
0.010694709103554488
0.010748386629857123
0.010789141561836003
0.010759181343019009
0.01069658990483731
0.010687425527721643
0.010744664873927832
0.010794463884085417
0.010773686724714935
0.010720347194001079
0.010708509245887399
0.010710587459616363
0.010662452555261553
0.010599861699156464
0.010591802541166545
0.010625842767767608
0.010638372572138906
0.010603141314350068
0.010553435203619302
0.010529812928289174
0.01052989621181041
0.010528980111703277
0.010523122148588299
0.010522588090971112
0.010534148924052715
0.010552973952144384
0.010562198054976761
0.010557422870770097
0.010551505372859538
0.010547572718933225
0.01052220122423023
0.010439668949693441
0.010312200160697102
0.010223001334816217
0.010216175322420895
0.01023427138570696
0.01023663706611842
0.010244581629522145
0.010257132365368307
0.010253951172344386
0.01023515838664025
0.01022325174883008
0.010245197964832187
0.010281780813820661
0.010295321550220251
0.010294918809086085
0.010286087174899877
0.010249368962831795
0.010204888191074133
0.010181668386794627
0.010174087714403868
0.010193622270599008
0.010258850874379277
0.010330954021774232
0.010351803819648921
0.01032881785184145
0.010318978391587734
0.010338646280579268
0.010354904509149492
0.010350508182309568
0.010331961689516903
0.010320428092963994
0.010342878340743482
0.010383292883634567
0.010409067650325596
0.010435578171163798
0.01047884306870401
0.010506389159709216
0.010488255671225489
0.010440905522555112
0.010405459334142506
0.010402852040715515
0.010407410273328423
0.010373703315854072
0.010305431671440601
0.010265639028511941
0.010285151121206582
0.010320502961985768
0.010333402985706926
0.010336404386907815
0.010350718297995627
0.01036972547415644
0.010363251166418196
0.010327761555090546
0.010316322310827672
0.010349810626357793
0.010357920611277223
0.010308140055276454
0.010285856765694917
0.010339798564091325
0.010385672459378839
0.010353701035492123
0.010286780926398932
0.010245858426205814
0.010243141264654696
0.01026664616074413
0.010288538979366421
0.010283156903460622
0.010261978609487415
0.010248887385241687
0.010238046958111226
0.010210765786468982
0.0101897302409634
0.010218943138606846
0.010280071450397372
0.010325121474452317
0.010352085535414517
0.010373092694208027
0.010377036980353296
0.01034285762347281
0.010280041773803532
0.010242930445820093
0.010258560664951802
0.010289096203632653
0.010287366500124335
0.01024921165779233
0.010224370979703962
0.01025428134482354
0.010312956236302852
0.010358235365711153
0.010386739857494831
0.01040545284282416
0.010401932140812278
0.010355765661224724
0.010267859492450952
0.010187649433501065
0.010170179046690464
0.010208233487792312
0.010256188735365868
0.010295103266835214
0.01035670082550496
0.010471655260771514
0.010608290634118021
0.010708271716721356
0.010751742101274431
0.010755009059794247
0.01073220144957304
0.010703841987997294
0.01070181094110012
0.010713452291674912
0.010709516010247172
0.010714706382714212
0.010741638587787747
0.01073249897453934
0.010646990300156176
0.0105361534235999
0.010484119825996459
0.010513108815066516
0.010581360324285924
0.010645746691152454
0.01067785813473165
0.010667401142418384
0.010646238410845398
0.010640872651711106
0.010623343912884593
0.010582629800774157
0.010560361295938491
0.010569645860232412
0.010565926097333431
0.010519951940514147
0.010481832958757877
0.010501932664774359
0.010530986213125289
0.010523407342843712
0.010512099745683371
0.010504251006059348
0.010473944414407015
0.010445143864490091
0.010457186372950672
0.01049517628736794
0.010513607240281999
0.010496084904298186
0.010458100992254913
0.010404058564454317
0.010330739608034491
0.01025247695390135
0.01017733593005687
0.010111860102042555
0.010088707744143903
0.010124319400638342
0.010182417263276875
0.0102261500665918
0.010269718249328435
0.010333702005445956
0.010389632480219006
0.010403380813077092
0.010389561890624463
0.0103812505165115
0.01038200109731406
0.010374493496492505
0.010356100732460618
0.01034485031850636
0.010358263244852424
0.010393785182386636
0.010432106293737888
0.010459610819816589
0.010476339631713927
0.010493714110925794
0.010528057808987796
0.01057000934612006
0.010590534410439431
0.010584680424071848
0.010553490645252168
0.010502426200546325
0.010465810559689998
0.010448948591947555
0.010432883366011083
0.01043949241284281
0.010481188003905118
0.010526696504093706
0.010557636362500488
0.010569569203071297
0.01054747314658016
0.010503389653749765
0.010484723481349647
0.010499241757206618
0.010501482607796788
0.010482121533714235
0.010472229421138764
0.010467568398453295
0.010443116263486445
0.010415278030559421
0.010425155987031759
0.010472382330335676
0.010516654965467751
0.010539931538514792
0.010565078053623438
0.010594516820274293
0.0105897709261626
0.0105531335901469
0.010516517795622349
0.01047311129514128
0.010425639119930566
0.010406105746515095
0.010429670987650751
0.010483674691058695
0.010533614619635045
0.010556544666178525
0.010559400147758424
0.010559040489606559
0.01057712571695447
0.010600126702338458
0.010573297492228448
0.010515380008146167
0.01051880746614188
0.010578175550326705
0.010592475640587509
0.01055801810696721
0.010563407260924577
0.010610276195220649
0.010628611617721617
0.010605877167545259
0.010573666142299772
0.010559829897247255
0.010585148334503174
0.010640166006051005
0.010679812850430608
0.010661275396123528
0.010605850252322852
0.010587517754174769
0.010604361589066684
0.010585355050861835
0.010545240314677358
0.010549580352380872
0.010584766818210483
0.010598693848587573
0.01058213047683239
0.010566421425901354
0.010586281847208738
0.010637285984121263
0.010684390868991613
0.010716521218419074
0.010746552012860774
0.010777772720903158
0.010804591006599367
0.010822813496924938
0.010834721755236388
0.010855289632454515
0.010894779111258685
0.01091835857834667
0.01087763274088502
0.010794145427644253
0.01072634944692254
0.010683507984504103
0.010643848637118935
0.010606406941078603
0.01059314212296158
0.010617891862057149
0.010652709947898985
0.010655364068225027
0.010646614041179418
0.010681690676137804
0.010734080239199102
0.010727507825940848
0.010657775355502963
0.010579544072970747
0.010540228174068033
0.010559253999963403
0.010597298238426447
0.01058196522295475
0.010510914400219918
0.010459493231028318
0.010469640754163265
0.010490092560648917
0.010466088955290616
0.010450836694799364
0.010511590731330216
0.010583193614147604
0.010583410803228617
0.010569458962418139
0.01061768997926265
0.010685759172774851
0.010723360357806086
0.010761164659634233
0.010819556275382638
0.010875382092781365
0.010903383833356201
0.010884888703003526
0.01084850011393428
0.010854257973842324
0.010886874943971635
0.01087442146614194
0.010803069742396474
0.010720325978472828
0.01066062284167856
0.010621469803154468
0.010585855538956822
0.010555231967009604
0.01056009676773101
0.010599086149595678
0.010619285223074258
0.010611161887645722
0.010623873053118587
0.010658742440864444
0.010650511169806122
0.01058089205995202
0.010519673130474985
0.010503942761570215
0.010492981309071184
0.010461285877972841
0.010409719487652182
0.01034829291049391
0.010330127910710871
0.01038349639158696
0.010425830245949327
0.01038480578456074
0.010330221792683005
0.01033406212925911
0.010342334234155714
0.010308573343791068
0.010274717635475099
0.010276235695928336
0.010304824146442116
0.010342931323684752
0.010371384443715215
0.010362033559940755
0.010308057572692632
0.010270073767751456
0.010309890289790928
0.01039409415796399
0.010458516543731094
0.010494799567386508
0.010512439641170204
0.010506761162541806
0.010480332816950978
0.010445182397961616
0.010415308317169547
0.010398256541229785
0.010385038834065198
0.010366359381005169
0.010343937003053725
0.010310507589019835
0.010263728061690926
0.01023972375318408
0.010271863122470677
0.010343440235592425
0.010425264821387828
0.010495350304991007
0.010522205629386008
0.01051198516972363
0.010514240944758058
0.010539232240989804
0.010557822021655738
0.010559372119605542
0.010549834556877613
0.010548110883682967
0.010579834035597742
0.010623686006292701
0.010628865300677717
0.010609716903418302
0.010612436481751501
0.010605711340904236
0.010551824127323925
0.010514349401928485
0.010550080928951502
0.010607601418159902
0.010614346005022526
0.01056524911429733
0.010505024697631598
0.01047333241906017
0.010483040316030383
0.010522981621325016
0.010558370491489768
0.010561516094021499
0.010542868697084486
0.010509970071725548
0.010444614617154003
0.010377726540900767
0.010376323712989688
0.010406034071929754
0.010360285812057555
0.010239116721786559
0.01014078566338867
0.010098884082399309
0.010060869669541717
0.009998849891126156
0.009954295987263322
0.009961304254829884
0.009967016237787903
0.009913626629859208
0.009868829697370528
0.009928184356540441
0.010048919799737632
0.010140405748970807
0.010210483479313552
0.010280053080059588
0.010302021643146872
0.010269645042717457
0.010241898214444519
0.010230748876929284
0.01020669711753726
0.010175887714140117
0.01015779429115355
0.010153152202256023
0.010166346612386405
0.01019267010036856
0.010203918195329606
0.010190582708455622
0.010181568022817373
0.01021190823521465
0.01027545881923288
0.0103265947336331
0.010344088189303874
0.010350372456014157
0.010379877435043454
0.010449963863939047
0.010539946453645825
0.010603262600488961
0.010604864852502942
0.010564631181769073
0.010539917573332787
0.010536124338395894
0.010506075210869312
0.010436586095020175
0.010359307574108243
0.010305514512583613
0.010290848263539374
0.010306560429744422
0.010312872580252588
0.010282303499989211
0.010247451197355985
0.010249656816013157
0.010271296347491443
0.010284204063937067
0.010292525151744485
0.010291608273983002
0.010274284579791128
0.010266438364051283
0.010288939601741732
0.010317714069969952
0.010330861080437898
0.010361336725763977
0.010439174328930677
0.010521796164102853
0.010548252314329147
0.010506579959765077
0.01042506000958383
0.010355755630880594
0.010335954488255084
0.010345648680813611
0.010349239469505847
0.010342611209489405
0.010333854048512876
0.010333049902692437
0.010355581524781882
0.010387590038590133
0.010377075639553368
0.010309725357219577
0.010248918309807778
0.010250146663747729
0.010292483852244913
0.010345632778480648
0.010416887192986906
0.010489106881432236
0.010531636220403016
0.010551447169855238
0.010545939919538797
0.010498885572887957
0.010447310563176871
0.010445284037850798
0.010475268624722957
0.010488973259925842
0.010495969778858125
0.010536754885688424
0.010598472077399492
0.010614922363311052
0.01056774616241455
0.010508407503366471
0.010465202741324902
0.010442334869876503
0.010476441783830524
0.010580216068774462
0.010689485669136047
0.010752523113042116
0.010783916814252734
0.010794087913818657
0.01077782697044313
0.010762208891101181
0.010792836309410631
0.01087697763927281
0.010953852171078325
0.010963449040427804
0.010935222189873457
0.010922707039862872
0.010897529046051204
0.010812327456660569
0.01072748392354697
0.010697104302234948
0.0107446067314595
0.010803183908574283
0.010830975794233382
0.010840799179859459
0.010851038191467523
0.01086087961215526
0.010870911898091435
0.010890193027444183
0.010916873887181282
0.010934087154455483
0.010931744915433228
0.010925122760236263
0.01093542244285345
0.010935893803834916
0.010883215991780161
0.010815067104995251
0.010805225311778487
0.010841858871281147
0.010836633597500622
0.01075760531704873
0.010692759533412755
0.010716965398751199
0.010796114350669087
0.010864509786479175
0.010887621827423572
0.010884081632830202
0.010906828283332289
0.010955387018620968
0.010972609273158013
0.010930501213297248
0.01085256524849683
0.010779872410930693
0.01073800729587674
0.010719011267647148
0.010705837840214371
0.01070400200318545
0.010732495980337263
0.010798193481750786
0.010878070523031056
0.010917232949286699
0.010878804698586464
0.010815587448887528
0.01080690951552242
0.01082157326862216
0.01077501656487584
0.010685907411389053
0.010645620161667466
0.010677953558042646
0.010716616553254425
0.01070007546339184
0.010650013303384186
0.01063527553807944
0.010670555913820863
0.010710608744993806
0.010723491394892336
0.010706019746139646
0.010663885711692274
0.010616618767380714
0.01059610024560243
0.010615079402923585
0.010643039690330624
0.010632935538887977
0.010581059763208032
0.010531270666979254
0.010497603532858193
0.01044131100177765
0.010352274370379746
0.010287936329841613
0.010293327919207514
0.010333935776725412
0.010362677131779493
0.01038688854780048
0.010410193931311368
0.010405486393719911
0.01037200357299298
0.010335124745033682
0.010331859621219337
0.010390489813871681
0.010465839174576103
0.010503970365971328
0.010535377534106374
0.010582609716802836
0.01060743525158614
0.010598564497195184
0.010574976550415158
0.010531178913079203
0.010479921004734933
0.010472471686080098
0.010516403764486313
0.010556308114901184
0.010538220107555389
0.01045336555223912
0.010357271265238523
0.010319704324938356
0.010336256637237966
0.010346145168878138
0.010322526190429926
0.01030888565350324
0.010329597378149629
0.010370959108695389
0.010361389284953474
0.010343213193118572
0.010372033691965044
0.010401620836928487
0.010360736269503831
0.010273624355904757
0.010223015751689673
0.010244876672513782
0.010292683984152973
0.010307057634927333
0.01029958350583911
0.01030316736549139
0.010311002531088888
0.010332305268384516
0.010382825643755495
0.01041603974532336
0.010386843606829644
0.010335103617981076
0.010333765516988933
0.010386906899511814
0.010429802224971354
0.010430875960737466
0.010403865361586212
0.010350295202806592
0.010289060766808689
0.010256293695420027
0.010258719716221094
0.010289792777039111
0.010330125312320889
0.01035209709778428
0.010375212794169784
0.0104314653435722
0.010484367054887115
0.01049239701591432
0.010480142817832529
0.010465584425255657
0.010435229511931538
0.010405957074835897
0.010403237147256732
0.010417440677993
0.010430775308050215
0.010421308260411023
0.010365430493839084
0.010304011986590922
0.010314224716275931
0.010377028896473349
0.010392760541290045
0.010328222308307886
0.010254401308484375
0.01023829118348658
0.01024602524470538
0.010207369192503393
0.010145614901557565
0.010132894362322986
0.010164235979318618
0.010186519310809671
0.010192896504886449
0.010219800821505486
0.010274926298297942
0.01031115336343646
0.010299414028413594
0.010291991648264229
0.010345736918970942
0.010404521678574384
0.010376949715428054
0.010302851786836981
0.010275269821286202
0.010279031177051366
0.010269540166482329
0.010271428218111396
0.010300153051503003
0.01032775839790702
0.01035486394073814
0.010401495769619941
0.010449125575833022
0.01047877895180136
0.010493073668330908
0.010488261808641255
0.01048151705879718
0.010487414016388356
0.010476287486962974
0.010435090037062764
0.010386102036572992
0.010353017621673644
0.010360992164351046
0.010395682221278547
0.010399661888368428
0.010372831393033266
0.010362826199270784
0.01036690128967166
0.010387540971860289
0.010467018960043787
0.01056647629942745
0.010597355258651077
0.010564955933950841
0.010537824369966984
0.010564656243659556
0.01064831284340471
0.010727595067583024
0.010745062185451388
0.010711130858398974
0.01063703373540193
0.010538131198845804
0.010499498317949474
0.010563300610519945
0.010636002565734088
0.010623202892020345
0.010549386143684386
0.010508955996483564
0.010542888455092906
0.010578255224972964
0.010535792857408523
0.01045685404445976
0.010440612183883787
0.010502452258951961
0.010563383153639734
0.010559502658434212
0.010500892265699804
0.010424643284641206
0.010363910170271993
0.010338704432360828
0.0103144905064255
0.010260929190553724
0.010254016127437354
0.010361440517008304
0.010485668135806918
0.010486881313845516
0.010391727760434151
0.010342723829671741
0.010390876098535956
0.010459560207091273
0.010485544735565781
0.010489101619459689
0.010495501002296806
0.010492404298856855
0.010501949978061021
0.010563020994886756
0.010628665420226753
0.010620909691788256
0.010555541701614856
0.010502364779822528
0.010474618198350072
0.010448671597987413
0.010434724111109971
0.010448416126891971
0.010476655843667686
0.010512979715131224
0.010567526086233556
0.010627463180571794
0.01066083404701203
0.01067950417753309
0.010725524784065783
0.010783397681079806
0.010804430600255727
0.010791313787922262
0.010775800817646087
0.010767150409519673
0.010749592324718832
0.010702920514158904
0.010638375389389694
0.01059196684975177
0.010568065508268774
0.010538780828937888
0.010517220878973603
0.01054704051464796
0.0106026631873101
0.010629686056636273
0.010633966661989689
0.010620857505127788
0.010567609686404467
0.010504906233400106
0.010418281550519168
0.010366776143200696
0.010351887028664351
0.010357827935367823
0.010385188679210842
0.010425681904889643
0.010455037341453135
0.010470803454518318
0.010492355218157173
0.010522064059041441
0.010540551105514169
0.010542712886817754
0.01052929732017219
0.010497072972357272
0.010486478889361025
0.010542602529749274
0.010619667428545653
0.010651066577993333
0.010654065972194076
0.010653606136329472
0.010625601643696428
0.010566165405325591
0.01049033454619348
0.010403732205741107
0.010338981612585485
0.010316706364974379
0.010296292142011226
0.010262122708372772
0.010250204266048968
0.010259048589505255
0.010273511167615651
0.010303786499425769
0.010320929153822362
0.010294444826431572
0.01026008349377662
0.010245356103405356
0.010232555097900331
0.010210778326727449
0.010195523649454117
0.010218307324685157
0.010271366648375989
0.010279959114268423
0.010201829872094094
0.010096222292631865
0.01004948609508574
0.01009358948096633
0.010202227248810232
0.010307967392727733
0.010339760426431895
0.010306543624028563
0.010302939005196094
0.010365468356758356
0.010403124508447945
0.010351647729985416
0.010288707762956619
0.010308886147104204
0.010386772742494941
0.010429764627479016
0.010402083285152913
0.010354790482670068
0.010347094140015542
0.010377499074675143
0.010410289941355587
0.010412319134920835
0.010351246013306082
0.010246011968702078
0.010191565896384418
0.01022927877958864
0.010282497252337635
0.010300063192844391
0.010332275405526161
0.010403301436454057
0.010437124520540237
0.01039036069996655
0.010333387153223158
0.010320101506076753
0.010313476738519966
0.010286363316699862
0.010269699525088072
0.010279760034754871
0.010289570321328939
0.010271687242202461
0.010223803357221187
0.010173744522035122
0.010155384140089154
0.010165319731459021
0.010176374251022935
0.010185266737826168
0.010211957502178848
0.010269502764567734
0.010352262882515789
0.010430956152267754
0.010465541565790772
0.010465595331043005
0.010498498198576272
0.010578030217438937
0.01064770542550832
0.01070525229908526
0.010782099762000143
0.010819148058071732
0.010831532930023969
0.010823783394880594
0.010826578396372497
0.010832202741876245
0.010832992009818554
0.010833702911622823
0.010829235948622227
0.010808669608086347
0.010763440052978695
0.01069316585548222
0.010623011314310133
0.010583910876885056
0.010576699632219971
0.01057935856282711
0.01056721952278167
0.01053144546225667
0.010486610080115498
0.010444134715944528
0.010403780294582247
0.01037596084177494
0.010379223781637848
0.010421805754303933
0.010502092204988003
0.010604560216888785
0.010691628730855883
0.010741689736023545
0.010776401334442198
0.010807845653034746
0.01081676607951522
0.010809891577810048
0.010825628316961228
0.010865814634598792
0.01088670568075031
0.010882333889603614
0.010906687313690782
0.010978865642100573
0.01104356633964926
0.01105225364677608
0.011004836950451135
0.010919260997325183
0.010838762642815709
0.010820214208215474
0.01086405067704618
0.010913283620029688
0.010923965843394398
0.010885835983790457
0.010808678641915322
0.010735113946720958
0.01071075110230595
0.010723556908778846
0.010730111454613507
0.010722811091691256
0.010721678230911493
0.010721721528097987
0.010698669143021106
0.010651736953295767
0.010598072512075306
0.010557454479858279
0.010543946251273155
0.01053847569040954
0.01051417363807559
0.01047768518794328
0.010454403450712562
0.010480787274427712
0.010577576477080583
0.010691659525036812
0.0107262581307441
0.010656662019900977
0.010577342603355647
0.010582593656145035
0.010642774533480406
0.010675585409626365
0.010658555044792593
0.010615843101404607
0.010578205124475062
0.01056331162340939
0.010565748419612647
0.010583660248667002
0.010621030805632472
0.010646959021687507
0.010625862050801516
0.01059320468455553
0.010609335973858833
0.01065835878252983
0.010676940735429526
0.010645311321131884
0.010597272706218065
0.010563013004139065
0.010545107014477252
0.010535385608673096
0.010506418491713703
0.010444679441861808
0.010406573032960297
0.010441200584173202
0.010496180495247245
0.010498017086647451
0.01044595566112548
0.010359018952585756
0.010259759174659848
0.010213844566605986
0.010240364451892674
0.010266377353109419
0.01025376642588526
0.0102340963575989
0.010214058170095085
0.010172093166038393
0.010123011874966323
0.010111863645724951
0.010157656627707184
0.010232679154723883
0.010287511330097913
0.010288299159146846
0.010254306723363698
0.010245348280295729
0.010277823680080473
0.010309105231426656
0.010330814337357878
0.010374661302194
0.010419769803993404
0.010410635839216411
0.010356292026117445
0.010319429636001586
0.010319926468655467
0.010311101088300348
0.010264639523811639
0.010215661255642772
0.010182091719470918
0.010135800326243043
0.010082744234241546
0.010070514171384276
0.010101752118207514
0.010113102081231774
0.010071522551588713
0.010018499190919102
0.009996247431263327
0.010014427676796913
0.010067117176949978
0.01012804219033569
0.010171407447196544
0.010197343514300882
0.010215452793054282
0.01022630684543401
0.010228059720247984
0.010227829250507057
0.010229048603214323
0.010235742358490825
0.010261647976003587
0.010289877220056951
0.010281458459794522
0.010239595989696681
0.010199010246433318
0.010176353259012103
0.01017754089552909
0.010213421466760337
0.010276304860599338
0.010339505658484995
0.010392185072414578
0.010436361460015177
0.010457166763953864
0.01044573669321835
0.010430005490779876
0.010436852555721998
0.010454492415301503
0.010445848600938916
0.010382528500631451
0.010277065257541835
0.010195052418857813
0.01021434977184981
0.01032069078180939
0.010409866794943809
0.010434078495018184
0.010426493366248906
0.010420303731225431
0.010432413765229284
0.010455451561138035
0.010460987277328969
0.010456425873562693
0.01047988529317081
0.010520572043024003
0.010536866979673504
0.010523859970271587
0.010500649604946375
0.010488276490941644
0.010491688726469875
0.010502721830271185
0.01053749524988234
0.010612215669825674
0.010708270389586686
0.0107848796620965
0.010804103151895107
0.010775403999723494
0.010739489593543112
0.01069622978568077
0.010622753202915192
0.010537150288000703
0.010480464878492057
0.010472738798707724
0.010519108036532998
0.010596999684348702
0.010654861121438444
0.010681276116520167
0.010697459690272809
0.010694712260738015
0.010667892964556813
0.010639230557717382
0.010624844543635846
0.010624860450625419
0.010620901207439602
0.010603178697638214
0.010589673449285329
0.010596366091631353
0.01064146678429097
0.0107214201008901
0.010767957293428481
0.010742535116150975
0.010697143911384046
0.010662502865307033
0.010619728327728808
0.010590481963008642
0.010608237064443528
0.01063526313751936
0.010613946369849145
0.010550466077402234
0.010495045133866369
0.010480994204990567
0.010504333185963333
0.010545328231528402
0.010587567649781703
0.01063562390394509
0.01070258536376059
0.010754099674522876
0.010756713501177729
0.010759563487954437
0.010801123082637787
0.010825443053618074
0.010788937676697969
0.010737111228518188
0.010719533250667155
0.01072064836975187
0.010713507742621005
0.010723325684666633
0.010775588368996978
0.010817134557291865
0.01079015013296157
0.010738725946284831
0.010720865856856108
0.010708600524812937
0.010675465995445848
0.01065373090095818
0.010657376092858613
0.010664466042071582
0.010670765950344503
0.010671804235316813
0.010641660033725202
0.010592624982818962
0.010567776928655803
0.010557013251818716
0.01052926064003259
0.010515850447118282
0.010550797823816538
0.010586614701896906
0.010569782871752977
0.010528973545879125
0.010516042257659137
0.010522492956370115
0.010507397786714136
0.010476631121709943
0.010464628874324262
0.010462777116335928
0.010436676102690398
0.010381358792074025
0.010339215723797679
0.010365209160372615
0.010446339873597025
0.01050195804797113
0.010497319069691003
0.010466640377417206
0.010429551536217331
0.010390439331531524
0.010366964521817863
0.01036507347598672
0.010375190787017345
0.010387378162704408
0.010401360024698079
0.010428093527443706
0.01045964112970978
0.010455994703806936
0.010397496470250189
0.010333165172487497
0.010327691985294223
0.010365220527164638
0.010391298900358378
0.010410444959998131
0.010444031865336
0.010479188892059028
0.01049646676518023
0.010486646764911711
0.010466649746522307
0.010473540415987373
0.010506973089650273
0.010520260301418602
0.010496653718873858
0.010474087973125278
0.010474518928676844
0.010480240238830447
0.01048127860762179
0.010486586042679847
0.010495066978037357
0.010489229857921601
0.010471397107467055
0.010466158222407103
0.010459436983801425
0.010419227690435946
0.010372477858327329
0.010363298715092242
0.0103826196026057
0.010399632342159747
0.010406852629967035
0.010407830229960382
0.01040363528765738
0.01040044145192951
0.01040791102219373
0.010445684697479009
0.010527033652178943
0.010610851556994021
0.010640188027173281
0.010627630734816193
0.010621587871573865
0.010606706142425537
0.010534222186543048
0.010442831916734577
0.010415483992546796
0.010431671142578125
0.010404919958673417
0.010334962345659733
0.01029390024021268
0.0102893919730559
0.010278288857080042
0.010270181247033178
0.010282856547273695
0.010280948886647821
0.010251209209673106
0.010232824091799557
0.010233769784681499
0.010222448855638505
0.010200610286556184
0.010205860058777034
0.010259515047073365
0.010331953908316791
0.010364597174338996
0.010349671095609666
0.010338455559685827
0.010352008664049207
0.010358311063610017
0.010341226924210786
0.010330685963854194
0.01035173622891307
0.010379116800613701
0.010378749910742044
0.010370384473353624
0.010396609278395773
0.010450135176070035
0.01048138412181288
0.010479594715870916
0.010502857030369342
0.010577567731961607
0.010626089419238269
0.010589740597642958
0.010525240860879422
0.010485162371769547
0.010451976852491498
0.010424164505675435
0.010407541869208217
0.01037650631275028
0.010339714637957513
0.010333676007576287
0.010345951691269874
0.010337615329772233
0.010307022472843527
0.01028761281631887
0.010305258855223655
0.010345786404795944
0.010367304855026304
0.010352700054645537
0.010320667019113898
0.010296303005889058
0.010298710442148149
0.010325256315991283
0.010345705971121787
0.010330683751963079
0.010295300655998289
0.010288405613973737
0.010324396351352334
0.01037586983293295
0.010413404516875745
0.010426942775957286
0.010424525463022291
0.0104120369348675
0.01040205203462392
0.010408388799987733
0.010415398380719126
0.010412463080137968
0.01041134492494166
0.010399414994753896
0.010362337464466692
0.010321029732003807
0.010278459913097322
0.010232310998253525
0.010235344106331468
0.010296858241781592
0.010332011915743351
0.010320538054220379
0.01033536568749696
0.010390711119398474
0.010425307373516261
0.010414266595616936
0.010400722860358655
0.010414862814359367
0.010436285380274057
0.010457560396753251
0.010500402827747167
0.010550770019181073
0.010545491618104278
0.01046921731904149
0.01040262650232762
0.010391628942452371
0.010379820428788662
0.010341336112469434
0.010318407295271755
0.010311739104799926
0.010298534533940256
0.010311203049495817
0.010372749194502831
0.010450758920051158
0.010517471325583757
0.010553834941238165
0.010544138099066912
0.01050342614762485
0.010460120015777648
0.010448528076522053
0.010483592688106001
0.01052092338912189
0.010528566944412888
0.01054002795368433
0.010571446153335273
0.010591453230008483
0.010579666653648019
0.01053084229119122
0.010463725924491882
0.010443974938243627
0.010485056387260556
0.0104992493102327
0.0104563524806872
0.010437924130819738
0.010476902597583831
0.010517268693074584
0.010526087181642652
0.010520732663571834
0.010523443557322026
0.010531360190361739
0.010514232078567148
0.010466382610611618
0.010432500317692757
0.010422730422578751
0.010389641462825238
0.01035514650400728
0.01040094710420817
0.010498990011401475
0.010542573928833008
0.010524769392795862
0.010518508674576878
0.01053196697961539
0.010530159934423864
0.010531893386505543
0.010560705135576427
0.010586523124948144
0.010577308223582804
0.010546812415122985
0.010545441918075084
0.010599082200787962
0.010659919520840049
0.010665557789616286
0.010626116911880671
0.010604541874490678
0.010632859193719923
0.01067211885470897
0.0106721017556265
0.010653954921290279
0.010669969539158046
0.010718000903725624
0.010747397635132074
0.0107175021013245
0.010639822892844677
0.010556467538699509
0.010484807617031038
0.010425799558870495
0.010405824780464172
0.010444299657829106
0.010493530738167466
0.010497268009930848
0.010479883360676467
0.010485158688388764
0.01050934546161443
0.01055720702279359
0.010645477082580328
0.010737528153695166
0.010788223231211305
0.010796388555318117
0.010754867088980973
0.010676962761208416
0.010632620379328727
0.010648634913377465
0.010669647818431258
0.010645706853829325
0.01059705029707402
0.010582251702435314
0.010604125401005148
0.010602345066145063
0.01055151785723865
0.010496896160766482
0.010476915296167136
0.010465424857102334
0.010435028597712517
0.010411424236372114
0.010423788195475936
0.010463675246573984
0.01049319409765303
0.010487425490282476
0.010475084274075926
0.010490555427968501
0.010502000688575208
0.01046041551977396
0.010396172991022468
0.010375933195464314
0.010402590073645114
0.010442421194165946
0.010478964378125965
0.010505810179747641
0.01052772331982851
0.010543832667171954
0.0105395496962592
0.01052770905662328
0.01053708021529019
0.010560650494880974
0.010568603472784162
0.010556941130198538
0.010554453525692224
0.010587595938704907
0.010649201506748796
0.010705041089095176
0.01074010567739606
0.0107719207694754
0.010796054042875767
0.01078388465102762
0.010731560001149774
0.01065322291571647
0.010575344646349549
0.010532365287654102
0.010521723399870097
0.010515781920403242
0.010508122178725899
0.01050038730725646
0.010495165740139782
0.010512561392970384
0.010550045054405927
0.010556290713138879
0.010508668669499456
0.01045388912782073
0.010434508663602174
0.0104496011743322
0.010486981170251965
0.010540577857755124
0.010591790787875652
0.010608723969198763
0.010590971633791923
0.010575039233081042
0.010587141457945108
0.010611906521953643
0.01060744606424123
0.010572655703872441
0.010552836093120277
0.010556366667151451
0.010551742264069616
0.010522546698339283
0.010464052511379123
0.010393609926104545
0.010358828967437148
0.010370092536322772
0.010386820225976407
0.010390830589458347
0.01039485728368163
0.0103954658517614
0.010387258306145668
0.010398392286151647
0.01045173803344369
0.010522559499368072
0.01057028627023101
0.010575943277217448
0.010550038162618876
0.010515842596068978
0.010483433236368
0.010457851658575237
0.010449436595663428
0.010457770368084311
0.010471391761675476
0.01048867796547711
0.01051919857505709
0.010568794459104539
0.010625328226014972
0.010654434436000884
0.010639519318938256
0.010599595978856086
0.010550375166349112
0.010513629708439111
0.010520683531649411
0.01054796795360744
0.01054259731899947
0.010522685856558382
0.010542710409499705
0.010584165533073247
0.010586250787600875
0.010553492838516832
0.010537323593162
0.010548388031311333
0.010555021446198225
0.010547123909927904
0.010563876405358314
0.010617179982364177
0.010647877836599946
0.010628932383842766
0.010605558566749097
0.010604453268460929
0.010604479564353824
0.010587850101292134
0.010551044642925262
0.010486974520608783
0.01041808313690126
0.010385843887925149
0.010381778376176954
0.010379406837746501
0.010385204222984612
0.010408043689094483
0.01043904002290219
0.010470415353775025
0.010518274754285812
0.010592139768414199
0.010648889038711785
0.01064566292334348
0.010611677705310286
0.010601393207907676
0.010608342681080104
0.010594613328576087
0.010569210927933455
0.010563474874943494
0.010590274231508373
0.010650997990742326
0.010715774605050682
0.010744542717002332
0.010745617379434406
0.010751157575286925
0.010766674536280335
0.010772068668156862
0.010752826104871929
0.010722190835513174
0.010700694704428314
0.010701571423560381
0.010731656621210277
0.010772223034873605
0.010795507817529143
0.010796254738233984
0.010777862649410963
0.010746656223200262
0.010715582822449506
0.010680626481771469
0.01063544066157192
0.010607211166061462
0.010615610871464015
0.010634997189044952
0.01063795535825193
0.010621087728068232
0.010591058298014105
0.010567655917257071
0.01056199673563242
0.01055222273338586
0.010528846778906881
0.010514734811149538
0.010513500361703336
0.010491933263838292
0.01042663431726396
0.010358527833595872
0.010361444666050374
0.010434089596383273
0.010494796326383948
0.01049474773928523
0.010458897026255727
0.01042241814546287
0.010399716733954846
0.01039354870095849
0.01038610739633441
0.01036832449492067
0.010372888636775315
0.010413128612563015
0.010440005105920136
0.010415411251597107
0.010352629981935025
0.010270954798907042
0.010187034364789724
0.010122523745521902
0.010091894385404886
0.010103635508567094
0.010143514494411648
0.010182967307046056
0.010216588419862092
0.010237360592000186
0.010234914827160537
0.010243718405254185
0.01029209015890956
0.010336757516488432
0.010327749750576914
0.010272005340084434
0.01021901920903474
0.01022531235590577
0.010294044436886907
0.010350905382074416
0.010331440535373985
0.010268748812377453
0.010226788222789765
0.010212769410572945
0.010226014917716384
0.010278644757345318
0.010345057174563408
0.01038929597940296
0.010411825296469033
0.010422901380807162
0.010431712912395596
0.010458506997674704
0.010490529458038508
0.010491343201138079
0.010469829398207366
0.01045913429465145
0.01047191719058901
0.010492766508832574
0.010487908888608217
0.010448245685547591
0.010393677866086365
0.010342286108061672
0.010303731304593384
0.010275101796723902
0.010248577739112079
0.010217184810899197
0.010179305677302181
0.010156875485554337
0.010171086005866527
0.010210987604223192
0.010240756659768521
0.010222786073572934
0.010169850010424853
0.010140514099039138
0.010135938352905214
0.010097526642493904
0.010033550499938428
0.010020324592478574
0.010067490669898689
0.010112279583700002
0.010147376838140189
0.01021070433780551
0.010265508107841015
0.010242563523352146
0.01016892462503165
0.010136730414815246
0.010168247814290226
0.010199150149710477
0.010197368771769107
0.010204391526058317
0.010233343699947
0.010238142162561416
0.010216071666218341
0.010225351536646485
0.010270586321130395
0.010280282264575362
0.01022166661452502
0.01013874587137252
0.010103008775040508
0.010174874258227646
0.010330792758613825
0.010455496786162257
0.010470967693254351
0.010416492633521558
0.010369039555080235
0.010340461214073003
0.010320247886702417
0.010341618726961314
0.010403690538369119
0.010443958127871156
0.010444199154153466
0.01043894822243601
0.010454789213836193
0.010529195656999946
0.01068552689626813
0.010849204566329717
0.010912523930892348
0.010867608455009758
0.010778330867178738
0.010691987075842917
0.010615972173400223
0.01050757928751409
0.010512038790620864
0.01064316081814468
0.0106715457001701
0.010656815199181437
0.010813470566645264
0.01107601705007255
0.011376446913927793
0.011683249287307263
0.011968672163784505
0.012172129042446612
0.012243449660018087
0.012193031734786927
0.012125926208682358
0.012226584968157112
0.012429579133167864
0.012697794032283128
0.0129472596058622
0.013125515421852469
0.013185954601503909
0.01307185490615666
0.01303818796761334
0.013048258796334266
0.013168423217721284
0.013416751776821912
0.01367726806551218
0.01382401782553643
0.01383757293689996
0.01379487751983106
0.013772128843702375
0.013776249042712152
0.013789332257583737
0.013852502657100559
0.014022293547168375
0.014258756735362112
0.014454954909160734
0.014559314204379916
0.014610949894413352
0.014656690377742053
0.01466490400955081
0.014589620581828057
0.014488199171610176
0.014442540234886109
0.014431766890920699
0.01442684309091419
0.014474764727056026
0.014593747104518115
0.01476399218197912
0.0150005025556311
0.015282169738784433
0.015527838938869536
0.015694275959394873
0.015789283071644605
0.015799035606905817
0.015890779104083777
0.01624423895496875
0.016718992134556174
0.017206378858536483
0.017597147943452
0.01775233752094209
0.017659116233699024
0.017488509728573264
0.017442281185649337
0.01761135025881231
0.017890216261148454
0.018110239459201694
0.01824436862487346
0.018368994407355784
0.018486619736067952
0.01854118495248258
0.018548710863105954
0.018569893664680422
0.018617699020542205
0.01868753018323332
0.018844733638688924
0.019209728674031794
0.01978781103156507
0.020342922764830292
0.020598840904422103
0.020554996677674353
0.020412961826659737
0.020301517117768526
0.020487046972848474
0.020837330799549816
0.021113465670496226
0.021164183751679957
0.021060708202421664
0.02105890483595431
0.0210991992847994
0.02112240972928703
0.02111574766226113
0.021093991645611824
0.0210270286956802
0.02088901730719954
0.020756682557985188
0.020744202001951637
0.02089780611451715
0.02121826974209398
0.021674110488966107
0.02220097724813968
0.02279720255639404
0.023358621634542942
0.023907343754544855
0.024515251857228578
0.024826933313161135
0.02463255589362234
0.02475352705921978
0.024959083823487164
0.025062181637622416
0.02514360426925123
0.02535157257691026
0.025682432944886386
0.026095494739711286
0.026428121766075494
0.026352169471792877
0.026554836090654135
0.02674602800514549
0.026902916864491998
0.02720276823733002
0.027647422221489252
0.028100107056088744
0.028202516287565232
0.028245092243887483
0.028476713420823217
0.028715134458616377
0.02895005915313959
0.02917512634769082
0.029250483913347124
0.02925702668260783
0.02939765647985041
0.029520092732273042
0.029566126218996944
0.029515794306062163
0.029360493905842305
0.029162053028121592
0.029010651926510037
0.02893355956301093
0.02890489751473069
0.028902062750421464
0.028968587503768503
0.02919479797128588
0.029574990887194872
0.029972941735759377
0.030293767326511442
0.030568323242478074
0.030823000269010664
0.03098545246757567
0.03093198349699378
0.030634479657746853
0.030287641151808202
0.030137147316709162
0.030212838146835567
0.03040645954199135
0.030689822174608708
0.030880238050594925
0.030735340239480137
0.03032228648662567
0.029729680749587716
0.029400459597818552
0.029293747963383795
0.029193145353347064
0.029476679335348307
0.029928908161818982
0.030264327195473017
0.03046316855121404
0.030660217157565058
0.03070205884985626
0.03074422142468393
0.031456011035479604
0.03262018682900816
0.03363639322575182
0.03392168565653265
0.034030790594406425
0.03458248570561409
0.03510601327288896
0.035039135250262914
0.03468349130358547
0.03469558000564575
0.03496875527314842
0.03521891004405916
0.03513383927755058
0.03567307748366147
0.036513224681839346
0.037335736695677045
0.037947354167699815
0.03845536683686077
0.038927547573111954
0.03908218173310161
0.03899168167728931
0.03930121661163866
0.039719187417067585
0.03986425483133644
0.039899402474984524
0.040301797632128
0.040551319620572034
0.04077986224554479
0.04138692995999008
0.04174698269926012
0.041529208617284895
0.04113355755805969
0.04097582170274108
0.04080233482643962
0.04039863216690719
0.04005983396898955
0.04024274844676256
0.040678914776071905
0.040198438996449114
0.04013763900380582
0.040522669786587355
0.040976077495142815
0.04100906057748944
0.04048053757287562
0.04023811135441065
0.04024521094281226
0.04048538390081376
0.040352361304685475
0.04030493149068207
0.0404292071191594
0.04040350561030209
0.040235161422751846
0.04024451541248709
0.04050874963402748
0.040583919873461126
0.04026602109894156
0.04003769717179239
0.039832114223390815
0.039570349701680246
0.03947524753399193
0.03973621118348092
0.03998809388373047
0.04030777738895267
0.04070238234475255
0.041097705541178586
0.04145459339488298
0.04179659202694893
0.04209959879517555
0.04219144137576222
0.04215007464401424
0.04227469663135707
0.042154776067473
0.04225153048057109
0.04197609575465321
0.04178721519652754
0.04142578975763172
0.04159573037642986
0.04159134183544665
0.04152817233465612
0.0419787153461948
0.042305656713433566
0.042292282478883864
0.042357713049277664
0.042251569041982295
0.041892079724930226
0.041824121046811345
0.041761181838810446
0.04169108208734542
0.041895078467205166
0.042353414557874204
0.04254083921201527
0.04268651748541743
0.0431062039732933
0.04306329100392759
0.04283269768580794
0.04308405459392816
0.04343209281563759
0.04347555376123637
0.043394779032096265
0.043234960939735174
0.04247392170131206
0.041354797314852476
0.0405574866803363
0.04074229266960174
0.04113341508433223
0.04071490259375423
0.0400482320971787
0.03986257330514491
0.039720375901088116
0.03928726552054286
0.03865454729180783
0.03829007871448994
0.03836655788123608
0.0379504386195913
0.03693217212334275
0.03576131435111165
0.034851789711974564
0.034338159263134
0.03405908094253391
0.034045399012975396
0.03448487950488925
0.03504300684668124
0.03580861094407737
0.036566896880976855
0.03686246892903
0.036511143115349115
0.037304333494976166
0.03890353394206613
0.03988709442317486
0.039773187446407975
0.040120580480434
0.04066044005099684
0.04039756075013429
0.04004825871437788
0.040115051316097376
0.0403463780740276
0.040821763528510926
0.04193165980279446
0.04342401372734457
0.04349945189896971
0.042914311476051806
0.042906341245397925
0.04359731482341886
0.045226346724666654
0.04708807741757482
0.048833605144172905
0.04960673600435257
0.04978595048654824
0.05071211172267795
0.05149092296604067
0.0520291306450963
0.05253872544504702
0.05292327773291618
0.05291427990421653
0.052982264505699275
0.05365236810874194
0.053945783572271463
0.05381020799744874
0.05376809017732739
0.053831070577725765
0.05387490088120103
0.05468199299648404
0.05562217072118074
0.05586170705035329
0.05560575031675399
0.05552172126248479
0.05553655160125345
0.05510624900925905
0.055400487431325016
0.05583929219748825
0.05557734006550163
0.056018096194602546
0.05604643859900534
0.05598301339894533
0.0560392389819026
0.05614768768195063
0.05562567873392254
0.055474854414351286
0.05560377075802535
0.05510115229990333
0.05508455808274448
0.055808166172355414
0.056389869484119115
0.05691631119232625
0.05747616814915091
0.05738472091499716
0.05738024185877293
0.05750906222499907
0.05729329769033939
0.05736683865543455
0.05755326472222805
0.057687628883868455
0.057808473147451876
0.05792614523787051
0.057880872720852496
0.05785554524511099
0.0579108012933284
0.058195989276282487
0.058392962249927224
0.05858446653001011
0.05909700997173786
0.05948871246073395
0.05953709539957344
0.05893139956053346
0.05875317012425512
0.05902963591739535
0.059027801295742394
0.05917249111458659
0.05922905382234603
0.0592077349871397
0.05963711716234684
0.05993439017795026
0.06002354205120355
0.060202239132486284
0.06027549304068089
0.060822448791004714
0.06129799900110811
0.06124596188310534
0.061169453412294385
0.06097446689847857
0.06098713903687894
0.060386755927465854
0.059397082682698964
0.05874183319043368
0.058996054604649545
0.06070544217713177
0.06113240566570312
0.05932173566892743
0.05814955210313201
0.057976134708151224
0.05756496641784906
0.05723091677762568
0.057631795676425096
0.057936846199445426
0.05760165809188038
0.05751985078677535
0.05682764121331275
0.05573404731694609
0.05565185188315809
0.05631276104599237
0.056316194706596434
0.05594145721755922
0.055489946492016315
0.054796059732325375
0.05398619155399501
0.05346532699652016
0.05380874594673515
0.05404049895703793
0.052844301075674595
0.05213960741646588
0.051424471796490255
0.05050699520856142
0.049807226667180654
0.04967794249299914
0.04985667087137699
0.05054412968922407
0.051046552648767826
0.051244527166709304
0.05277078734245151
0.05414640735369176
0.05464693617541343
0.053869584989733994
0.052532137767411766
0.052060539978556336
0.05249043387360871
0.05260085585061461
0.052257751664146784
0.05252515169791877
0.052073847255669534
0.051830196394585075
0.05185570368543267
0.051589796454645696
0.05125883061438799
0.051574353417381646
0.05196429553441703
0.052306288816034795
0.05237769681960344
0.0523235368123278
0.05218358922284096
0.052697846200317144
0.053007720350287856
0.052937676385045054
0.05298571024090051
0.05315208007115871
0.05308858197648078
0.05290357285179198
0.052859359364956615
0.052879804968833925
0.053744111973792315
0.05417879860382527
0.053809518041089174
0.05376723099034279
0.05341533873230219
0.0531282380502671
0.05349247290752828
0.05453505216632038
0.05566528606694192
0.055600169776007534
0.055840505519881845
0.05654318682383746
0.056630077962763606
0.056605193107388915
0.056271851807832715
0.05716503242962062
0.05781367638148367
0.05778568898327649
0.05793447237461805
0.05841374706011265
0.05921711714472622
0.06014442845713347
0.06090331318322569
0.06164091928862035
0.06209994084667415
0.061864443668164314
0.06193473947234452
0.06161591450218111
0.06133890414610505
0.061483070850372315
0.061664042575284836
0.06203729066532105
0.062099382625892756
0.06238483806606382
0.0626355204032734
0.06246166748460382
0.061801883070729674
0.06031770820263773
0.05972850777208805
0.06086824407335371
0.0609691698430106
0.06075992527417839
0.061258527101017535
0.06132919434923679
0.06091225879266858
0.06059064216446131
0.06081848002504557
0.061190428221598266
0.06148448145017028
0.061017081271857024
0.05960868317168206
0.059100883309729395
0.06006456841249019
0.060450752153992655
0.05967117564287037
0.05923283321782947
0.05817321045789867
0.05667996208183467
0.055336549016647044
0.05468086499255151
0.05484257597476244
0.05454136850312352
0.0543827384756878
0.055119158122688534
0.055377659569494427
0.05543363055214286
0.05551333422306925
0.05409381138626486
0.05320465404074639
0.05287936957553029
0.05141915598418564
0.050572849507443604
0.050744607415981594
0.05111506955232471
0.05111687123309821
0.05112723215483129
0.05093324248213321
0.05105776983778924
0.05132866953965277
0.051304591107182204
0.05153684067539871
0.051532440539449456
0.05201977680437267
0.05181319362483919
0.052243261993862686
0.052472178512252866
0.05243351951707154
0.052576048742048444
0.052815283071249726
0.05266003815922886
0.05240638900082559
0.05199800643138588
0.05221607372630387
0.05270609677769244
0.05242790417280048
0.051520852162502705
0.051028936114162204
0.0512061113724485
0.051429870035499335
0.051344838179647925
0.05093878840096295
0.05141900265123695
0.052825136734172704
0.05351584760006517
0.0538273113174364
0.05374724401161075
0.05341059871017933
0.05189961759839207
0.04989454415626824
0.049447591952048245
0.04933333741500974
0.04846511083189398
0.04799220786429942
0.047456750771962104
0.048056942480616274
0.0481233369698748
0.04777122143190354
0.04761891175061464
0.04738818935584277
0.04685677819885314
0.04617699598893523
0.0455960498470813
0.04520476884674281
0.04473662007600069
0.04418283454142511
0.044175624209456144
0.04407200170215219
0.043884835280478
0.04412577223964036
0.044462907323613764
0.04448488284368068
0.04417847855482251
0.043621024210006
0.043129229163751004
0.04295490777585655
0.04304431719705462
0.04307742753997445
0.04267232068348676
0.04218615958001465
0.04230129986535758
0.04325277310796082
0.04383837888482958
0.043498024120926855
0.04376853127963841
0.04401875282637775
0.04408369120676071
0.044043642855249344
0.04356816052924842
0.043227434591390196
0.04318881847430021
0.04345131956040859
0.04280660476535559
0.041868824576959014
0.04168272559065372
0.04197330705821514
0.04236008216626942
0.04394074152689427
0.04528793584555388
0.045747186886146665
0.04617195643950254
0.04660513173323125
0.04662166178692132
0.04669019022025168
0.04656010636128485
0.04677563252393156
0.04695137911476195
0.047045028400607404
0.04783144379965961
0.0482057267986238
0.048073991499841214
0.048353800685144964
0.0483501780545339
0.04836207414511591
0.04879415017552674
0.049202071013860406
0.04926815854851156
0.04901069748681039
0.04911447138991207
0.04937223604880273
0.04992188761476427
0.051526317917741836
0.05289525297936052
0.052993282577954236
0.05336033426690847
0.05392378751654178
0.054471777356229725
0.054715432482771574
0.05488610436674207
0.05496838198043406
0.055473967329598965
0.056508961864747104
0.05675807216204703
0.05637710582930595
0.05629054051823914
0.05653397646732628
0.056844767578877506
0.05697243071161211
0.05696385937277228
0.05654627131763846
0.05659345588646829
0.056290047029033306
0.05501389784738422
0.05356979928445071
0.05250401034019887
0.05217140673659742
0.05248428769875318
0.05248238809406757
0.052293819594196975
0.05226450879592449
0.05205093189608306
0.051781040322966876
0.05264441450126469
0.053332615634426477
0.053458626135252416
0.05310504957102239
0.05239490665495396
0.05233149471692741
0.052340872129425405
0.05250723926350474
0.05278277439065278
0.053126859231851994
0.05313913335558027
0.052404226940125226
0.05250289848074317
0.05303612609859556
0.05308188972994685
0.05318438907619566
0.05382547115441412
0.05461799910292029
0.054919261573813855
0.05467524657957256
0.05514719939790666
0.05608873049262911
0.056423450112342836
0.05615420708432794
0.055926457876339555
0.056094353357329964
0.05656351577490568
0.056846345383673905
0.0563764689816162
0.05490640644915402
0.05482277782633901
0.05498277746606618
0.054877871880307794
0.055275793368928135
0.05529514700639993
0.05597475092858076
0.05609782130923122
0.055869417726062236
0.05589637234807014
0.05616202735342085
0.05700145509559661
0.05763176160864532
0.057731478121131656
0.05816594081465155
0.05770014056470245
0.05583345238119364
0.05452138568274677
0.05420696003828198
0.05419089652597904
0.05363886631559581
0.053431175099685785
0.05365103296004236
0.05347213773522526
0.05292005838826299
0.05294349637348205
0.052828679624944926
0.05250843990128487
0.052892326791770757
0.05313219118397683
0.053101896164007484
0.0527418597182259
0.051741941822692754
0.05064104240387678
0.0503653465397656
0.05005911023821682
0.049885282134637235
0.049573867172002795
0.04969716783147305
0.04953836884349585
0.047616265825927255
0.046427559559233486
0.04600100462790579
0.04596289711538702
0.045175140192732215
0.04423173063434661
0.04371499109081924
0.0433167784102261
0.04345866218209267
0.04319562161806971
0.0426874344330281
0.043016754081472756
0.04267547777388245
0.04186455631628633
0.04103959468659014
0.04109747877344489
0.041330241481773555
0.041596740623936056
0.0422123037930578
0.042425561556592585
0.04230815769638866
0.04218594191130251
0.04220569813624024
0.042396059953607616
0.042365915942937135
0.042222336055710914
0.0423549487022683
0.042391789774410424
0.042444627392105756
0.042425708058290185
0.04252755975816399
0.04169221939984709
0.04077557712327689
0.040792156788520516
0.04101154578849673
0.041188812884502116
0.04043245723471046
0.04025148740969598
0.040403801607899366
0.040468136933632194
0.040784421134740116
0.041414044965058565
0.04230278801638633
0.04182601333130151
0.04174480175133795
0.04234410028439015
0.042859097067266705
0.04293621015269309
0.042043599477037785
0.041845386284403506
0.042955433861352504
0.04297190944198519
0.0420253493450582
0.04170827685855329
0.04216704948339611
0.04253196779638529
0.04226579589769244
0.04215383996721357
0.041689434302970764
0.040893048592843116
0.04084850385785103
0.040438768742606046
0.04016736990772188
0.04033957377076149
0.04057898335624486
0.040436156112700704
0.040394190805964174
0.04021481357049197
0.04064029404427856
0.04110839318949729
0.04090953269507736
0.040765487081371246
0.03998275566846132
0.03994289204012603
0.04017804646864533
0.04036188635975122
0.04090436061378568
0.04144070301670581
0.04171729310415685
0.041413115789182484
0.041836374597623946
0.04221526517998427
0.04184118315577507
0.04156633942387998
0.04177080766297877
0.04144833784084767
0.04104014235083014
0.04053196203894913
0.03954430507961661
0.03959622495342046
0.039544002232141794
0.03934004405979067
0.039833345375955106
0.04045595605392009
0.04046639381442219
0.040431401734240355
0.0404324112739414
0.04041268694680184
0.04033058351837099
0.03997703534550965
0.04020253352355212
0.03987047695089132
0.040080191968008876
0.04074735147412866
0.041636637621559204
0.04182279153261334
0.04219629467930645
0.04290262259542942
0.04275867955293507
0.042886189706623556
0.042910442827269434
0.04221396568696946
0.04244813489262014
0.042630756320431826
0.04261043318081647
0.042507189153693614
0.042249800208956
0.0418098302045837
0.04120099405758083
0.04090917346067727
0.041013932689093056
0.04107055886182934
0.04103611787315458
0.040966763338074086
0.04087167634163052
0.040952320313081145
0.04125801211223006
0.041967249219305815
0.042401528535410765
0.04261218475177884
0.042847715010866524
0.043262502746656537
0.04329840151127428
0.04318028644192964
0.042857236890122295
0.042710136715322734
0.043452157974243164
0.04371961245778948
0.043478857846930626
0.042963801911100746
0.042060825359076265
0.04119890971109271
0.04106090184301138
0.0418710796860978
0.04147524146363139
0.042682110918685796
0.0442435058997944
0.04451338721439242
0.04421929830219597
0.043645258066244426
0.04268545721191913
0.04255974594503641
0.04314075311645865
0.043608369543217125
0.04362344925291836
0.04322336227633059
0.04364916627295315
0.04354666382540017
0.04342773502226919
0.0435097733233124
0.043487634668126704
0.043607445582747456
0.0437839228939265
0.04343097005505115
0.04303995358757675
0.043830625605769453
0.043517942172475156
0.04319193091709167
0.043018976212479174
0.04255489949602634
0.04256771989632398
0.04213508744724095
0.04209765297360718
0.041493617831729356
0.04089120761957019
0.04052153562195599
0.040161433639004825
0.04013835640624166
0.040033385949209334
0.04035074880812317
0.04046468853019178
0.0401107719540596
0.04016839444637298
0.040026097800582645
0.03989251380320638
0.03965845141094178
0.03971142904367298
0.03996464349329472
0.04049575844313949
0.041228909753262995
0.04177785309962928
0.04185115784406662
0.04172264335211366
0.04122333738952875
0.04112414993345737
0.04146771508734673
0.041653306018561126
0.04154384346678853
0.04125717331189662
0.04129209302831441
0.04146823252085596
0.041547008426859974
0.041302996794693174
0.04047294549178332
0.039382926817052064
0.03933037100359797
0.03918748605065048
0.038818837660364806
0.03878047656733543
0.03851578685455024
0.03801356393843889
0.038783677192404865
0.03963119253050536
0.03990201207343489
0.039923335928469895
0.0401096686348319
0.040850960654206576
0.04211276018060744
0.04353130985517055
0.04434541399590671
0.044335119388997556
0.044456835743039845
0.04469649621285498
0.04504958949517459
0.045831285668537024
0.046288251955993474
0.04561368805356324
0.0452196288574487
0.04485531093552709
0.04477807078510523
0.044403357827104625
0.04392018509563059
0.044094147640280426
0.04469432005658746
0.04526253892108798
0.04524995541665703
0.044620345602743326
0.04431932543870062
0.044992590914480386
0.045614397125318645
0.045798662705346944
0.0456651906343177
0.045068866796791555
0.04413342954125255
0.04406477172393352
0.04214087165892124
0.04033417253289372
0.04016192820388824
0.04063574114814401
0.04068351143039763
0.04061690605711192
0.040483241933397945
0.04048038116656244
0.039853016454726456
0.04028821437153965
0.04169718281365931
0.04223038101103157
0.04220660560298711
0.04209452864248306
0.042257147249765696
0.04245823996141553
0.04209729283116758
0.042142044585198164
0.04207594491541386
0.04145010938867927
0.04076195211615413
0.040380598581396046
0.040799191030673684
0.040864896513521674
0.04132956986315548
0.04154327289666981
0.04125515184830874
0.04230969245079905
0.04378015556838363
0.044652696806006135
0.04501438998617232
0.044978529075160624
0.04456944169476628
0.044436974306590854
0.04403200621716678
0.043415176919661465
0.0431902788951993
0.0431696237064898
0.04331430949736387
0.04337118319701403
0.04347193325404078
0.043456005868501964
0.043558651986531916
0.04328029579017311
0.04228568420279771
0.04172604563180357
0.04208889185450971
0.0419743774458766
0.04201376392506063
0.042871485487557946
0.04337667107116431
0.0431433680979535
0.0435280378209427
0.04349594046361745
0.043660186701454225
0.04383739426732063
0.04378907940350473
0.04406950688920915
0.04414469302166253
0.044705000920221206
0.04461668496951461
0.04419266622979194
0.044075052575208246
0.044221330266445875
0.04430365914478898
0.044825147404335436
0.044135328531265255
0.0431828115042299
0.042753386786207555
0.0429129626089707
0.04302823525387794
0.0426496097818017
0.04142242537811398
0.040368805900216104
0.03994162882212549
0.04031436753459275
0.04069808075204492
0.04075764497742057
0.040291062630712984
0.03973452063743025
0.03939230828080326
0.03943370278924704
0.039409934785217045
0.03948798904661089
0.0399304857198149
0.04080207124352455
0.040937038576230406
0.0415436972072348
0.041915495884604755
0.04163158829323947
0.04136696406174451
0.041345376982353625
0.04120107848662883
0.04086861608549953
0.0408094293391332
0.04115598693490028
0.04148550479207188
0.041655928897671404
0.04162663543131202
0.042016917490400374
0.042839826559647916
0.043182040587998925
0.04256194500718266
0.0426634317310527
0.04376098514068872
0.04454706610646099
0.044470908516086635
0.04386591768823564
0.04384248749352992
0.04293648833874613
0.04188672555144876
0.041398113667964934
0.04147008522879332
0.04145014835055918
0.041553598106838764
0.04200230948626995
0.04291351576335728
0.04332847892306745
0.04318124064709991
0.043921981742605566
0.045051755448803306
0.045631286068819464
0.04539648858830333
0.04569938996806741
0.04565267920959741
0.045306528289802375
0.045543477232567964
0.04461232821457088
0.04316802071407437
0.04219692275393754
0.04173539730720222
0.04199546305462718
0.04196177286561578
0.04177934824954718
0.04185243855696172
0.04191622199025005
0.04208957966417074
0.04198880725540221
0.041850240151397884
0.04176985176280141
0.04226313336752355
0.04286029378883541
0.04250841807108372
0.04325435664970428
0.044322674525901676
0.044131505219265815
0.04391220571473241
0.043711353754624725
0.04353906000033021
0.0427891003806144
0.042129690293222666
0.04217485717497766
0.04211232183501124
0.042393275019712746
0.042114449040964244
0.04171625706367195
0.04183852683287114
0.04175015299580991
0.0417896500043571
0.041327034118585286
0.04197517070919275
0.042808942287229
0.04222217045724392
0.04320746008306742
0.04476426806300879
0.04456689591053873
0.045047420733608304
0.04479608051944524
0.04606072781141848
0.047455579987727106
0.047022011680528525
0.04749928839504719
0.04859032924752683
0.048907956811599436
0.04841278563719243
0.04794342454522848
0.04737062701955438
0.047045724987983706
0.04698952281381935
0.04688009817153215
0.04676427752245218
0.04708650650456548
0.04721633170731366
0.047673842585645616
0.04757763226050884
0.0466317728953436
0.04676422841846943
0.04635201232507825
0.045580826909281315
0.04527224432211369
0.04537044655531645
0.04546890595462173
0.045993098607286814
0.046374800419434904
0.046459879991598424
0.04639076770283282
0.046069069765508175
0.046078940494917335
0.04670920717529953
0.046613791789859534
0.046092839925549925
0.0458105872059241
0.04566266485024244
0.04535047825891524
0.04442937872838229
0.04353178122080863
0.043398910700343546
0.04382510603405535
0.04388747431337833
0.044486074075102806
0.04509602856822312
0.04531291211955249
0.045378692327067253
0.04546220604795963
0.045056185191497206
0.04432585773523897
0.043389181243255734
0.04269312674645334
0.04269976072013378
0.04207805993966758
0.04084242222830653
0.04047790499404073
0.04078458209056407
0.04010614353232086
0.04047491799574345
0.04093559204600752
0.04089400937780738
0.04152433875016868
0.041947484337724744
0.04190310917794705
0.04269925695843994
0.043146016742102805
0.04306539700832218
0.04383948518428951
0.044091560067608955
0.04448662920854986
0.04538850507233292
0.046111412295140326
0.046574532077647744
0.046939512751996516
0.04660595010966063
0.046173234130255876
0.04699736030306667
0.0468730580015108
0.04637688369490206
0.0461949833156541
0.0466463219281286
0.04743210781365633
0.04764953088015318
0.04744574354030192
0.04725331653375178
0.04719506279565394
0.04661238757427782
0.04609098357148469
0.046024100789800286
0.045898701315745714
0.04595842542126775
0.04608565583825111
0.045976023068651554
0.046062384005635976
0.045578313791193065
0.04485028530471027
0.0451507828803733
0.04420887765940279
0.04308665613643825
0.043118413211777805
0.04241803018841892
0.04276397872716189
0.041668890160508454
0.04024017881602049
0.04009240809362382
0.03941412481479347
0.03887251599691808
0.03866502997465432
0.03875503612682223
0.03971179753076285
0.04114746684674173
0.04210515938233584
0.04281948867253959
0.0434118087682873
0.04351467918138951
0.04369340057950467
0.043972108121961354
0.043433548039756714
0.04312366293277591
0.04299837895669043
0.04303965128026903
0.0428229444893077
0.04266559771727771
0.0427790445741266
0.042846503816545006
0.042859950261190535
0.04276827701367438
0.04236254458781332
0.041670722691342234
0.04156497686635703
0.04198484650813043
0.04207884041126817
0.04166343159973621
0.04160900277551263
0.04188335381448269
0.04211915309540928
0.042323852353729305
0.04239142423029989
0.04259958485141396
0.04251667240634561
0.04274435125757009
0.04270356569904834
0.04285430064890534
0.04224061740096659
0.041514743939042094
0.04156744039617479
0.0422401245450601
0.042770896125584844
0.04316626179032028
0.044518073895014824
0.045853040092624725
0.046348555134609344
0.046370370397344235
0.0464250978641212
0.0463828717591241
0.04648153706919402
0.0463299374980852
0.04674730584025383
0.04673762848600745
0.046421999321319164
0.046136811724863946
0.04547629636712372
0.04519503221847117
0.04503679394721985
0.0446576674701646
0.044595223097130654
0.044888230697251855
0.044365488053299484
0.044675377891398964
0.04456509028095752
0.04367173920851201
0.04294747731648386
0.042439275085926056
0.042093621641397475
0.0419881605450064
0.041744847558438776
0.041228287518024445
0.04055092456750572
0.040148907229304316
0.040755877904593944
0.040493153133429584
0.039876658851280805
0.04071032526437193
0.04188400590792298
0.04199999255128205
0.042655574260279536
0.04320762966759503
0.04318165857344866
0.043101639160886406
0.04316050952300429
0.04308928516227752
0.04287733541801572
0.04294386003632098
0.043377116597257556
0.04377374965697527
0.04349647776223719
0.04385545069351792
0.043477895730175076
0.043384308353997765
0.043396906703710554
0.04340528764296323
0.043261879165656866
0.043130848961882295
0.04336776544339955
0.04371534655801952
0.043711042371578517
0.043190661622211336
0.043234901130199434
0.04422235366422683
0.04416206494439393
0.04305958894547075
0.04206665812991559
0.041360229062847795
0.040745154954493046
0.04061280622147024
0.0403505185386166
0.03978739438112825
0.039822382014244796
0.03964237532112747
0.039670746447518467
0.039573779040947554
0.0396549765067175
0.0397456038929522
0.039653678447939454
0.03964427011087537
0.03958014188800007
0.03952908190898597
0.03957624372560531
0.039771139905788004
0.03947049652691931
0.03907373628113419
0.038839473063126205
0.038717447970993815
0.0384733818192035
0.03815492333844304
0.0376236028643325
0.03751345476135612
0.03777594908606261
0.03776295596733689
0.0378604137385264
0.037797264624387025
0.037534218793734905
0.03742419423535466
0.03788600453641266
0.03858607036061585
0.03868162681348622
0.03776802589651197
0.03750840192660689
0.03744590209331364
0.0368927273247391
0.037415627404116095
0.038511683917604386
0.03857879438903183
0.038935230043716726
0.03915954391937703
0.03890151400584727
0.03869410865940154
0.03841011348180473
0.037796494383364916
0.03752884475979954
0.037832345282658934
0.03776714711915702
0.037598148225806656
0.038024154766462745
0.03816314833238721
0.03797132740262896
0.03776600427925587
0.03874419852625579
0.039740418693982066
0.040079490952193736
0.0404468404315412
0.04162632215768099
0.0423082570405677
0.042312407698482275
0.042519877930171784
0.042727207886055114
0.04276802194304764
0.04299712554086
0.04312352379783988
0.04267199823632836
0.042379825338721276
0.04220052371732891
0.041252426886931065
0.040531501807272434
0.04069424868095666
0.04004473333712667
0.03969186438713223
0.039677046705037355
0.03963989299722016
0.03969871860463172
0.03967646805103868
0.03956971786916256
0.03935036421753466
0.038798498208634555
0.0385230426909402
0.03942762068472803
0.03941653580870479
0.03937798566184938
0.03943064583931118
0.03939294559881091
0.03941489639226347
0.03954517735168338
0.0396081129880622
0.039391052164137366
0.03906335087027401
0.03883179376833141
0.03880055301822722
0.0383096745563671
0.03714409836102277
0.03622997351922095
0.036016358346678316
0.03607029171194881
0.03636918486095965
0.036326603069901466
0.03628599311225116
0.03603816790506244
0.036041079894639554
0.036210355912335214
0.03619596384000033
0.0366481665847823
0.037433922816999254
0.03805574556346983
0.038185811657458546
0.03803410014603287
0.037944182413630186
0.03785852322354913
0.03755365698598325
0.03732171622104943
0.03719292644876987
0.037358558485284445
0.03721614353358746
0.037106686416082085
0.037029285118915144
0.03714390677865595
0.03717825274448842
0.03705546781886369
0.037277400982566176
0.03747748724650592
0.03781903375405818
0.03813739986624569
0.037895293454639614
0.03814015781972557
0.038350487337447704
0.037986942185088995
0.037030958579853175
0.03641485310625285
0.0367330768937245
0.03686099803540856
0.036858184388838706
0.03601063497364521
0.03493106512352824
0.034817603272385894
0.03599128847476095
0.03551317211706191
0.036809780723415314
0.03798855165950954
0.03856409160420299
0.03899730931967497
0.03942172332666814
0.039799411538988354
0.03982676312793046
0.03985311753116548
0.03980398770421743
0.03958782413508743
0.038991281613707546
0.03842460077721625
0.03839585575275123
0.03745198986958712
0.03595149852801114
0.035192194217816
0.03483106872532517
0.033684174390509726
0.033128279354423286
0.03315599187277257
0.03279710003174841
0.032581672626547514
0.032457626136019824
0.03230757109355181
0.03206618566531688
0.03229327868204564
0.03233360362704843
0.03232004246208817
0.032540916716679934
0.032900103800930086
0.03345499726012349
0.03376021586358547
0.03388836950995028
0.03427373584825546
0.03441581320017576
0.034374021720141174
0.034712353562936185
0.03529805003665388
0.03525934871751815
0.035936496094800534
0.036284919329918924
0.03592222371138632
0.03556077069137245
0.03553506224416196
0.03493124356027692
0.03456392904743552
0.03455895160324871
0.03438828381709755
0.034318602164275944
0.03423094905912876
0.03482912690844387
0.035406761234626175
0.03574732474051416
0.03599802630022168
0.03616329035256058
0.0361668422119692
0.03646153144538403
0.036627194439060984
0.03652935516089201
0.03680351107846946
0.03673902634531259
0.036695871860720215
0.03651849992573261
0.0363350039627403
0.03654295596294105
0.03642769461497664
0.035475519117899236
0.0348128804937005
0.03486352689564228
0.035005631153471765
0.035005061426199975
0.03516400014981627
0.035069469804875554
0.03500289941206575
0.03505245521198958
0.03566373628564179
0.03664316114969551
0.03656956035178155
0.037148609622381625
0.03716010410804302
0.03751993714366108
0.03792933192104101
0.03766536163631826
0.03700645602773875
0.036406198949553076
0.03645848467946053
0.03667134711518884
0.03650219413917512
0.03637732173781842
0.036285622091963884
0.03648594909347594
0.03655946423299611
0.03626219971571118
0.0358068252261728
0.03551923760678619
0.03552756313700229
0.03478941071312874
0.0334296793024987
0.03253317360766232
0.03316742655821145
0.032100137220695615
0.030797430775128306
0.030778036629781128
0.03116500908974558
0.031259274049662056
0.030875225653871893
0.030856792111881078
0.030862291916273533
0.030831009270623325
0.03061799695249647
0.031117450357414783
0.03195465189870447
0.03207117675337941
0.032189583792351185
0.03245993453077972
0.03272515001706779
0.03371016757097095
0.034589008507318796
0.034667244185693565
0.03453054729383439
0.034879601378925144
0.03515168452169746
0.03492100173141807
0.03459077149629593
0.03467226668726653
0.034297742298804224
0.0342762564541772
0.034358982392586765
0.03397849411703646
0.03313075254671276
0.032343105548061434
0.03213772762566805
0.032190861757844684
0.03179521206766367
0.032021585847251115
0.03200002199038863
0.03200076764449477
0.03148382326588035
0.031951284208334985
0.031777286692522465
0.03124121523462236
0.03075372019317001
0.030482353176921606
0.03044411407317966
0.03071062481496483
0.03130038839764893
0.032132859444245696
0.032682658080011605
0.032718084724619984
0.03268358369823545
0.032237654784694314
0.03166775183286518
0.03154595345258713
0.03196187454741448
0.03255093135405332
0.03265134944580495
0.03268572779837996
0.03344308457802981
0.034231752129271625
0.03432990025728941
0.034226487795822325
0.03426129949744791
0.03429229175206274
0.03410083114169538
0.03424134745262563
0.03450528860557824
0.034576529120095074
0.03495245481375605
0.03568279294297099
0.036312933834269645
0.036568945623002946
0.03646023876033724
0.036455796505324545
0.03673264984041452
0.03728320391383022
0.03689949618652463
0.03593798849731684
0.03601135507691652
0.03546370356809348
0.03548637740779668
0.03527910965960473
0.03563145392108709
0.036588179799728095
0.037142872884869574
0.036899071298539636
0.03697615954559296
0.03722285383846611
0.03735994880553335
0.03727371907327324
0.03726478277239949
0.03736911135725677
0.037485308181494474
0.03763547047507018
0.03776046821847558
0.037903821603395046
0.037985505205579105
0.03815935851540417
0.038318061493337156
0.03789571738801897
0.037331839962862434
0.03695144884288311
0.03703911871649325
0.03648095918819308
0.03578935619909316
0.03573263926897198
0.036299980096519
0.03643661244772375
0.036524605895392595
0.03645293908193707
0.03680279867723584
0.03672572256065905
0.036110189664177596
0.03603185716085136
0.0359463970316574
0.035702937291935084
0.03533285296522081
0.03428584375884384
0.03330756375566125
0.033641584790311756
0.034459587847813965
0.034316849708557126
0.034509851969778536
0.034688528054393826
0.03533624826464802
0.035836139316670595
0.035818192744627594
0.036008264631964264
0.035937172286212446
0.03637557778507471
0.037259447374381124
0.03785338079091161
0.037979716383852065
0.03765083151403815
0.03779165054671466
0.037681994424201545
0.03756173374131322
0.037217229953967035
0.037260985118336976
0.03709202704019845
0.036818508650176225
0.03656628150492906
0.03689079975709319
0.03740580337587744
0.03749023143202066
0.037649334664456545
0.037770608635619284
0.03762009919155389
0.03727271377108991
0.03695399430580437
0.03743593456689268
0.0379287691693753
0.038322640447877344
0.03840165758971125
0.03806334151420742
0.037506977883167564
0.03725268178153783
0.03679278315976262
0.035778776868246494
0.035148902139626445
0.035263678613118826
0.035596507783047855
0.03567998949903995
0.0359831814467907
0.036401211540214716
0.03633187816012651
0.03629304220434278
0.03678988600615412
0.036367660192772745
0.03551192577928305
0.03487959437537938
0.03457065588328987
0.034771916549652816
0.03554241009056568
0.03595167549792677
0.035362929492257535
0.03566333866212517
0.036682419907301665
0.0373055480979383
0.03756862247828394
0.03758324149530381
0.037384332036599514
0.03691517404280603
0.03638973405584693
0.03649569889996201
0.03742187443189323
0.037400839133188125
0.036885322807356714
0.03674722875002771
0.03676339149009436
0.03718189860228449
0.03732200466096401
0.03691507564391941
0.03707227363716811
0.037360954438336196
0.037437824979424474
0.03763912796042859
0.037753706448711455
0.037557713496498765
0.037442863378673794
0.03730565308127552
0.037267462708987294
0.03714937817305326
0.03709278100170195
0.03687869788147509
0.03693541561253369
0.03789959906600416
0.038582831197418274
0.03881953145377338
0.0406019041640684
0.04186437635216862
0.042055488200858235
0.04183995651546866
0.04190824344754219
0.04153793415986001
0.041652313112281264
0.042017492218874394
0.04207175048068166
0.042271080724895
0.04199799117166549
0.04117494931910187
0.04130389979574829
0.041289708628319204
0.04142605144530535
0.041244529355317354
0.04213996412232518
0.0438493621814996
0.04411985672079027
0.04426174645777792
0.04417048471514136
0.04369294643867761
0.04342544205021113
0.04342822020407766
0.04337767696939409
0.043245325647294525
0.04299926745705306
0.043116665934212504
0.042896416196599604
0.04281137993559241
0.042942392854019996
0.043040433460846544
0.043179924110881986
0.04287544795311987
0.04262719794176519
0.04292723434511572
0.04270507920067757
0.04204448600299657
0.041650999328121545
0.04141939639579505
0.04172522809822112
0.04168118178378791
0.04113923980854452
0.040749009307473896
0.040785071426071226
0.0406991950282827
0.04075802273117006
0.04129674023017287
0.041641444931738075
0.04187457951717079
0.041768000409938395
0.041293140454217794
0.04110008050687611
0.04126305910758674
0.04102121517062187
0.04062003212049604
0.0402935363072902
0.03980035799089819
0.03959558542817831
0.040160601143725216
0.04036775743588805
0.04046993004158139
0.04091396777890623
0.040809418549761174
0.040065873502753674
0.03942805531434715
0.03953328601550311
0.03875649447087198
0.03799275614786893
0.0376877001253888
0.037698878003284336
0.03775824978481978
0.03769764734432101
0.0375985826132819
0.037589001301676035
0.037301540221087635
0.03639221746940166
0.03633848312310874
0.036714296131394805
0.03662301172036678
0.03652816201094538
0.03616756602190435
0.03609958025626838
0.03646493887528777
0.036222417633980514
0.036441458971239626
0.036371462456882
0.036564709190279245
0.03696860960684717
0.03742978850845247
0.03791832867078483
0.037994866408407685
0.0381372956931591
0.0380897406861186
0.03805354342795909
0.03819896512664855
0.03801284614950418
0.03662519592791796
0.036009018761105835
0.03643136859871447
0.03520485585089773
0.03354797614272684
0.03292233724612743
0.03298722924198955
0.032975046164356175
0.03330413186457008
0.033289542151615024
0.03310432293917984
0.032984993099235
0.03296012617181986
0.03294353164266795
0.03301676793489605
0.03271580773871392
0.032205874808132647
0.031878236830234524
0.03164379542227835
0.030421884395182133
0.028785650343634187
0.028195385923609137
0.028038537395186722
0.027615708485245704
0.027225179173983635
0.0268221282819286
0.026714092241600155
0.027064280826598407
0.02736814279574901
0.027509227059781552
0.027443330916576088
0.0276273426739499
0.027784142373129726
0.02766084121540189
0.027298156921751797
0.027087969644926487
0.02711312257219106
0.02705940867308527
0.026652395236305894
0.02663347840309143
0.026899292655289172
0.027338254358619453
0.028172395965084432
0.028351663718931375
0.02809067890048027
0.02834006763994694
0.02837624547071755
0.028424248052760958
0.028309019431471825
0.028147316575050353
0.027607532097026707
0.027357665873132646
0.027151837409473956
0.02691925536375493
0.026909749102778734
0.02707003249321133
0.02698268053587526
0.027099121306091548
0.027737592901103197
0.028060318338684737
0.028194162528961897
0.02844461826141924
0.02849810534156859
0.028876358442939818
0.02936376034747809
0.029382153977639974
0.029278165721334518
0.02927238735370338
0.02921431030612439
0.029155876613222064
0.029199703196063638
0.029100520797073842
0.02868886588141322
0.02830547281075269
0.02804780509788543
0.02816000164952129
0.028407733282074334
0.027908892957493662
0.02800331789534539
0.028905739770270885
0.029111573970876634
0.029146708738990126
0.029522035196423532
0.029950423412956298
0.030032978653907777
0.02975962002761662
0.029673933889716862
0.029988933322019875
0.030190764446742832
0.030860333275049924
0.030667070685885846
0.030188508527353407
0.029991788812913
0.029875205610878766
0.029990582037717105
0.02996595759410411
0.030099515346810223
0.030086873434484004
0.030375189245678485
0.030583223076537252
0.030845263530500232
0.030344015741720794
0.029820882645435632
0.029731984022073447
0.029999764398671688
0.029915369604714213
0.029854206293821337
0.029733303897082806
0.02990414431784302
0.030249740998260676
0.030700517008081078
0.03139756998512894
0.032146988026797774
0.03236878181342036
0.03257073225453496
0.03299180795904249
0.03306644740514457
0.033488144683651626
0.03342330445535481
0.03308303369674832
0.03312122243922204
0.03305413986556232
0.033718917132355274
0.034662292473949495
0.03495650763623417
0.035211435649544
0.035496524348855016
0.035449656010605395
0.035462699672207235
0.03583579302765429
0.036254363832995296
0.03617916509043426
0.035895722983404994
0.03566092235967517
0.03582106718793512
0.035913380645215515
0.03591819122433662
0.03579101756680757
0.035785575825721026
0.03581478766631335
0.035776063520461324
0.035232629599049686
0.034246111381798984
0.03398976326920092
0.03397104269359261
0.03397961855866015
0.03479490184690803
0.03504091203212738
0.03494496346451342
0.03488697292283177
0.035046453839167956
0.035058734975755214
0.03516100773587823
0.035365313817746935
0.035281524872407315
0.03511558875441551
0.03517289590090513
0.03536475394852459
0.035275234980508684
0.035025042537599804
0.03493963125161827
0.03424384226091206
0.03348261159844697
0.03314933926798403
0.03327540166210383
0.03339194597210735
0.033721475102938714
0.0343404624145478
0.034853577655740084
0.034767702827230094
0.035547657031565906
0.03642902963329107
0.037016574796289205
0.037085794969461856
0.03722687928006053
0.03746783664915711
0.03748801441397518
0.037766970917582514
0.03745181799866259
0.03684620577376336
0.03623502228409052
0.03583080071955919
0.035551110105589034
0.03555042413529009
0.03569753357674926
0.035733431563712656
0.03555288077332079
0.035086898682639006
0.03441648384090513
0.03413496984634548
0.034653148245997724
0.034877766775898635
0.03447384148370475
0.03445245522074401
0.03437830968294293
0.034261021162383255
0.034203720237128435
0.03459554022178054
0.034592151362448934
0.03414654175750911
0.033808418666012585
0.033978268527425824
0.033867735010571776
0.03377081460785121
0.03392178730573505
0.034285300709307194
0.0343436521012336
0.03455052785109729
0.0345492778532207
0.033974299808032814
0.033909317175857726
0.03401990072336048
0.03357527221553028
0.03323719229549169
0.033302325569093225
0.033325524204410616
0.0342295702919364
0.03494416643865406
0.035029696864075956
0.03570698489900678
0.03616225328762084
0.036296237711794674
0.03599779599346221
0.03595383850391954
0.03657397914677858
0.03696361450012773
0.03686152475886047
0.036692686295136806
0.03684501852840185
0.036833401042968034
0.036597096910700205
0.0365089612128213
0.03653281102422625
0.03652567848097533
0.03662428017240018
0.03694296722766012
0.03723991740029305
0.03768264210782945
0.03815173046197742
0.03794472489506006
0.037987168370746074
0.0380473745521158
0.03809123093727976
0.0378593989694491
0.03793105278164148
0.037951016533188525
0.03716057282872498
0.03665650827344507
0.03671133177354932
0.036818109122104946
0.03686060986481607
0.03672401214484125
0.03687829269096255
0.037194584454409776
0.037601964161731304
0.03747657990083098
0.03728540469892323
0.03692608223296702
0.03652391392737627
0.0365582552133128
0.03673462110571563
0.03687117094174028
0.037014959771186115
0.037203647452406584
0.037106483657844365
0.03699804381467402
0.036988708483986554
0.03670690654311329
0.036270118160173295
0.036399157382547856
0.035951602086424825
0.03517213989980519
0.03458367176819593
0.034799536247737704
0.03509175712242722
0.035100605958141386
0.03484356296714395
0.03473799910396338
0.03489499089773744
0.03495605494361371
0.035214918623678385
0.035442160572856665
0.03533098847139627
0.03486578196752817
0.03463440801482648
0.03471108237747103
0.03470509999897331
0.034661332811228934
0.03444480150938034
0.03394964253064245
0.033417668780311945
0.033058159896172584
0.033212230885401366
0.03328471538610756
0.033144568591378626
0.03376334396656602
0.03455979640129954
0.03484784645959735
0.034816853469237685
0.03485534279141575
0.0348663523606956
0.03490849005524069
0.03529947421047837
0.03574392576236278
0.035957366414368155
0.036026728986762464
0.03625099557451904
0.035974344285205004
0.03558936699759215
0.03567605546675622
0.0354063627962023
0.03490095676388592
0.03460759238805622
0.03448770663700998
0.034230825509876016
0.034103327980265025
0.03331697689834982
0.03243007478304207
0.032596866693347694
0.032041458203457295
0.031803039819933474
0.03241790992207825
0.03289869983680546
0.032607999830506745
0.031859903326258064
0.031188240223564208
0.03097542439121753
0.03115468162111938
0.030950065730139614
0.03062840299680829
0.030657335012219847
0.031002404033206404
0.031174316676333545
0.0312634467985481
0.03142542730085552
0.03184759770985693
0.03228029333520681
0.031821422330103814
0.032486299998126925
0.033348208907991644
0.033165719965472816
0.03319610049948096
0.03336253740824759
0.03354791339952499
0.033548395172692834
0.0335527508193627
0.033427485302090644
0.03368434635922313
0.03402206226252019
0.034157941662706436
0.03419241033960134
0.03459121988154948
0.03488456290680915
0.03496719307731837
0.03499850161839277
0.03516253663226962
0.03518557508010417
0.035223041707649824
0.03524007280357182
0.03515855452977121
0.03507248737849295
0.03509844646323472
0.03504032014403492
0.03464435786940157
0.03418931399937719
0.033917664592154326
0.03356480486690998
0.03323050578124821
0.03337160488590598
0.03369949370156974
0.0335746818035841
0.033426479110494255
0.03355289073195308
0.033326624985784294
0.03299960541073233
0.032675020350143316
0.03289830590132624
0.032983264946378765
0.032587063615210354
0.03262423329055309
0.032667981162667274
0.032507861843332646
0.03253837095107883
0.03290076799225062
0.03312669886741787
0.032941006161272525
0.033055727668106556
0.03323525581508875
0.0334641120582819
0.03424836676102132
0.03509789275471121
0.03559044988825917
0.03538160088006407
0.034915821445174515
0.035220078555867076
0.03495287373661995
0.03412192496471107
0.03365646230522543
0.033677731924690306
0.03403831321746111
0.03462260010652244
0.03481584869790822
0.03412258256226778
0.03364815404638648
0.0335895037278533
0.0339016186632216
0.034281876841560005
0.03452464352361858
0.03456392767839134
0.03477536993101239
0.034969456242397425
0.03474217420909554
0.0347283754684031
0.0348533336725086
0.034852996710687874
0.03469819471705705
0.03457856544759125
0.03434653033968061
0.033952078325673936
0.03388354314491153
0.03361484637018293
0.03321334006264806
0.03277517817914486
0.03210317409131676
0.03269263547379524
0.03383274203632027
0.034238389129750434
0.03420168555341661
0.03402169901877641
0.034289298299700025
0.03435386068653315
0.034347788440063594
0.034606849416159095
0.03448845609556884
0.034029875965788964
0.03342441339045763
0.03294392582029104
0.03287052250932902
0.03191893632523715
0.03105539922602475
0.031198427155613898
0.03115575504489243
0.030938212955370546
0.031021935460157694
0.031235264278948308
0.031256208503618835
0.03141563703306019
0.03101085405331105
0.030773996314965187
0.031043870695866643
0.03126927764620632
0.03087505465839058
0.030334241036325694
0.030052629383280873
0.030206334851682184
0.03049905123654753
0.030665851426310838
0.03059792337473482
0.030559508665464818
0.03077330572064966
0.030834616501815616
0.030684968647547065
0.03072973757516593
0.030666155680082737
0.030414752773940564
0.030366672826930882
0.030795942139811815
0.03115437458269298
0.03103177815210074
0.03131937299855053
0.031541340788826346
0.03159412186127156
0.031739588673226536
0.03171271044760943
0.03197563569061458
0.03216617268510163
0.03189542540814728
0.03163687042891979
0.03157456707209349
0.03119857155252248
0.03086098632775247
0.030763336499221625
0.03092119597364217
0.03091629907488823
0.03078448712825775
0.03096580657642335
0.03105352187529206
0.031065930696204305
0.030851007779128848
0.030067724674008787
0.02895529706031084
0.028470987686887383
0.02876025835517794
0.029003252270631493
0.028704130491241812
0.028463954641483723
0.028422554498538376
0.028369849151931702
0.028204507529735565
0.027582134371623396
0.027058130470104514
0.02687493701465428
0.026975354924798012
0.02673276064917445
0.026443577869795263
0.026086288378573953
0.025628907145000993
0.025382584799081086
0.025533973947167398
0.02562846922315657
0.025695910155773164
0.025995144406333565
0.026096458551473915
0.026019631410017608
0.026031734040006995
0.02583717240486294
0.026135993753559888
0.02659557051025331
0.026660185591317713
0.026861775401048362
0.02697779973503202
0.026680841967463495
0.02660642497241497
0.027231213189661502
0.02689877646975219
0.025773845869116484
0.025505830589681863
0.025245475769042968
0.025625898083671928
0.025712159401737152
0.025463609262369572
0.02536254411097616
0.025201111626811327
0.025430675609968603
0.025372281190939247
0.025402047499082984
0.025145577946677804
0.025459034806117414
0.02545418000780046
0.025946900281123817
0.026618436854332687
0.02715489165857434
0.027465533330105246
0.027292956444434822
0.026957104904577135
0.026602438311092557
0.026447128830477597
0.02652540761511773
0.02663892517797649
0.02668107361998409
0.026700705667026342
0.02674789515323937
0.027212793277576565
0.027409105435945092
0.027171448958106338
0.026971682365983726
0.026940329195931555
0.026968254973180592
0.027016261611133813
0.027012936905957758
0.02691403541713953
0.02685898093972355
0.026786542660556734
0.026773538757115602
0.026903841057792307
0.02675120336934924
0.026617003912106155
0.026538515966385602
0.026300354227423668
0.025806101257912814
0.025565701005980372
0.025429246467538177
0.025355350407771766
0.02555280431173742
0.025448349523358046
0.02533363465219736
0.025166069734841586
0.025306880953721703
0.025531298709101976
0.025529537890106438
0.025704108062200248
0.02600505230482668
0.026034221164882184
0.025898269722238184
0.02575846763793379
0.025624494631774724
0.025530199483036996
0.025741511769592763
0.02646199645008892
0.027110683638602494
0.027139180321246386
0.02779618819244206
0.028308914597146212
0.02850375014357269
0.029155414337292313
0.029921972616575657
0.030250509334728122
0.030217119865119456
0.029982288852334022
0.029932989585213364
0.02976964828092605
0.029569099307991564
0.029716400587931277
0.030217200908809902
0.030547946663573383
0.03043207337614149
0.030202631033025683
0.030169471548870206
0.030041243713349104
0.029761739913374184
0.02932034424506128
0.029312561103142797
0.029286975958384573
0.0295174473663792
0.029856560323387384
0.029854625849984585
0.029830690450035037
0.029399452204816042
0.029736389173194766
0.0301000502333045
0.030407977220602334
0.03043813767377287
0.03023906730581075
0.029805339463055133
0.029419153053313492
0.029536947002634407
0.029540896252728998
0.030266868756152688
0.030597118604928256
0.030523149487562476
0.030786352003924548
0.031702746520750225
0.032799044917337594
0.033451325315982106
0.03360544401220977
0.033728860188275575
0.03430128995329142
0.03448654499370605
0.03432926216162741
0.03445033215917647
0.03394353432115167
0.03334237173665315
0.033506799219176174
0.033409217563457785
0.033544979584403334
0.03353682481683791
0.03366414067335427
0.033572032931260765
0.033379442472942174
0.03299928535707295
0.03278188195079565
0.0329569286853075
0.03248346615582705
0.03194271460175514
0.03180196722503752
0.0318999085156247
0.0317686979426071
0.03189188338350504
0.03192429563961923
0.03172927528154105
0.031776907686144114
0.03204679992981255
0.0323019443359226
0.032957865223288536
0.03396146196871996
0.03470346464309841
0.034463461027480664
0.03433219668921083
0.034719601599499585
0.03491110612638295
0.034926505046896636
0.03568315265700221
0.03611944670788944
0.03619875892996788
0.03606149116065353
0.03590610556770116
0.036025022147223355
0.03583219085354358
0.03602589898277074
0.03644462255761027
0.036323656928725544
0.0360033915610984
0.035815505445934835
0.03564273756928742
0.0356312936078757
0.03559702099300921
0.03570913922041655
0.035804702676832674
0.03559541948605329
0.03529014349449426
0.03558498084545136
0.03497131838928908
0.034356593880802394
0.034384119235910476
0.03417912218254059
0.03329005863983184
0.033285986110568044
0.03360005341935903
0.034123723777011034
0.03505104672163725
0.03611678503919393
0.03682802298106253
0.03656294154468924
0.03671905814670026
0.037220254386775196
0.0379786633187905
0.038746109688654544
0.03914594544097781
0.039213250023312864
0.039150518984533846
0.03913262498099357
0.038970252145081756
0.03873893830925226
0.03894668800756335
0.03892906909342855
0.03893783891573548
0.03874644394032657
0.038799108690582215
0.038532730224542316
0.03800951659679413
0.03771167691797018
0.03761443101335317
0.03745995584875345
0.03727159427478909
0.03727304745931179
0.03730447574518621
0.03723615614697337
0.03659053901676088
0.035844966531731186
0.035796991582028564
0.03619208171032369
0.035747860870324076
0.03478526109363884
0.03389730529859662
0.03392565554939211
0.03359066155273467
0.032925432333722714
0.03263708013575524
0.03286881509236991
0.032292695795185865
0.032113304371014235
0.032143877032212914
0.03176956960000098
0.03196945599745959
0.0322742186486721
0.033190522473305464
0.033983831275254485
0.034206196004524826
0.03452128350734711
0.03470763848628849
0.03462370089720935
0.03480570651125163
0.03480279624462128
0.03536365832202137
0.0357007506582886
0.03540244322270155
0.03582048133481294
0.03623501912225038
0.03621718726586551
0.03637999668717384
0.036138415881432594
0.036286362814717
0.03626039554364979
0.035432991930283604
0.03427115887403488
0.033848276883363726
0.03390165723860264
0.03417208786122501
0.034740607663989065
0.03496807718649506
0.034805012405849996
0.034563008435070514
0.03470709745306522
0.03487918958067894
0.03473509121220559
0.03493536242749542
0.03525188642088324
0.035614323816262186
0.035360054131597284
0.035925234700553116
0.03702023023739457
0.037383250505663455
0.03770336491987109
0.03799683297984302
0.038135289130732414
0.03854377739597112
0.03877023321110755
0.038866624748334286
0.03847747732419521
0.038442669315263626
0.03844426057767123
0.03830566896591336
0.038157158563844856
0.037784225028008225
0.0373399722436443
0.03731662421952933
0.037301019178703425
0.03735865641385317
0.03675667252857238
0.03644781218841672
0.03611726853530854
0.035990343312732875
0.03662316306028515
0.03640913146547973
0.03555426495615393
0.0345623472565785
0.03378663604147732
0.033516650912351904
0.03362912941724062
0.03386415208224207
0.03384836980141699
0.03396454452071339
0.034674829957075416
0.034796966738067564
0.034612014079466465
0.03460208812728524
0.03447181702125818
0.03436694260686636
0.03426532085984945
0.03430191583931446
0.03423361886292696
0.03426991257350892
0.034265436232089996
0.03428544675000012
0.034558253907598556
0.03497825321741402
0.03501102809794247
0.035286084292456506
0.035742938788607716
0.035670261648483574
0.03503871685825288
0.034322240790352225
0.03394161074887961
0.03392602615524083
0.033954268489032984
0.03416207642760128
0.034357186681590976
0.03432688088621944
0.034219886073842645
0.03417135376483202
0.03406646130606532
0.03417189336847514
0.03448232436086982
0.03469279241282493
0.03443499943707138
0.03352139583323151
0.032861482524313035
0.03310296985786408
0.03292174145113677
0.03254355067387223
0.032514393837191166
0.032469772016629574
0.032698130873031916
0.032343918737024066
0.03231392757501453
0.033055607457645235
0.03314464594237507
0.03254551185760647
0.03260430088732392
0.03275287237484008
0.033121724887751045
0.0328927431628108
0.032804886843077835
0.03373634392861277
0.03503619507420808
0.035658089332282546
0.03559367002919316
0.03544160750228911
0.034755978053435686
0.03413755067624152
0.03420606290921569
0.03378784140571952
0.033091815072111785
0.0331816443381831
0.033890017750673
0.03373946002218872
0.033741915915161375
0.03418902816716582
0.03460763806011528
0.03382825202774256
0.03268706634175032
0.03236467163544148
0.03198068383615464
0.03188184549100697
0.03250941467471421
0.032919866642914714
0.03250710450578481
0.03230536580551416
0.03246048204600811
0.03200226416811347
0.031774554597213865
0.03197520051151514
