0.038185839120997114
0.0381456310627982
0.03805950853624381
0.03837078040698543
0.03872921607224271
0.038771188093814996
0.03910701713874005
0.03907871074276045
0.039086044240975754
0.03918585362378508
0.03909389849053696
0.0393108088162262
0.03944950938108377
0.03968362026615068
0.04015392383909784
0.04037642631912604
0.04053112391498871
0.040438959521707146
0.040657505332492294
0.04076925863162614
0.04063252101070248
0.04112004898139276
0.04101638549473137
0.04078492022119463
0.040708804696332666
0.04001655157539062
0.0395167900423985
0.039338154334109275
0.03950225921231322
0.03966527106007561
0.03965339916292578
0.03971025808132254
0.039738011023728176
0.03964954851195216
0.03959712242009118
0.039523991963360455
0.03940053029335104
0.039349203596357255
0.03938239637878724
0.039318816378945486
0.03938791234046221
0.03933267550542951
0.039556769744958725
0.03975918404641561
0.04002029548981227
0.04024729269440286
0.03995283983182162
0.040033856871305035
0.0403439180389978
0.04023421886959113
0.04025788877508603
0.040474755445029584
0.04048728557652794
0.04060679655754939
0.040554568571969866
0.04063595251645893
0.04068998711882159
0.040776755315018814
0.04092883201083168
0.04104734582942911
0.041172830326249826
0.04117694725631736
0.04126850964152254
0.041631764378398654
0.04187888115644455
0.04202091056737117
0.04158903251169249
0.04122538277530111
0.04143952845246531
0.04151711322716437
0.04150779898278415
0.0413050870411098
0.04129019341780804
0.04128733770223334
0.04136759467073716
0.04140000171260908
0.0413113933254499
0.041263505212264136
0.04113941685645841
0.04083730759215541
0.04076763663091697
0.0410418179363478
0.04076410575653426
0.04055488036829047
0.040763114985311405
0.04074049185379408
0.040833204746013506
0.0408382248331327
0.04059237788897008
0.04047829371527769
0.04044229504535906
0.04062852309667506
0.04083767768461257
0.040704276711912825
0.04068616579519585
0.04064825263572857
0.04052612988161854
0.040521196149056776
0.04024867609376088
0.03991483576246537
0.03979777586646378
0.03991310689598322
0.0398338748444803
0.03973859356134199
0.039700370287755506
0.039586042491719126
0.039777185627026486
0.04003948162891902
0.040123605662956835
0.04011759910150431
0.03986595358583145
0.03978506256360561
0.039555892393691464
0.039111043891170996
0.03875066531356424
0.038574992303038014
0.038575714795151726
0.0385838931822218
0.03876722496002913
0.03911042209714651
0.039199347607791424
0.03908037126762792
0.03913654979900457
0.039052082803100345
0.03900873757665977
0.038944927394622936
0.039228419365826994
0.03932426933199167
0.03907029733643867
0.039282468990422786
0.03968013584846631
0.03983725949656218
0.03998705807840452
0.039957043762551624
0.03980304879951291
0.03964718801318668
0.039454634799621996
0.03953784469515085
0.040029620326822626
0.040223980721784756
0.0405038326990325
0.040897857104428115
0.04083857870195061
0.04053302482003346
0.040444823272991925
0.04056914843968116
0.04062784183770418
0.04100011540809646
0.041208743971074
0.04078119845711626
0.040708226513816045
0.04105621902621351
0.041469536798540506
0.04124926916323602
0.04123453666223213
0.04145355804008432
0.041573226526379584
0.041788048474118114
0.04190795984468423
0.041798357429215685
0.04186018589651212
0.041811910673277455
0.04174308761605062
0.041731299586826934
0.041820073092821985
0.04177040548529476
0.04170114847482182
0.0415073160326574
0.041245559618109835
0.04102583328844048
0.040890395217575135
0.04077712268568576
0.04044911952223629
0.04025727590895258
0.04000709537998773
0.039538505660602824
0.0393818261672277
0.039624518019845706
0.03990335176349617
0.040048730566632
0.04024396620457992
0.03993253017775714
0.039629279501969
0.03964877775753848
0.039624694952508435
0.039715976451989266
0.039689575457014147
0.03984858341515064
0.03996998000424355
0.03996252864832059
0.03996508384821937
0.03990671057254076
0.03986360572860576
0.03985923282452859
0.03973487989162095
0.03967498036334291
0.03982434006407857
0.03983899220474996
0.039723565209424126
0.039747353042475876
0.03979050102410838
0.040169212348992005
0.04019246178679168
0.03962599409860559
0.03930652833194472
0.03923018139437772
0.038892596057849005
0.03874078103923239
0.038625880779
0.03864479642361403
0.03870424835360609
0.03849063053377904
0.038513049576431514
0.038488923626719046
0.03804451802512631
0.037711680282372984
0.037566094247158614
0.03750650304020382
0.037198984457645565
0.037095870390767234
0.03712278859806247
0.036769977966323496
0.036820714598288756
0.0371158114366699
0.03723734442377463
0.03723439364810474
0.03737374724703841
0.03768759338301606
0.03750341158709489
0.037198170563206075
0.03720716165960766
0.037146986310835926
0.037219886314123866
0.03740151804639027
0.03747694555553607
0.037561593466671185
0.03771215872024186
0.03784426038851962
0.03800056900829077
0.03794402239494957
0.0378505792201031
0.03800113193457946
0.03799384682439268
0.03772667294135317
0.03729464209638536
0.03693765345145948
0.03685939120594412
0.03653673420427367
0.036041571829700844
0.03595237290370278
0.035820389471482486
0.03553564480505884
0.03558855936047621
0.035421314223203805
0.03534542465349659
0.03526525794528425
0.035313316273968665
0.03538195027736947
0.035340129606192934
0.03525886196759529
0.03513324056752026
0.035163964650128034
0.03513973308261484
0.03468121815589256
0.03430073215276934
0.03420849581831135
0.0341887490125373
0.03407053153263405
0.03396662786719389
0.03406634809914976
0.034293947448022666
0.03422111141495407
0.034474653668003154
0.03502081915154122
0.03533376969746314
0.03550221724435687
0.03566507699084468
0.03558155360398814
0.03584084636997432
0.03585487986681983
0.035793484712485224
0.035806919002207
0.03572226484538987
0.03577234669588506
0.03563522034557536
0.03544149323366583
0.0352958342677448
0.035292976652272046
0.035509360403520984
0.03558084810036235
0.03572305603185669
0.035940530208172276
0.03596986008458771
0.03598853986477479
0.03591842537513003
0.036077412413433194
0.03630834866431542
0.036175138623220846
0.03607414172613062
0.03594636384164915
0.03577240006416105
0.03565420436905697
0.03577117462642491
0.03586744796717539
0.03582009834819473
0.035792525223223494
0.03571360194822773
0.03569204599945806
0.0359356334595941
0.036214124638354404
0.036171906699892134
0.0363127379398793
0.03649527072557248
0.03650016805855558
0.036542302697198464
0.036559961177408694
0.036622152879135686
0.036758424033178014
0.03664625427336432
0.03636498057050631
0.03636603350169025
0.036719929890241476
0.03701741307741031
0.03717700433800928
0.03725043364916928
0.03770322893396951
0.037972985641099515
0.03779083539731801
0.038065213214140386
0.03798172410111875
0.037666277965763585
0.037480673242826015
0.037507106349803504
0.03759393188403919
0.03760251406696625
0.03767600753810257
0.03762170196278021
0.037025625063106415
0.03628862862708047
0.036163273841375486
0.035895036635920405
0.03548602892667987
0.03539432924007997
0.03531422381172888
0.03506224233773537
0.03500061510247179
0.03479156563640572
0.03463469163631089
0.034569579930976035
0.03471656604087912
0.0343892436043825
0.03385311751626432
0.03345516467350535
0.033610944217070934
0.03353265603305772
0.03333686900674365
0.03302589551662095
0.03268611421692185
0.03241672853357159
0.03234607786987908
0.032492960350355135
0.03258178810821846
0.03261743093375116
0.0325570873322431
0.032508117720717565
0.03273601548047736
0.032872544440906495
0.03291478337487206
0.03289685657713562
0.0328364425082691
0.03299255998339504
0.03321348237455823
0.03322186885634437
0.033365420042537154
0.033691860385006295
0.03397398522589356
0.03411939181038179
0.033903478594729676
0.03393648855970241
0.034062171337427574
0.034103470696136354
0.034133532495470714
0.03414084853371605
0.03437359251896851
0.03483918984769843
0.035049090493703264
0.03503775113262236
0.034884620590601115
0.034529860763577745
0.03450874756439589
0.03436624705325812
0.03411078581120819
0.034071227667154744
0.03401653314009309
0.03404586019925773
0.03409386578248814
0.0339943670714274
0.03390154017484747
0.03399388747755438
0.03411375540541485
0.033966975783696396
0.033610494510503484
0.033298858458874744
0.03327720786095597
0.03304080098983832
0.03326309749973007
0.03334828711231239
0.03337017823010683
0.03337052029906772
0.03337844481109641
0.03358514042105526
0.033833396220579744
0.033787064362550155
0.03351860802969895
0.033373337225057184
0.033398121636128056
0.03343354941927828
0.03350112429470755
0.03335298255900852
0.03302460218663327
0.03288509105681442
0.03281170808942988
0.03254434146801941
0.0322238285955973
0.03210129503859207
0.03218381146900356
0.0319214474002365
0.03166784942382947
0.031704075486632066
0.03174677106901072
0.03169309395365417
0.03174152578460052
0.03162049444392324
0.03149987331358716
0.03150555309024639
0.03143127872142941
0.031221587301697582
0.030972631429322064
0.030866483113495633
0.031089729291852563
0.03128910358878784
0.0311623699858319
0.031004930696217344
0.030911064337706195
0.031119314272655175
0.031358646317385136
0.031652231853222475
0.03194412651588209
0.03201255534775555
0.0320430500630755
0.032135463057784364
0.03216972338152118
0.03212988932733424
0.03218856616527774
0.03225313985371031
0.03236206305562519
0.032555293629411605
0.03252982920734212
0.03267561906250194
0.033018743697321044
0.03303546175477095
0.033018364574527365
0.03297027367167175
0.033031008981633934
0.03331075279274955
0.03369658514740877
0.03382313263369724
0.03391448344453238
0.033945133013185115
0.03372240369906649
0.03348833551048301
0.03346777696278878
0.03314781613764353
0.032629131318535655
0.032127351930830626
0.0317494991782587
0.031540164140751586
0.0316114997875411
0.031483815704705195
0.031760072885081175
0.032108096370939164
0.03226212386391126
0.03239655827987008
0.032384485279908407
0.03266285638557747
0.03299540212727152
0.03300089351949282
0.03304901269613765
0.03304304045275785
0.032946285918587816
0.03327199355931953
0.03342227942775935
0.03334020902984776
0.03353180735837668
0.033801395579939705
0.03371452053426765
0.03357309932122007
0.03366041167173535
0.03361578079056926
0.03363081131130457
0.03369942268007435
0.03365383955300785
0.03368639421882108
0.033841134615940974
0.03398638935526833
0.03414557877462357
0.03453478736220859
0.034675415301462634
0.03443900006939657
0.034199131603818385
0.03421790067339316
0.03402201041113585
0.0339198384154588
0.034088729302166026
0.03414124821894802
0.034369028743822125
0.03463195106829517
0.03467305814498104
0.03457017782726325
0.03451647095847875
0.03437491754302755
0.03417170879431069
0.033984974689083174
0.03385299209388904
0.03384695186396129
0.033603403372690084
0.03333194750244729
0.033436493455665184
0.03322453476022929
0.033053944240091365
0.033089072164148095
0.032957864064956086
0.032723618180025366
0.03271470539737493
0.032870082322042436
0.032914586900733414
0.032820571332704274
0.032801508706761524
0.03277924161870033
0.03265355368028395
0.032562354935798794
0.032568224089918656
0.032560878130607304
0.03266419860068709
0.03279496518545784
0.032740972362225874
0.03305802821065299
0.03333264835877344
0.033255336044821886
0.03328043984132819
0.03338806255836971
0.03333991924882866
0.03333799211657606
0.033243027224671096
0.03321270965272561
0.03322412895853631
0.03326201442279853
0.03327683881041594
0.03355543702607974
0.033827045088401064
0.033678612675284963
0.033811316377250475
0.03390984058845788
0.03387198181939311
0.033970469352789225
0.033743412257172166
0.03352523456444032
0.03354510470177047
0.0335895743558649
0.03358140316326171
0.033686896183062344
0.03369959564763121
0.03378149924566969
0.03361317542963661
0.03331335357856005
0.03300474526942707
0.03299712913692929
0.033191532124765215
0.032916829644236714
0.032487856631632894
0.03231894778902642
0.03239912249031476
0.032391097085783256
0.03205079850042239
0.03159505815478042
0.03126958106295206
0.0312377468124032
0.031360736258793626
0.03162260201061144
0.03163657503551803
0.03171124693821184
0.03190200320561416
0.031914891670458016
0.03200098527944647
0.03218382140970789
0.032396711772307754
0.03263690774794668
0.032816627310821786
0.03278067729785107
0.03281560990028083
0.03334131012787111
0.03375747415004298
0.03377195445355028
0.03409939308883622
0.03447638094425201
0.03431929052341729
0.034206348024308685
0.034356298306956884
0.034350979359587655
0.03442723195883445
0.03437649146071635
0.03412837448529899
0.03415418130927719
0.034371409005252644
0.034640069487504664
0.035001295923721046
0.03517490191152319
0.03511188142583706
0.03532195168663747
0.03567920493427664
0.0362444871943444
0.03696069389814511
0.03723070360720158
0.03774587549385615
0.038258716190466655
0.038182181562297045
0.038301685920450836
0.03860569142154418
0.03889367340598256
0.038816683363402264
0.03874240280594677
0.0387078001757618
0.03890216599334963
0.039102086486527694
0.03916403125971556
0.03914454258047044
0.039259218242950734
0.03928881649393588
0.0392655964079313
0.03914048967184499
0.03909892608062364
0.039289417422842234
0.039310016498202455
0.03936278684879653
0.03921401208499446
0.0390789269504603
0.03893796387943439
0.03862871501361951
0.03870052339392714
0.038724921202519906
0.03852484080940485
0.03857341835275292
0.038713820732664314
0.03871506358962506
0.03867149471188895
0.03855661735869944
0.03834757186239585
0.03834976342041045
0.03807009616401046
0.037718876299913974
0.03767135509522632
0.03782696878071874
0.03797027766355313
0.03789707355434075
0.03758296570624225
0.03715991909150034
0.03707322748377919
0.03695294218719937
0.036752555908169594
0.036621995283057915
0.036677497004857285
0.036749547477811575
0.036759931383421644
0.03704794122255407
0.03736683182651177
0.037471296858275306
0.037887811654945834
0.03836114902980626
0.03861766202840954
0.03829755829996429
0.03789203897467815
0.03744561848696321
0.037570053949020805
0.03761638035881333
0.037298025947529824
0.03707917429623194
0.037196106011979285
0.0369415128743276
0.036802092815050855
0.03680799164809287
0.03632964094518684
0.03581507471972145
0.035770090415608136
0.035640167478704826
0.03527423033374362
0.03506625375710428
0.034977617147378626
0.034962279907194894
0.035059635024517775
0.03516845576232299
0.03526826342451386
0.03537505331565626
0.03522279200027697
0.03497321728966199
0.03475243075983599
0.03477385747013614
0.03432664096471853
0.033896526721073315
0.03368799505522475
0.03372458618949167
0.033943236810155215
0.03413837395259179
0.034163913081865754
0.03404373587225564
0.03405240854015574
0.03382201375090517
0.0334828217944596
0.03329558754572645
0.03355526996194385
0.033549216288374734
0.033997262311168015
0.03434569153585471
0.03418980660266243
0.03458704210352152
0.03477142689749599
0.034604065695311874
0.03441693459870294
0.03440292163519189
0.03436660712352022
0.03428080145735293
0.034136790182674306
0.03412961670430377
0.034059957871213555
0.0340781704953406
0.034079157548258084
0.03405931972432882
0.03436646181042306
0.03461924434872344
0.03466359042213298
0.03468173347529955
0.034711017146473754
0.03476598323555663
0.034850492069963365
0.034722912654979156
0.03477494141319767
0.03527142401202582
0.035512413152027876
0.035145505990367386
0.035096147116273645
0.03517190899467096
0.035227594587486234
0.03556101003894582
0.035780483064008876
0.03577319795964286
0.035802819069940595
0.03592816373100504
0.036282091410830615
0.0366735236463137
0.036586843290133404
0.036316463080002
0.03627261253888719
0.03618568717269227
0.03613167862407863
0.0362861478922423
0.03654195888084359
0.036575045762583615
0.0367992648424115
0.03671993902884424
0.0367397491808515
0.03691310517955571
0.03671309596044012
0.036781755161937324
0.03695816645980812
0.0370907915791031
0.037847671672934666
0.03853231879067607
0.038352692292537544
0.03854490002384409
0.03865077009657398
0.03867990519735031
0.03872602493967861
0.03872114963363856
0.03875423490651883
0.038924842189298946
0.03905979755101725
0.03918986509786919
0.03957925521768629
0.03968203063355759
0.03951702382415533
0.03964552658493631
0.039592723683454095
0.039919614797690885
0.040492848622379826
0.04060335813555867
0.04030806972878054
0.039986627582693474
0.039715313309570774
0.039696748675778507
0.039857762510655446
0.03970134320901707
0.03931830390705727
0.038990456698229536
0.039136833280790595
0.03878424087539315
0.03847015005652793
0.03840279364725575
0.03835079125827178
0.038246704440098256
0.03833424484939314
0.03808630247367546
0.03784887690213509
0.037886798904510216
0.03791358098620549
0.03768628865480423
0.0373730909684673
0.03702795159886591
0.03682024831301533
0.03703256131731905
0.03707134732743725
0.03676744760246947
0.03624048949801363
0.035509968928527084
0.035225111162289977
0.034865058461437004
0.03444477952201851
0.03448981480789371
0.03479542191955261
0.03487396407057531
0.03451599426451139
0.03445889833034016
0.034527325489325446
0.03449845381896011
0.03453344610636123
0.03439801975735463
0.034462689994834365
0.03477516065700911
0.03463636506465264
0.03471346349455416
0.03472352528711781
0.034961710892384874
0.035129374957177786
0.03497769185691141
0.0350651711365208
0.03513548584887758
0.035074607643764466
0.035039908782346176
0.03499234323040582
0.0350106898334343
0.03478135740733705
0.03463568531093188
0.03468874319223687
0.034718897209968416
0.034607787352288144
0.0345138781145215
0.034450599139090626
0.03459200646844693
0.03457823287928477
0.03456171289784834
0.03494098970666528
0.035273483186028895
0.03526639364194125
0.03524281489429995
0.035135712530463936
0.03539527069893666
0.03592062411364168
0.03627566509298049
0.03630355269415304
0.03626295672496781
0.03631213687476702
0.036464188679819924
0.03656823723576963
0.03682411069632508
0.0371149262029212
0.036969411231111735
0.03672151697333902
0.03670758729800582
0.03617591724731028
0.03573317450354807
0.03536699420539662
0.03571212599985302
0.03618938366882503
0.03659002208733
0.03643457080470398
0.03634029070963152
0.03650393130723387
0.03645397809217684
0.036370134808821605
0.036394239630317314
0.03639267563470639
0.03653676277259365
0.03655050584697164
0.03674473139224574
0.036849953208584335
0.036761180453468115
0.03685925841564312
0.03689257364720106
0.03688014688203111
0.03681327083380893
0.036622978671221065
0.036532201372319835
0.03659780417336151
0.03667042372166179
0.036710487093077976
0.036616410004207865
0.03665067164460197
0.036608812211779876
0.03665661274222657
0.03671301270835101
0.03671273708459921
0.03669211583212018
0.036609098734334114
0.03658085134811699
0.036754645310575144
0.036950307318475095
0.03690654483740218
0.03699909627204761
0.037032373927067964
0.036994922877056524
0.03687526853289455
0.037010445384075864
0.03652201707591303
0.03613137354259379
0.03627121233032085
0.035979458673391494
0.035705614030594
0.03566943468991667
0.03562332884292118
0.035474223736673596
0.035636856488417835
0.036083990483311935
0.03657539226580411
0.0368804116290994
0.03713553813286126
0.03711241574725136
0.03699348134920001
0.036917847021250054
0.036783408755436536
0.036906419538427146
0.03713793902657926
0.03711899072979577
0.037335779562126845
0.03757556663942523
0.03758537678862922
0.03752032271819189
0.03735440251068212
0.03687846755143255
0.03628942467388697
0.03626471679657697
0.036327500813640654
0.036242246899055315
0.03601411830051802
0.03573258594609797
0.03573920713854022
0.035844964776188135
0.03580124993924983
0.03577052982058376
0.03546207432518713
0.035375441337237135
0.035568136444780976
0.03583693931461312
0.035952530672075225
0.035972011490957814
0.03609766083071008
0.03593825321877375
0.03556750652729534
0.03555180444382131
0.03530616274569184
0.03520679901819676
0.03511536472360603
0.03512597324908711
0.035289393161656336
0.03515945298131555
0.03508539432310499
0.035043176083127035
0.03433823967468925
0.033811520205345
0.0339082526229322
0.033681731526739894
0.03396128140040673
0.03447508177021518
0.03442680138512515
0.03491372532327659
0.03582115275901742
0.036174524199450386
0.03603810546454042
0.03594889092375524
0.03587153083994053
0.03570279230596498
0.035894367295550185
0.03595442552119493
0.03585166038246825
0.03553191801416688
0.03521719198441133
0.035093078571371734
0.03512502432102337
0.035088490111520515
0.03514268125873059
0.03504447014536709
0.03512851914041676
0.035336135973921046
0.03520087899174541
0.0350569880194962
0.03495995927485637
0.034934014822356405
0.035011667802464216
0.03515035579097457
0.035200101393274966
0.03514764890191145
0.03512945385882631
0.0352915439917706
0.035359241100959476
0.035280240217689426
0.03510926930815913
0.035123408996732906
0.03512135226512328
0.03506910491734743
0.035028783831512554
0.034802182343555615
0.03454145940602757
0.03451545171556063
0.03457631901954301
0.03471142413443886
0.03479885262437165
0.03464366853004321
0.03440234512789175
0.03436670861905441
0.03392834509722888
0.03358433279790916
0.0336040874349419
0.03358611685107462
0.033756519053131345
0.034383284752257166
0.034594859544886274
0.03472036810941063
0.03521599866449833
0.03530895901261829
0.03532335974392481
0.03531430645729415
0.0353633315989282
0.03524352883105166
0.035244142279261724
0.035368861125316474
0.03520251316367649
0.035028803471941504
0.03506736313458532
0.0350034960906487
0.034969440430868415
0.034938304228708146
0.0350869296467863
0.035147052933461966
0.03507820903556422
0.03496405045501888
0.03504131316207349
0.03525496012531221
0.03557969087618403
0.03561265501775779
0.035528709165519104
0.035399656197987496
0.03516133971046656
0.034946182306157425
0.034935622345656156
0.03481693505658768
0.03500157637055963
0.03499353059800342
0.034455852854298426
0.03441659056465141
0.034701680077705535
0.034803066260647025
0.03490216300357133
0.03509752521757036
0.035169556469190864
0.03484897066606209
0.034703828709898514
0.0349016680708155
0.035052022355375814
0.03489976314478554
0.03494402428506874
0.03496970700914972
0.03532344447216019
0.03534747701487504
0.03473582231788896
0.03506645083078183
0.03585503797628917
0.03615779412444681
0.03598001735750586
0.03605519587057643
0.03604114865651354
0.036148478864924984
0.03617155044223182
0.03599384202854708
0.03603775149211288
0.035896539617097004
0.03580727919586934
0.036066287046996874
0.03617624324979261
0.036141005469253286
0.036149693481856954
0.036181045329431075
0.03615611046552658
0.0361437535379082
0.03611429721233435
0.036138681248994546
0.03607519303332083
0.036280500658322126
0.03653101110248826
0.03661621923674829
0.036506665610941125
0.036527693114476276
0.036632296942407265
0.036562015992822126
0.03653943998971954
0.036348173605510965
0.03622571671381593
0.03613063170923851
0.03619100120617077
0.036135420599021015
0.0360342443943955
0.036069271395681425
0.03604499039007351
0.03619376337621361
0.03642143083619885
0.036338210572721436
0.03645063929143362
0.03658663330366835
0.036566500790650026
0.03698717132443562
0.03750228009652346
0.03764233131776564
0.0375528940896038
0.03721044795704074
0.03671823392971419
0.036562027372419835
0.036577634850982574
0.036647530647460375
0.03672890753718093
0.036701026416849344
0.03664657248882577
0.036421035804087294
0.03610295948456042
0.036332265998935326
0.03639042932889424
0.03628121094661765
0.036209391260053965
0.036457531747873875
0.03681813425500877
0.036766609468031675
0.037195053836330774
0.0375636090093758
0.03787935884553008
0.03840180916362442
0.03888560029678047
0.03897569834254682
0.03956532534095459
0.04008587958174758
0.04019136280519888
0.04011062687844969
0.04014599767047912
0.03992850431357511
0.03971472118282691
0.039579980282578614
0.039541693053906785
0.03938161660451442
0.039148295369232075
0.039067422099178656
0.03900251358980313
0.03894934507203288
0.03894488806719892
0.038947168958839026
0.03886013424838893
0.038680741537827995
0.03852384269121103
0.038359734254190696
0.038132828286616134
0.03803208674187772
0.03795400071889162
0.03794307441916317
0.03825312619097531
0.03871929734712467
0.0388616124750115
0.03846973349107429
0.03866828298778273
0.03851900375331752
0.038059680499136446
0.038110713768983256
0.038538017951650544
0.038617830213624985
0.03844506559893489
0.03858795345760882
0.038384780021151525
0.03827787173562683
0.038538781922543425
0.03837871309020557
0.03822511336184107
0.03848401497700252
0.03898591541568749
0.039566779114538805
0.039967231248738244
0.04014154374366626
0.03989676167839207
0.039745193336857484
0.03978921560221352
0.0398923374270089
0.04013603653293103
0.04019739825860597
0.04006153072114103
0.03998940562363714
0.040013942935038356
0.04006535902270116
0.0402036358776968
0.04028555144555867
0.04036527691176161
0.04052738035097718
0.040676067399326714
0.04066989422775805
0.04066853983560577
0.040746976233785974
0.04074028205592185
0.04084140459774062
0.04099218134768307
0.041061447203392165
0.040916552507551385
0.040802199211902916
0.04069502781843767
0.04070929868146777
0.04075027102720924
0.04075160561944358
0.040798071650788185
0.04069405269110575
0.040537262285361066
0.04069427610724233
0.04051149565260857
0.04028097579837777
0.04051208477700129
0.040606291648000475
0.03989030531025492
0.039499363214708864
0.03956739361979999
0.03943447116296738
0.0393613946728874
0.03916978196473792
0.03890841248794459
0.038856329190311956
0.03895048731123097
0.03903054745635018
0.03922949901199899
0.03935933713219129
0.0392949891590979
0.03927899515605532
0.03934325689333491
0.039436070676893
0.039438877357169985
0.03943107956089079
0.03938632317236625
0.03915937943966128
0.0390480454871431
0.03889927111682482
0.03903007053653709
0.03921299437992275
0.03917523662210442
0.03904326577088796
0.03905108666745946
0.038900923331966625
0.03877549448283389
0.03871152315638028
0.03879024358117022
0.03875935440184548
0.03846574494382367
0.03851738465251401
0.038483426894526926
0.03816090870066546
0.038093618953134865
0.03843998336466029
0.03863166966708377
0.03857708442141302
0.03844866101280786
0.03857019078102894
0.038768044020980594
0.03888235293561593
0.03858500889618881
0.038156984127126634
0.03822380971047096
0.03767159584793262
0.03707540798000991
0.03693424952449277
0.03692825959180482
0.03708398079033941
0.03738700470654294
0.03745606002863497
0.03735162867815234
0.0373232247622218
0.03735399668803439
0.0375076817756053
0.037629212718456984
0.037592804132727906
0.03754998488700949
0.03765434142085724
0.03763108739978634
0.037776296680094676
0.03803037961944938
0.03798552128486335
0.03785429891664535
0.03773797540343367
0.03777669603121467
0.03756005348870531
0.037330534616485236
0.03720732008107006
0.03735090569127351
0.0376573535380885
0.03775950078852475
0.03783219049684703
0.03771590693970211
0.03804285723017529
0.03811457671457902
0.037962901808787135
0.03793127548880875
0.037951179271331056
0.03820668097352609
0.038463454990414904
0.03838829096523114
0.03832990902825259
0.038328934010351076
0.03831513897981495
0.038038761370116844
0.03785900530405342
0.037875554392812774
0.037636104603298005
0.03719886921695434
0.03701977720600553
0.03689414052991197
0.03695560712832958
0.03721143879345618
0.037113163865869866
0.03696488146902993
0.03699900645879097
0.03712273460463621
0.03730029002646915
0.037145160485524686
0.03706136787426658
0.03719633588683791
0.03709825795609504
0.036943278996041044
0.036866352225188165
0.036757918691728265
0.03644798792432993
0.03617252416559495
0.03640394960297272
0.03619311985210515
0.03569139636820182
0.03516485975589603
0.034442462659208105
0.03395135720842518
0.03378602249315008
0.032948111444711686
0.032342855412280186
0.032237236046930774
0.03222908233758062
0.03223149357829243
0.03230044779018499
0.032526373121654614
0.032444119647843765
0.03252123397774995
0.03251711383694783
0.032771345503861085
0.03302100475411862
0.03302299848175608
0.03313382790540345
0.03321867275168188
0.033218023749068376
0.03328802940552123
0.0334342109633144
0.03362364142201841
0.03383773563429713
0.03401007860316895
0.033979222887428474
0.03424167077406309
0.034550658683292566
0.03449654374388047
0.03386359752854332
0.03349125461070798
0.03370763931190595
0.033669832891318946
0.03325521631515585
0.03277511271997355
0.0323995310429018
0.03220825637341477
0.03225579606252722
0.03218587743700482
0.03202127947355621
0.03198792290640995
0.031957194252172486
0.032156420184765014
0.032605441248742865
0.03252051402698271
0.032683329522842544
0.03292671174625866
0.03269273782963864
0.03243333440157585
0.032580557061592116
0.03270586355705746
0.03272183237713762
0.032945176588837055
0.033042429883498696
0.03291371277766302
0.032911133997840805
0.03301187069155276
0.032970963772386314
0.032955360595369715
0.03304035114357248
0.03299995973124169
0.03283008883707225
0.03280035399715416
0.03295293169445358
0.03296261089039035
0.033114930492592974
0.03342455107253045
0.033541178747545926
0.033561609387397766
0.03345701074111276
0.03340627518249675
0.033393322027986866
0.03350454489816911
0.033734822559636085
0.0339213844796177
0.033910138887586073
0.03397047152975574
0.034189253660151735
0.03430614775861614
0.03444614366395399
0.03466259784065187
0.034751480591949074
0.03489663504995406
0.03466991484398022
0.03407948357053101
0.033819617861881854
0.03410139081650414
0.03431440227432177
0.03428395813680254
0.034296802923781795
0.03431104900315404
0.034301316956989465
0.03423545298865065
0.03410624286159873
0.03403834481607191
0.034039153665071355
0.0338940202316735
0.03384424926829524
0.03393913277541287
0.033981878298800436
0.033814367067534476
0.033700995416147635
0.03380488068796694
0.034067726890789345
0.03404812840046361
0.03427679599728435
0.03442776511306875
0.03446094090584666
0.03457336135441438
0.03481393155176193
0.034887717141536996
0.034910205240594225
0.034907188080251214
0.035244942030403764
0.03526106128469109
0.0350681929779239
0.03503328656894155
0.03473490498843603
0.034676588519942014
0.03456422709627077
0.034635715027106925
0.03487472975743003
0.0347126238886267
0.03457592410151847
0.034490634877001866
0.03441884990199469
0.034461316126398744
0.03439180472283624
0.03419167951447889
0.03399647859390825
0.0339770400931593
0.03408677354454994
0.03405398459755816
0.03385487216874026
0.033616943365195766
0.033376084335613995
0.033399993284838274
0.03327755921287462
0.03313916010432877
0.033214589133858684
0.03338658494525589
0.03352685994817875
0.03354933258611709
0.03340795096126385
0.033210562742315236
0.03338831130415201
0.03362201346200891
0.03356441885465756
0.0336465468571987
0.03350315472227521
0.033322449781699105
0.033341175673995166
0.033271072214702144
0.033242662439588455
0.0332455276849214
0.03333511383854784
0.0333250825421419
0.03323692615842447
0.03306422033114359
0.03294000049703755
0.03332564741722308
0.03373762785224244
0.033821277446113525
0.03367825068649836
0.03358869649586268
0.03356110114138573
0.03352535685990006
0.03346983742667362
0.033208414112450554
0.032932043968467044
0.033010202550794926
0.03293203380308114
0.032820241230074314
0.032805327653186396
0.03299542055465281
0.033207299013156444
0.03329485689755529
0.03318344045197591
0.03341019714367576
0.03395061683375388
0.03425587898585945
0.03415684993029572
0.03413496817345731
0.034118298303801566
0.034027507330756636
0.03401175369042903
0.034138651888351884
0.03419885310577229
0.03422303647967055
0.034149309679633005
0.0341972086194437
0.0343584300216753
0.03434021781547927
0.03438514162320644
0.034684197455644605
0.03495442896848545
0.03495499782962724
0.03470385633641854
0.03453108574496582
0.034595062182052064
0.034697749669430775
0.034783774913521484
0.03477217735373415
0.03495313025428914
0.035224129082635044
0.03535622017574497
0.0353179977403488
0.03534336607321165
0.035356251285411415
0.03520463967113756
0.03494162180460989
0.03483267342438921
0.034676922018406914
0.034753743213368576
0.034583642148645594
0.0343519178184215
0.034490363056538624
0.034514846720267084
0.03450796838849783
0.03452635966357775
0.03460681625409052
0.03454784533008933
0.03429648866760544
0.0341124573443085
0.034185476546408605
0.03433226297609508
0.03413963617291302
0.03370421725558117
0.03369161310838535
0.03382470666547306
0.033849659553961825
0.03370555124944076
0.03368167697568424
0.03401922915945761
0.03411143049248494
0.033899649921804664
0.033685512072406706
0.033566346616717056
0.03349229466170073
0.03344270486850291
0.03340400720131584
0.033268166210036726
0.03287439162144437
0.03248360793222673
0.032402443835744636
0.032010188922286034
0.031395060615614055
0.031065767802065238
0.030921493837377058
0.03058963758056052
0.0304484189953655
0.030467262228485198
0.03045536665478721
0.03055291965836659
0.03061314412741922
0.030518057375447823
0.03071088691125624
0.031002305512083696
0.03108131590532139
0.030945514240302147
0.030769557883031665
0.030691367136314512
0.030626530196750535
0.03049444577191025
0.03052064908319153
0.030350722785806285
0.030071334906388074
0.02993443137151189
0.029973845770582555
0.030148164777783676
0.030182928103022276
0.030099613514030354
0.03000363919767551
0.02984238789533265
0.029858279505278914
0.030130892224842682
0.03046072760480456
0.03059888377203606
0.030494374016998334
0.03044883271912113
0.03031437999685295
0.03012568714795634
0.03000896595651284
0.029880207781679928
0.02978968826471828
0.029781834938330577
0.02964533208287321
0.029566592334304004
0.029485380868427457
0.02962635356001556
0.029675531967077406
0.030277848422992974
0.030748590191360562
0.03130988808232359
0.03267513292026706
0.03361688337754458
0.033609037778805945
0.033839274891652164
0.033936178343137724
0.03391449742135592
0.034157823236892
0.034814583620755
0.035414453534176576
0.03539290745393373
0.035327944675227624
0.03514878214336932
0.03490063240285963
0.03482365334755741
0.03462202082271688
0.03424291972769424
0.03421147761982866
0.03424236436141655
0.034274214261677115
0.03401400651084259
0.033864904904039574
0.03393014377797954
0.03398059681174345
0.034079857176402585
0.034175895450171086
0.03423330076853745
0.0340219685214106
0.03379384202649817
0.03380422753980383
0.033650917550548914
0.033374432505806906
0.033190621676621956
0.033156258513918145
0.03323742083623074
0.033288334896788
0.03327167119714432
0.033382967234356326
0.03349784133024514
0.033609784429427234
0.03365829222253524
0.033595636426471176
0.03357686209958047
0.03361854577786289
0.03354649776476435
0.03337663929327391
0.03313477543997578
0.03292721543344669
0.032822312797652554
0.03274707707343623
0.03275942240492441
0.03273172592394985
0.032320560228545216
0.031893654762534425
0.03178583771106787
0.031696719446917994
0.031631864254595715
0.031598804654786365
0.03158751360140741
0.031654140962054954
0.03165256541920826
0.031655677907401696
0.03167891456047073
0.03174862913438119
0.031830812958069145
0.03184418369666673
0.03155472175800242
0.030935082841897384
0.030488106842385607
0.030501366247190163
0.030410870427731426
0.03034259885782376
0.03046148962690495
0.030552231601905077
0.030634698652429505
0.03061818329966627
0.030758715175325052
0.030860763480886816
0.030810673425439746
0.030722563902381806
0.030727938298368826
0.030613701016409322
0.030322874308330937
0.030368271810002626
0.030336057915119456
0.030062858456512912
0.02956604235107079
0.029330555223859845
0.029422510311705993
0.02940283946460113
0.029516256479546428
0.029630571386078372
0.029487673040712252
0.029233747218968348
0.029181350766448302
0.029274166895775125
0.029260868962155656
0.029098899175878615
0.028799945072969423
0.02870268729282543
0.028582346229813992
0.02827628635102883
0.028019854857120663
0.027921762253390624
0.02791483778739348
0.027899761486332865
0.027845772937871514
0.02776360703865066
0.027738922592252493
0.02775530199171044
0.027636733623221516
0.027460066477069632
0.02735152965527959
0.027426685822429134
0.027449589745374398
0.02735770333558321
0.027535717628197745
0.027608541254885495
0.027804740178398787
0.028141177702927962
0.028508717990480364
0.028775752329966053
0.028966170026687905
0.02892620055237785
0.02884354277746752
0.028753185017267244
0.02880678196903318
0.028757086760597305
0.02872198443277739
0.02878602190874517
0.028752452720655127
0.028498771492158993
0.028396477072965352
0.028419124903157355
0.02853540256852284
0.02835132111562416
0.028328020041808486
0.028194726081565022
0.0280992300005164
0.027944950008532032
0.027519610587041825
0.027386753736063838
0.02747567636659369
0.02754400191246532
0.027579401886323466
0.02758051361190155
0.027546429687645285
0.027557468808954582
0.027617139220237733
0.02766061133123003
0.02757406551623717
0.02760598822613247
0.02745943933725357
0.027379339461913333
0.02760227132239379
0.027785699522355572
0.027967628507176413
0.02818026109249331
0.028314014405477792
0.02821008491097018
0.027898349836468696
0.027668494282988832
0.02766799611505121
0.027436055911239238
0.027175039952853693
0.027066131331957878
0.027110285109374674
0.027373080826364457
0.02773964083287865
0.027883302180562168
0.02779616661951877
0.027640181207098068
0.027634162353351713
0.027610224761301653
0.02759908007341437
0.02763479296816513
0.027622714715544134
0.02766890995320864
0.027788532903650777
0.027842252190457658
0.02770815877825953
0.027492084041005
0.027279569061938673
0.027056471396936104
0.026879481280921026
0.026907221040455623
0.02688074957812205
0.026859619265887886
0.026874645804055033
0.026928177543450147
0.027048177394317464
0.027140995021909475
0.027111462756292896
0.027026178969535977
0.026903156101470812
0.026949735122034326
0.026927255634218453
0.026989558466011657
0.026455084917834028
0.026032941188896076
0.025526719953631982
0.024154610382393003
0.02319358661188744
0.023239098044577987
0.02302801607758738
0.02288028927752748
0.02289886104175821
0.02278152133221738
0.022344567375257612
0.02194567495607771
0.02196063510607928
0.022185374308610336
0.022226973702199757
0.022113898902898655
0.022120066412026063
0.022233209958067164
0.022352311823051422
0.022292154935421422
0.022421109752031043
0.022508476437069477
0.022481622650520876
0.022437139624962583
0.022388868097914384
0.022279471796937286
0.02217097137356177
0.02204468023730442
0.02192293733358383
0.021899136976571754
0.021867189455078914
0.021838935485575348
0.02186088957474567
0.021975775167811663
0.022114694417687132
0.022099506591912357
0.022087219927925617
0.02225938795367256
0.022520593981025742
0.022505816904595122
0.022285382201662287
0.022388681393349544
0.022767419738229364
0.023138417272130028
0.02334701754967682
0.02340029942104593
0.023436110625043513
0.02346199862076901
0.023448035629699007
0.02346873278846033
0.023524941593641414
0.02364782983553596
0.02354110956308432
0.02360702842590399
0.023750153934815898
0.023828350402181966
0.023876296072266996
0.02392449582577683
0.024006607426563277
0.024094814095878974
0.02419833922991529
0.02426479646121152
0.024265728765167294
0.024235812035622074
0.024250773064559326
0.024283673643367365
0.024325141011504455
0.024371821200475097
0.02442553633940406
0.02468251541140489
0.02505575981689617
0.025429943109629677
0.025744485825998708
0.025949814738705754
0.025980628116521985
0.02586051404243335
0.025771936397068203
0.025802965599577874
0.025682496974477543
0.025487355317454784
0.025386861491715536
0.025358909564092754
0.025360504052368924
0.025277775576105343
0.02531193260801956
0.02519714391208254
0.025147044211626054
0.025085516199469568
0.025077216677600517
0.025022660660324617
0.02482505268533714
0.02457578526227735
0.024377709303516893
0.024271953001152723
0.024242243025219067
0.02418869878281839
0.024056633438449354
0.02393170862691477
0.02398302989662625
0.024076550980098546
0.0242366602178663
0.02442659921012819
0.024651851698290556
0.024841075538424774
0.024942096679005772
0.025005409807199612
0.02509469147422351
0.02512925544870086
0.025106455977074803
0.02508219379349612
0.025066530756885187
0.025020720567554236
0.02492361880838871
0.024865348185412587
0.02488640015013516
0.024945637866621836
0.02495639294735156
0.02499352073762566
0.025003427111078055
0.02495458277640864
0.02484097361448221
0.024626828863983975
0.024351468989625574
0.024149032038403673
0.024031505186576395
0.02398637800826691
0.024101252622203903
0.024305912466952576
0.024399082582676784
0.024325780329527334
0.02434551128302701
0.024471298838034273
0.024612217652611436
0.02483454975648783
0.02506642559543252
0.025182645765598862
0.025087888287380337
0.024921389609808102
0.0247756564442534
0.024703094734577463
0.02470310358912684
0.024720075125806033
0.02476347996853292
0.024748088584747165
0.02467669785837643
0.02456446290249005
0.024549750472651795
0.024650908486219123
0.024835173587780444
0.024986408667173235
0.02491810152307153
0.02496182101313025
0.025044251433573663
0.02511091448366642
0.025203257016837597
0.0252658135490492
0.02521889596944675
0.025195132370572536
0.025221379331778735
0.025203730056528
0.025111390738748015
0.025035659805871545
0.02503332240972668
0.025031408071517946
0.025022474275901915
0.025117248503956944
0.025364984436891974
0.025611316422000527
0.02566439118003473
0.025417661729734392
0.025170545841101555
0.025177806292194873
0.025333555303514003
0.025401298159267754
0.025479090958833696
0.025590631677769125
0.02563155950512737
0.02558920155512169
0.02550899052526802
0.0254522719909437
0.025418021949008107
0.025358135318383573
0.025383993117138744
0.025621943180449306
0.025913044079206884
0.02598829346243292
0.0259294470353052
0.025920439967885612
0.02597210415173322
0.02601448915200308
0.02599718959070742
0.02590266149956733
0.025788144513498992
0.02572603180538863
0.025677839312702417
0.02561341454507783
0.025588981141336262
0.025566590593662113
0.025417084228247403
0.025260893278755248
0.02515483137452975
0.02513144914759323
0.025187976357992737
0.025310506029054523
0.025392841862048952
0.025404859471600504
0.02544325459515676
0.025527516605798155
0.0255829107388854
0.025523482381831854
0.0253458187635988
0.02513102748664096
0.02493313683429733
0.02474505492951721
0.02460198068525642
0.024640323116909713
0.024618011319544168
0.024508472410961987
0.02436398573452607
0.02436134448973462
0.02420507239876315
0.024045202317647636
0.023986259761732073
0.023965192893519997
0.023948560000862925
0.024003008548170328
0.02408761443570256
0.024213496397715063
0.024375524569768457
0.02451639995444566
0.024639376054983585
0.024708038645330818
0.02465951506514102
0.02443489069817588
0.02426998222246766
0.02431229342939332
0.024330264085438102
0.02418493349570781
0.024032365831080826
0.02400017874315381
0.024045542946550993
0.023756394372321667
0.023333554218988865
0.02295230935094878
0.022727645826525988
0.0226569524849765
0.02265783563721925
0.022702811071649193
0.02277484927792102
0.022789685304742305
0.022795667285099627
0.022734968240838496
0.022786196002271025
0.02269969328539446
0.022606439646333455
0.02254939409904182
0.022490553215611726
0.022444486694876104
0.02241217843256891
0.022334717956837266
0.02221372111234814
0.02215413995552808
0.02222988037392497
0.022356313057243823
0.02236122164176777
0.022291883071884514
0.022270660104695708
0.02234202508581802
0.022385928370058535
0.02224091307958588
0.02190232907189056
0.021506210449151696
0.021148734833113848
0.02086290608625859
0.020702662141993643
0.02067649844568223
0.020658437353558837
0.020620775311253964
0.020582564524374902
0.02055295102065429
0.020551117472350597
0.02060961881885305
0.020645576897077262
0.020755547930020837
0.020939285911154
0.02104065669234842
0.02107229544548318
0.021117662321776153
0.021145556792616843
0.021098896560724823
0.021137243057601153
0.021181974487844854
0.02131414758739993
0.021362653465475886
0.021291312992107122
0.021218654019758105
0.021170210784766823
0.02116345042362809
0.021100113387219607
0.02100125150522217
0.02084425588604063
0.02063869972480461
0.020422941534779967
0.020275628822855652
0.020225921417586504
0.020233892975375055
0.020273614709731193
0.020350126137491317
0.02045280534774065
0.020554460873827337
0.0206369018740952
0.020701497851405293
0.020753353713080288
0.020716919663827868
0.020635436517186464
0.02049295646836981
0.02040123612387106
0.020346581772901117
0.02014705660752952
0.019977545796427874
0.019890990972053258
0.019820377989672126
0.0197158655221574
0.019607461376581342
0.01960004453547299
0.019654353980440645
0.019595590676181017
0.019491940955631434
0.01939987189602107
0.019413846619427202
0.019323360903654246
0.019151714339386672
0.01903135999571532
0.018881110355723648
0.01862002583453432
0.018408786435611547
0.018343783426098527
0.018380312165245414
0.018419339715037494
0.018369761724025012
0.018250157560687513
0.018183906278572977
0.018185045726131648
0.01818732699844986
0.018190733685623853
0.01823732055723667
0.018234961878042667
0.018181219657417386
0.018058301920536906
0.01796676845289767
0.01806484209606424
0.017981231855228545
0.017879876210354268
0.017809263286180793
0.01770858093863353
0.017574828651268037
0.017427275786176324
0.017234241014812142
0.016989704477600752
0.016765503282658755
0.016630985436495393
0.01659079778008163
0.01660918494453654
0.016647140528075397
0.016628182048443706
0.016501524802297354
0.016274113792460413
0.016076630691532045
0.016020468049682678
0.016039093856234102
0.015972445933148265
0.015761631298810242
0.015527938099112362
0.015465228068642319
0.015392867897171527
0.015239851993974297
0.015154622711706906
0.015117425771895796
0.015039326259866356
0.014911390196066349
0.014820655512157827
0.014839712947141379
0.014834356883075089
0.01458916446659714
0.014201778122223913
0.01396434775320813
0.013917813685256988
0.013901732391677796
0.013845683846157045
0.013787944086361676
0.013761704738717526
0.01376438285689801
0.01377552054123953
0.013778447252698243
0.013788059633225203
0.013790467225480824
0.013771095173433423
0.013753014467656612
0.013748733005486428
0.013738103699870408
0.013759436067193747
0.013780786953866482
0.013745538636576383
0.013672130370978267
0.013616554012987763
0.013563202449586243
0.013467806200496852
0.013354798755608499
0.013266937893349677
0.013197666388005019
0.013140131726395339
0.013102547056041658
0.013066739533096552
0.013038355999160558
0.013064274122007192
0.013051081812009216
0.013076461188029498
0.013025960063096136
0.013031263023149222
0.01298061991110444
0.012918876034673303
0.0129473287332803
0.013003434985876083
0.013035193965770304
0.01305162679636851
0.013046564892865717
0.012992188467178494
0.012887387163937091
0.012771393230650574
0.012678232197649776
0.012612378015182913
0.01256397834746167
0.012546224547550082
0.012604886947665364
0.012596262623555959
0.012508459431119263
0.012391063894610851
0.01228562518954277
0.012178896060213447
0.012068173482548445
0.01201536619104445
0.012054951740428805
0.012099385766778142
0.012146523357369005
0.012168439968954772
0.012123860691208393
0.012024688478559255
0.011924193527083843
0.011879427758976817
0.011872173508163542
0.01183308960404247
0.011771529740653932
0.011745248145889491
0.011756192171014845
0.011784760560840369
0.01183037693845108
0.01187797463266179
0.011895531022455543
0.011877934681251645
0.011863535835873336
0.011881395953241735
0.01188651694683358
0.011801691430155187
0.01165008612908423
0.0115303597971797
0.01143883285112679
0.011398454098962247
0.011352498745545746
0.0112764174467884
0.01118805370060727
0.011117646268103272
0.0110869800276123
0.01110667886212468
0.011162213128991426
0.01120293010259047
0.011214203531853855
0.011242428054101765
0.011304597523994743
0.011365028759464622
0.011418316578492523
0.01147195217665285
0.011480059323366732
0.011491122012957931
0.011424847955349832
0.011227511812467127
0.01111758265644312
0.011115990071557462
0.011091682533733547
0.011044822013936938
0.011076629145536572
0.011069217415060848
0.011083713134285062
0.01098520114319399
0.010951916384510697
0.01100835059536621
0.011051903045736253
0.011112284087575973
0.011174425040371716
0.011197694221045822
0.01118726931978017
0.011205998265650123
0.011246262739878148
0.011275136859621853
0.01127190801082179
0.011249085825402289
0.011214748749043792
0.011158689609728753
0.01107806280022487
0.01097928561968729
0.010880966559052468
0.010810578025411815
0.01076708746375516
0.010745335228275508
0.010781532556284218
0.010809564485680313
0.010812553041614593
0.010804514242336154
0.010813656041864305
0.010845721112564205
0.010899835012387483
0.01093321928055957
0.010933960964903235
0.010917234122753144
0.01088701950153336
0.010853590944316238
0.010809025214985012
0.010721226192545145
0.010640312326140702
0.0105647754506208
0.010528689464554191
0.010552069286350161
0.010574651728384198
0.010566074994858354
0.010566928719636054
0.010615416155196726
0.010645387696567922
0.010674469394143671
0.01066809982759878
0.010662800329737366
0.01067426817957312
0.010691330400295556
0.010704704357776791
0.010720874080434442
0.010746332665439695
0.01076996642164886
0.010773027285467833
0.01074690447654575
0.010700879357755185
0.010656570428982376
0.010625277357175946
0.010599432156886905
0.01058058270951733
0.010586457464378328
0.010617377117741853
0.0106573876272887
0.010694398386403918
0.010710482068825513
0.010699276700615884
0.010694301438052207
0.010719646054785698
0.010741100339218974
0.01072972359834239
0.010719029668252915
0.010744826865848154
0.010785059928894043
0.010784617031458766
0.010711780423298478
0.010646958807483316
0.010588306500576437
0.010573418128769845
0.010609103459864854
0.010652066085021943
0.010684885480441154
0.010714917494915425
0.010745193536859005
0.010765034835785628
0.010774344634264708
0.010792267613578588
0.010827227826230228
0.010872613468673081
0.010916023536119611
0.010939300598111004
0.010950794194359332
0.010975808042567224
0.011000948254950344
0.010997302171308548
0.010976405823603272
0.01096302417339757
0.010962793407961725
0.010962573764845728
0.010938316974788904
0.010886225285939872
0.010839501896407455
0.010829652955289931
0.010847339797765016
0.01086603217292577
0.010888083141762763
0.010930523481220008
0.010979626751504839
0.011013662398327143
0.011015007060486824
0.011000254463870079
0.010993096583988518
0.01098246268229559
0.010936872200109065
0.01087420884752646
0.01084514042828232
0.01084694310091436
0.01084006117656827
0.010823291428387165
0.010819729154463857
0.010828951834701001
0.010841276121791452
0.010857932441867888
0.01087742866948247
0.010891020209528505
0.010902082659304141
0.010930585965979844
0.010978575639892369
0.011023579863831401
0.011053107711486519
0.011068813209421933
0.011077039802912622
0.011082849777303637
0.011079449930693954
0.011064218408428132
0.011047542078886181
0.01103377045597881
0.011023394160438328
0.011016951105557383
0.011005898686125875
0.010988272160757333
0.010974131564144046
0.010970244579948486
0.010985642343293876
0.011029047593474388
0.011086559717077761
0.011123317799065262
0.011125673146452755
0.011123947510495781
0.011146875154227019
0.011182049601338805
0.01119767275173217
0.011183243300765753
0.011160192259121687
0.011146860194858164
0.011132681251037866
0.011105536869727074
0.011071935719810426
0.011043858472257853
0.011032380270771682
0.011037770491093397
0.011040992485359311
0.011024881277699024
0.010990187081042678
0.010954171470366418
0.010948202928993851
0.010984677507076412
0.011026189946569502
0.011023157835006714
0.010975377860013395
0.010941444786731154
0.010972835915163159
0.011026735019404441
0.011029531259555369
0.01102011238457635
0.010971694116014986
0.010918256775476039
0.01089334320742637
0.01090631825849414
0.010923785816412419
0.010911197618115693
0.01087975528324023
0.010868208520114421
0.010894880346022547
0.010934719776269048
0.010957036730833352
0.010966501238290221
0.010974300175439567
0.010970677039586008
0.010949942176230252
0.010927219905424864
0.0109147297590971
0.010906313159503044
0.010892857895232737
0.010872895149514079
0.010862623625434935
0.010881395051255823
0.010897842864505947
0.010856198340188711
0.010813067010603845
0.010774163692258299
0.010786213520914316
0.010795149933546782
0.010785987945273518
0.010790137820877135
0.01081418673042208
0.010840488735120744
0.010875869942829013
0.010937196593731642
0.0110048967320472
0.011035356293432415
0.011014565848745406
0.010977363914716988
0.010960122107062488
0.010949525851756334
0.010917907333932816
0.010883197421208024
0.010874049009289592
0.010872214494738727
0.010851294386666268
0.010835656845010817
0.010855844663456082
0.010876957383006812
0.010855503177735955
0.010828455470036715
0.010846628865692765
0.010884706084616481
0.010902540616225451
0.010906801458913833
0.010907597900368273
0.010908324785996229
0.010933503890410066
0.010978626708965749
0.010985956080257892
0.010949028483591973
0.010944703540299089
0.010952599328011275
0.010964916422963142
0.010960370292887092
0.0109409663034603
0.010934682791121303
0.01093070582486689
0.010917708738707005
0.01091544730355963
0.010938763469457626
0.010966736602131277
0.010983826008159668
0.011002248208969832
0.011030989554710687
0.01106515345396474
0.011092297078575938
0.011084534022957086
0.011030091103166342
0.010969131721649318
0.010937822244595736
0.010926439526956528
0.010921505207661539
0.010915018799714744
0.010890133988577872
0.010851640899199993
0.010827909191139042
0.010820851805619895
0.010807224640157074
0.010788548241835087
0.010780624635517598
0.010779148596338928
0.01078119802987203
0.010788568053394556
0.010790971829555929
0.010793849467299879
0.010806411828380078
0.010803762504365296
0.0107654850743711
0.010711621230002492
0.010680636109318584
0.010702062221243978
0.010720979901961983
0.010766136948950589
0.010792688000947237
0.010760746689047664
0.01070024601649493
0.01065198436845094
0.010636630526278168
0.010647836620919407
0.010670490276534111
0.010694947012234479
0.010713817833457142
0.01072568261064589
0.010726633237209172
0.01071019469993189
0.01070112410467118
0.010733103295788169
0.010784353632479905
0.010797358972486109
0.010756005651783198
0.010702705436851829
0.010670732697471976
0.010641700972337275
0.010603847887832672
0.010583441581111401
0.010584430387243628
0.01058198141399771
0.0105806295434013
0.010597179073374718
0.010619332515634596
0.010637930678203702
0.01066196699393913
0.010688360868953169
0.010707929332274943
0.010721593264024705
0.010727658739779145
0.010716155446134508
0.010686254925094545
0.010656058632303029
0.01063795330002904
0.010624466035515069
0.010615709405392408
0.010621225270442665
0.010628894874826074
0.010620479015633464
0.010608070991002022
0.010609328625723719
0.010614514034241438
0.010615876542869955
0.01063274105079472
0.010673340191133321
0.010705580753274262
0.010702000397723168
0.01067705696914345
0.01065390495583415
0.010640880595892667
0.010635312623344361
0.010618686792440712
0.010583023885264992
0.01054966594092548
0.010536770047619938
0.010540301327127964
0.010537997824139894
0.010512384371832013
0.010484282597899438
0.010490089261438698
0.010525311939418316
0.010541541755665094
0.010513154265936464
0.01047814475838095
0.010483610241208226
0.010535679878666998
0.010606578746810556
0.010650758042465895
0.010640572581905872
0.010591627173125744
0.010540514327585697
0.010517685019876807
0.010521024742629378
0.010517417907249183
0.010503517328761518
0.010514598083682358
0.010558527091052382
0.010599749304819852
0.010606326188426465
0.01058852042304352
0.010576937927398831
0.01057718358701095
0.010588514057453723
0.010620010951533913
0.010649167213123291
0.010648382478393614
0.010647005366627127
0.01067684514215216
0.010709360493347048
0.010707831457257271
0.010681880295742303
0.010665856976993382
0.010670341174118221
0.010673411265015602
0.010665567463729531
0.010663373097777366
0.010671158155892044
0.010680046363268048
0.010693703417200596
0.010714494148269296
0.010728113201912493
0.010727770572993905
0.010728014539927245
0.010738524086773395
0.010748414131812751
0.010749360641930251
0.010749556384980678
0.01075596062000841
0.0107654888369143
0.010776653671637177
0.01079415651736781
0.010809522920753807
0.010796486996114255
0.010765123507007956
0.010710522278677671
0.010666734743863345
0.010660201581194996
0.010708775941748173
0.010729212125297635
0.010729406741447747
0.010695176217705011
0.010697288906667381
0.01074367857305333
0.010772605217061937
0.010757727208547294
0.010744005998130888
0.010754443919286132
0.010751851901877671
0.0107099115755409
0.010659465531352908
0.010649034508969635
0.010668042174074799
0.010661258180625736
0.010627891467884183
0.010616131529677659
0.010633256705477833
0.010648021881934255
0.010654870558064432
0.010667343114037067
0.010669952416792512
0.010647181409876794
0.010634842440485954
0.010670328657142817
0.010729168211109936
0.010761936439666896
0.010754915620200336
0.010729377118404954
0.010710761148948223
0.010709967971779406
0.010711385193280876
0.010682123431470245
0.010618822791147977
0.010560728432610631
0.010530526083894074
0.010509879160672427
0.010492999404668808
0.010492524153087289
0.010497887630481272
0.010502916784025729
0.010522193741053343
0.010545948166400193
0.010553212317172439
0.010550064761191606
0.010548276954796165
0.010543433397542686
0.01053046596935019
0.010522126322612166
0.010527274431660771
0.010522860125638545
0.010502392230555414
0.010503979718778282
0.01052806586259976
0.01052288610022515
0.01049870130373165
0.010467683360911906
0.010462655078154057
0.010468333358876408
0.010477956698741764
0.01049707447644323
0.010520447397138923
0.010535712083801628
0.010553589139599353
0.01058468031231314
0.0106118995975703
0.010633630610536784
0.010666514965705573
0.010693646785803139
0.010679887291043997
0.010625841540750115
0.010573574351146817
0.010560860019177198
0.010580625960137695
0.010602179053239524
0.010607565669342876
0.010595914982259274
0.01057737708557397
0.010556499948725104
0.010530808637849987
0.010512841497547925
0.010518185026012362
0.0105348937259987
0.010539195861201733
0.010535557351540775
0.010549042623024434
0.01058263128157705
0.01061676389304921
0.01064218677347526
0.010664611032698303
0.010683217404875904
0.010678195278160274
0.010637779945973307
0.010596655586268752
0.010604892258998007
0.010654672265518457
0.01068022077670321
0.010644455978181214
0.010593461925163866
0.010559032324235886
0.010541473713237793
0.010523223469499498
0.010512192882597447
0.010511305653490127
0.010510695492848754
0.010509476636070759
0.010505819104146212
0.01049749206751585
0.010497307516634464
0.010507497126236559
0.010503952992148697
0.010470950827002525
0.010429923203773797
0.010414297685492784
0.010425922384019942
0.010442779648583382
0.01045181185239926
0.010451508583500982
0.010448703756555915
0.0104561861557886
0.010471733852755278
0.010479116009082644
0.01048046356299892
0.01049532176926732
0.010521937541197986
0.010531489748973399
0.01050915870582685
0.01047597138909623
0.010461588285397738
0.010472691932227463
0.010494385228957981
0.010510128452442586
0.010516766379587351
0.01052289346465841
0.010530024436302483
0.010533182546496392
0.010535086847376078
0.01053779071662575
0.010547225871123373
0.01057408795459196
0.010601905018556863
0.010597652702126653
0.010565560597460716
0.01055040673352778
0.010574612899217755
0.01060679325601086
0.010608686755876989
0.010572359140496701
0.01051978477044031
0.010490581260528415
0.010503244446590542
0.010542038972489535
0.0105801022448577
0.01058875584276393
0.010571319565642626
0.010571782556362451
0.010598015361465514
0.010608553590718656
0.010586330736987292
0.01055077690863982
0.010523918645922094
0.010515536882448941
0.010522082117386162
0.010540977851487696
0.01056627058191225
0.01057008903939277
0.010537103773094714
0.010497408255469054
0.010480580097064375
0.010483878378290684
0.010495929745957255
0.010499889752827585
0.010485703204758466
0.010473478315398098
0.010481662487145514
0.010500548949930816
0.010515201811213046
0.010519465445540846
0.010511376645881683
0.010493396287783981
0.01047069299267605
0.010453216165769845
0.010455506159923971
0.010472520692273975
0.01047429591882974
0.01044573867227882
0.010413530152291059
0.010417035706341267
0.01045474097598344
0.010487702724058181
0.010496016333345324
0.010489973856601864
0.010480258802417666
0.010475996285676956
0.010489169352222234
0.010501704171765595
0.010527637549676
0.010552555420435965
0.010572127294726669
0.0105686165089719
0.01055452050641179
0.01055893264245242
0.010572001477703452
0.010569063820876181
0.010551520290318877
0.010529694859869779
0.010505357736255973
0.010478746162261814
0.010456393621861935
0.010448097712360322
0.010459228653926402
0.010482512007001787
0.010499720135703683
0.010512808689381927
0.010544048100709915
0.010582399545237422
0.010590464102569967
0.010569477882236243
0.010556096446234732
0.010564447056967765
0.010581821810919791
0.010603402827400714
0.01062221528729424
0.010619050215464085
0.010596851317677647
0.010574338689912111
0.010553102518897503
0.010539353059139103
0.01054263355443254
0.010538898287340998
0.010510502075776458
0.010484596013557166
0.01048088176175952
0.01048886391799897
0.010507013683672994
0.010543824874330312
0.010582857495173813
0.010597675270400942
0.010608122667763382
0.010656020103488118
0.010716347603593022
0.010720282676629722
0.010668709233868867
0.010630838584620505
0.010636150282807648
0.010654048377182335
0.010663743815384805
0.010666544549167156
0.010651656044647097
0.010610767325852066
0.010564738474786282
0.010538071284536273
0.010534333169925959
0.010548230072017759
0.010570072631817312
0.010568191120401025
0.010571687808260321
0.010577596065122635
0.010588055688422172
0.0105903001409024
0.010578859839588403
0.010559968696907163
0.01055050219176337
0.010556776041630656
0.01055646859575063
0.010537212162744254
0.010518150115385651
0.01051194948842749
0.010518567783292384
0.010550475725904108
0.010609443972352892
0.010664143324829638
0.010686189481057227
0.01068354049930349
0.010678850000258535
0.010676913647912442
0.010672707085032016
0.010669676957186312
0.010683677655179054
0.010727463201619684
0.010780967411119492
0.010812226780690253
0.010820405199192465
0.01081443732837215
0.01079117704415694
0.010757155490573496
0.010724086808040737
0.010687497779726982
0.010649785264395178
0.010641937812324613
0.010676080635748804
0.010714100564364344
0.010716945729218424
0.010682436062488705
0.010630326808895916
0.01057569110300392
0.010545379591640085
0.010564675247296691
0.010614821754861623
0.010658692128490656
0.01067256109789014
0.010682826049160212
0.0106988554331474
0.010712227998301387
0.010722064541187137
0.010728449553716927
0.010729545231442898
0.010723516333382577
0.010711892449762672
0.0107077117706649
0.010720161437056959
0.01074678084347397
0.010781722194515168
0.010807027439586819
0.010808872054331004
0.010803935383446515
0.010813796631991864
0.010832628074567766
0.010835112943314016
0.01081030041212216
0.01077839630190283
0.010761979892849922
0.010763136874884368
0.01076909870840609
0.010765790545847267
0.010759427810553461
0.010766643097158522
0.010778634720481932
0.010771024285349994
0.010743301212787628
0.010717589685227721
0.010704354629851878
0.010694303181953729
0.01068667953601107
0.010700001427903772
0.010737737924791872
0.010774919379036874
0.010793213255237789
0.010785779198631645
0.010746267468202859
0.010696120336651802
0.010661119373980909
0.010645784153603018
0.010638147944118827
0.010633346075192094
0.010619580685161055
0.010593528486788273
0.010575820698868484
0.010569017250090837
0.010549846417270602
0.010523720909841359
0.01052752252202481
0.010577847727108746
0.010651343064382672
0.010707874938379974
0.010725827752612532
0.010719911116175353
0.010711700932588428
0.010704676609020681
0.010708049396052957
0.010723094223067164
0.010714270561002194
0.010663791254628449
0.010601982832886278
0.010551588947419078
0.010517682386562229
0.010507002060767262
0.01049818289000541
0.010467092911712826
0.010440878358203919
0.010449816475156694
0.010489030664321036
0.010551036151591689
0.010620777299627661
0.01066760159097612
0.010675447201356292
0.010653468759264796
0.010633481612894685
0.010648262181784957
0.01068583098705858
0.010703298652078957
0.010685128576587885
0.01065213315654546
0.010638450647238642
0.010665264858398587
0.010710582588799297
0.010719616846181453
0.010663051567971706
0.010570871757809073
0.01049623520579189
0.010466778750997037
0.010479838436003775
0.010515810679644346
0.010550677035935223
0.010569444536231458
0.010569090372882783
0.010553403992671519
0.01053235933650285
0.010528192527126522
0.010560585709754378
0.010612003889400512
0.01064061773242429
0.010631680253427476
0.010599980822298675
0.010564301572740077
0.010547170965000987
0.010561764272861183
0.010593885383568704
0.01062175418715924
0.010640266085974872
0.010652971123345196
0.010656201858073472
0.010645505280699581
0.01061803192831576
0.01057326465845108
0.010531496261246503
0.010521764247678221
0.010543632574845106
0.010566975453402848
0.010571126234717667
0.010560677233152092
0.010543163195252418
0.010529280526097863
0.010534259364940226
0.01054382008034736
0.010533431270159781
0.010522389381658287
0.010534174405038357
0.010547255673445761
0.010542097655124961
0.01052951991558075
0.01052316180896014
0.010532666731160134
0.010559310724493115
0.010587831779848783
0.010606529687065632
0.010620632877107709
0.010630639230366796
0.010618355406913907
0.010573210706934334
0.01052112534409389
0.010501030317973345
0.010509801593143494
0.010509898923337459
0.010496140192262828
0.01049395370297134
0.010499319571536034
0.010492689346428961
0.010484686200506986
0.010489697358570993
0.010498833823949099
0.010497558638453483
0.010477597219869494
0.010452311909757555
0.010452526388689876
0.010487526750657707
0.010534074062015862
0.010561093431897461
0.010565011177677662
0.01057381906779483
0.010606204536743461
0.010650003398768603
0.010673853415064515
0.010661376351490616
0.010635496419854461
0.010618149135261774
0.010597534815315158
0.010561775893438607
0.010523950748611241
0.010502371713519096
0.010494907165411859
0.010483815986663102
0.01046588534489274
0.010457314499653876
0.010466901981271804
0.010485602968838065
0.010498524100985378
0.010493214731104672
0.010461385154630989
0.010409612858202308
0.01036304298788309
0.010337117468006909
0.010326201664283871
0.010326906994450838
0.010337331767659634
0.010346083673648537
0.01035042354138568
0.010362386147025972
0.010378150581382216
0.010373144398909063
0.010349718199577182
0.01035371687496081
0.01041388713521883
0.010489632568787783
0.010525142839178443
0.010540102683007717
0.010571505897678435
0.010596766129601747
0.010579523658379912
0.010547469798475505
0.010533037593122572
0.010525813798885793
0.010513896800111978
0.010495269671082497
0.010474418776575477
0.01047726725693792
0.010510755290742963
0.010535640851594507
0.010527097876183689
0.010506898262538016
0.010498124486766756
0.010489145799074322
0.010465157059952617
0.010447274630423635
0.010454368994105607
0.010465525486506522
0.010459253867156803
0.010454160782974214
0.010485216530505569
0.010543601396493614
0.01057644079439342
0.01055675364099443
0.010512914811260998
0.010484726836439221
0.010471921695861966
0.010448482467327267
0.010416095242835582
0.010395914949476719
0.01039124196395278
0.01039173990720883
0.010390762693714351
0.010394315498415381
0.010412488838192076
0.010433882987126709
0.010431587353814394
0.010405440523754805
0.010387027557007968
0.010396651809569448
0.010430561967659742
0.01048315207939595
0.010537653968203813
0.010571613875217736
0.010574225317686797
0.010561519698239864
0.010546136563643813
0.010534838526509702
0.010528312702663243
0.010520576748531312
0.010518728487659246
0.01053297744365409
0.010549388639628888
0.01054585208883509
0.010517555992119015
0.010475798326078803
0.010439785334747285
0.010423613365273922
0.010423379463609307
0.010443229894153774
0.010502402202691883
0.01057701643789187
0.010620461057405918
0.010648586626630277
0.010695122142788022
0.010733411542605608
0.010737203997559846
0.010733999328222126
0.010751705882139504
0.010785625732969492
0.01081011603353545
0.010799012093339116
0.010760434458497913
0.010725941981654614
0.010696453829295934
0.010648760185576976
0.010589944042731076
0.010561386172194034
0.010586448076646776
0.010637224912643432
0.01067007997771725
0.010675003326032311
0.010671533492859453
0.010672572180628776
0.010660636338870972
0.010613252038601785
0.010553289481904357
0.010531291738152504
0.01055636015953496
0.010590970416087657
0.010607786208856851
0.01061113725649193
0.01060925257857889
0.010599808890838176
0.010581496129743755
0.010559702736791222
0.010545352711342276
0.010551152115222067
0.010580238101538271
0.010614421258214862
0.010621781868394464
0.010597937509883195
0.010583450980484486
0.010603979888837784
0.010629616412334144
0.010635657364036887
0.010642589279450476
0.010660156263038517
0.010663975686766207
0.01063856550725177
0.010592784625478089
0.010542898657731711
0.010505785057321191
0.010498140677809716
0.010523643537890166
0.010570100680924953
0.010617114973720164
0.010638131957966835
0.010626826218795031
0.010611056010238826
0.01060862414771691
0.01060348295373842
0.010584855144843459
0.010571297367569059
0.01057714169844985
0.010589059356134385
0.010593355076853186
0.010591106410138308
0.010582279600203037
0.010570692557375878
0.010570323863066732
0.010578174085821956
0.010575890024192632
0.010571354643907398
0.010583527437411248
0.01059827883495018
0.010598926108796149
0.010598133183084429
0.01060441107256338
0.010613142540678381
0.010624922800343484
0.010633700536563992
0.010630531748756767
0.010626950198784471
0.010640210981946438
0.01066693120636046
0.01068616461707279
0.0106771316123195
0.01064076071139425
0.010603163766209036
0.010589730401989073
0.010608334050048143
0.010647427455987781
0.010685016578063368
0.01071628249483183
0.010754016391001642
0.010798503395635635
0.010832787717226892
0.010845673375297338
0.010846963042858988
0.01085783789632842
0.010885147324297578
0.010899789903778583
0.010860518666449935
0.010779030635021628
0.010714372999500484
0.010693551034200936
0.01070115038426593
0.010726518004667014
0.010761101103853435
0.010772756165824831
0.010735655007883906
0.0106837515020743
0.010679901363328099
0.010731320790946484
0.010791010931134224
0.010828929806593805
0.010846358952112495
0.010843778990674765
0.010830441489815712
0.01083184098592028
0.010851409449242056
0.010870154516305774
0.01088102227076888
0.010882128777448088
0.010869318719487637
0.010851031246129423
0.010838073457125574
0.010827834578230977
0.010812299880199135
0.010789735468570143
0.010764034730382264
0.010739182010293008
0.010713861465919763
0.010679561931174248
0.010643487884663046
0.010637443591840566
0.010663500926457346
0.010682353486772626
0.01068788463016972
0.010707181773614138
0.010732826022431254
0.010743832485750317
0.010748062222264708
0.010753608893137425
0.010760435541160405
0.01077141715446487
0.010772932479158044
0.010754234921187163
0.01073015695437789
0.010705619419459253
0.010672711709048599
0.010652054012753069
0.010680623077787459
0.010748662969563156
0.010795432433951646
0.010789285220671446
0.010767096353229135
0.010770504891406745
0.010787003356963396
0.010785035437438638
0.010767118080984801
0.010762143724132329
0.010788849405944347
0.010830095841083676
0.010858304668217897
0.01088314293185249
0.010919704288244247
0.010936685770284385
0.010903157899156213
0.010857108433265239
0.010839893659576773
0.010848524097818881
0.010843556448817253
0.010829489899333567
0.010836739395745098
0.010867334112990647
0.010897769299335778
0.010906870269682258
0.010892880086321383
0.01087373282527551
0.01086614137282595
0.010869522672146558
0.010874869965482504
0.010878286832012236
0.01087793731596321
0.010865142331458627
0.010836848677136003
0.01080436922609806
0.01077098501380533
0.010736545766703784
0.010722636689897626
0.010741921346634627
0.010772472901735455
0.01079441127832979
0.010808134954422711
0.010816613072529435
0.010823805558029562
0.010836279457435012
0.01084166303044185
0.010810617418028414
0.010747597406152635
0.01069704478373751
0.010681996548082679
0.010688306065276265
0.01069933188147843
0.010701615943107754
0.010687439749017359
0.010673577443230896
0.010681362408213317
0.010697546368464827
0.010690429771784693
0.01066298998426646
0.010651036123745143
0.010664313300512731
0.010677034121472388
0.010683317671064287
0.010705039848107844
0.010737927402369679
0.010746167632751167
0.01072622295934707
0.010729890349321067
0.01078409562818706
0.010841473895125091
0.010861854436807334
0.010862927145790308
0.010864275670610369
0.010865626134909689
0.010873017224948853
0.010887675462290644
0.010894422528799623
0.010886341931764036
0.01086765774525702
0.010837917043827474
0.010809106682427228
0.010808850356843322
0.010833281672094018
0.010844000841025263
0.0108243043650873
0.010791848304215819
0.01077410371042788
0.010783118410035968
0.01079661855706945
0.010790545248892159
0.01077669822378084
0.010775638143531979
0.010785504200030119
0.010790383096318691
0.010777736271265895
0.01075877490453422
0.010760640411172062
0.010783598280977458
0.010805512208025902
0.010821913904510438
0.010835934414062649
0.010837480104528367
0.010831479255575687
0.010845225327648223
0.010875027123838664
0.010880961550865322
0.010857417262159288
0.010842515681870281
0.010856831367127596
0.010885174416471273
0.010903008051682263
0.010898090086411684
0.01087428766535595
0.01084835734218359
0.010839765334967524
0.010842740491498262
0.01083426524652168
0.010821691653691233
0.010826514090877027
0.010833384278230369
0.010817993595264853
0.010792167333420366
0.010777497347444296
0.010773572400212287
0.010772536948788911
0.010773282013833523
0.010778083465993404
0.01079659467563033
0.010838778589386493
0.010890402679797262
0.010920230713672936
0.01090675437822938
0.010849358700215816
0.010782174291089177
0.010756625314243137
0.010773605613503606
0.010774324091617018
0.010727915938477963
0.010672547819558531
0.010648074042983353
0.010642583298031241
0.010626829229295254
0.010599280258174986
0.010574363733176141
0.01056357698282227
0.010578519678674639
0.010613666556309909
0.010638652085326612
0.010641512477304787
0.010646951945964246
0.010672204738948494
0.010705313864164054
0.010728532450739294
0.010728514075744898
0.010695173810236156
0.010637843152508139
0.010594159516040235
0.01059783251490444
0.010630916382651776
0.010642576578538865
0.010626174870412796
0.010616887889336795
0.010620089722797274
0.010627269221004099
0.010662293583154679
0.010727162521798164
0.01077079244190827
0.010767964161932469
0.010752900235820562
0.01075771861942485
0.010782745331525803
0.010811891336925328
0.010816681808792054
0.010782084162347019
0.010737999733537435
0.010725252598058432
0.010745612669270486
0.010774784702807665
0.010801058313809335
0.010825679400004446
0.010845117000862957
0.010856305384077131
0.010861075310967862
0.010857183313928544
0.010841029593721033
0.01081477481406182
0.010790431597270072
0.010789383258670569
0.010815923362970352
0.01083891247631982
0.010833137398585678
0.010812898576259613
0.010797635631170123
0.01078478901879862
0.010772002465091645
0.01076958459801972
0.010780498541425914
0.01079237242694944
0.010789117370732128
0.010760370229836553
0.01071215792093426
0.010673486650921405
0.010672003231011331
0.010687769884243607
0.010682508747559041
0.010671654411125928
0.010681618873495608
0.0106908339378424
0.010680369006004185
0.010667113475501538
0.010663328359369189
0.010652828179299832
0.010617630006745458
0.010570944647770374
0.010554506331682206
0.010590688472148032
0.0106300706602633
0.010626849497202783
0.010599520928226412
0.010603682317305357
0.010638396118301897
0.010679029447492211
0.010719314531888813
0.010751697481609881
0.010765528944320977
0.010761665569152683
0.010741711677983403
0.010702936199959368
0.010662615704350174
0.010647592805325986
0.010650840529706329
0.01065200670156628
0.010657718311995268
0.010678671153727918
0.010717077432200312
0.010782275917008519
0.01085710245417431
0.010889542833901943
0.010867061726748943
0.010823882943950593
0.010777036652434617
0.010735784051939845
0.010724392784759403
0.010747230984270573
0.010775287018623203
0.010778136511798948
0.010757870206143707
0.010745337514672429
0.010758092077448964
0.01078230619430542
0.010800489000976085
0.010809709003660828
0.01081253661075607
0.010813320935703814
0.010814301837235689
0.010810200478881598
0.010803952072747052
0.010814272223506123
0.010849102574866265
0.010881020398810505
0.01087769715115428
0.010852975805755704
0.010837649733293802
0.010822208274621516
0.01078899243613705
0.01076177271315828
0.010762445433065294
0.010758231121581047
0.010720531798433512
0.010688324759248644
0.010705303696449847
0.010751328342594206
0.010775933854747564
0.010759539881255477
0.010730038590263575
0.010726524721831084
0.010751196392811834
0.010774928482715041
0.010788772394880653
0.01081011168891564
0.010831807053182273
0.010822549685835839
0.010792039693333208
0.010791944914963096
0.010838517784141005
0.01089462606003508
0.010924723888747394
0.010922264198306948
0.01089123449055478
0.010841455361805856
0.010808030578773468
0.010816798345185816
0.010836625455413014
0.01083464861381799
0.010829952422063797
0.010835637636482716
0.010833800786640495
0.010829997835680843
0.010835344498045742
0.010827670239377767
0.010801117264200001
0.010780933431815356
0.010770344343036413
0.010758842241484672
0.010762209908571095
0.010795905741397292
0.010840603888500482
0.010867501944303512
0.010868980064988137
0.01085624103434384
0.010841207741759718
0.010823386323172599
0.010804861306678504
0.010793731196317822
0.010780483034905046
0.010754407937638462
0.010732811584603041
0.010741699328646064
0.010781332226470113
0.010820462072733789
0.010828845156356692
0.010811951761133969
0.010797981997020542
0.010800969460979104
0.01081520618405193
0.010832098876126111
0.010842688539996743
0.010832918994128703
0.010796656929887832
0.010752807438839227
0.010734792035073042
0.010760984024964273
0.010818478344008326
0.010873610151465983
0.010901332763023675
0.010909655855502933
0.010929902696516365
0.01097312105121091
0.011010790965519846
0.011017371453344822
0.011005543984938413
0.010992896524257958
0.010972758517600595
0.010943429667968303
0.010918244866188616
0.010896781166084111
0.010869176601991057
0.01084053111029789
0.010830038823187352
0.010850618716794998
0.010881256316788495
0.01088379829423502
0.010865235126111657
0.010871332588139921
0.010913790061604232
0.010955731130670755
0.010964470999315381
0.010946029284968972
0.010930480419192463
0.010936666917987168
0.010945229744538664
0.010925954354461283
0.01089391838060692
0.010878484058193862
0.010868667843751609
0.010852993885055184
0.010849018390290439
0.010862737842835486
0.01087552758399397
0.010868118088692426
0.010834246829617769
0.010798819423653185
0.010806519633624702
0.010849975307937711
0.010866438506636768
0.010838038164656609
0.010804958131629974
0.0107771710655652
0.010734382392838597
0.010693063326179982
0.01068776860134676
0.010705071196425706
0.010703131970949471
0.010685265050269663
0.010689954571425915
0.010722123861778527
0.010755086585413664
0.010772051252424718
0.010763782570138573
0.010736568537540734
0.010727272990625352
0.010751992468722165
0.010775885456241667
0.010768544434104115
0.010743747639935464
0.010734339372720569
0.010745024671778083
0.01074779252987355
0.010733176018111407
0.010721079013310373
0.010722987398039549
0.010738460898865014
0.010762239089235664
0.010784529759548604
0.010794755953829735
0.01077555796597153
0.010727504233364016
0.010693079081829638
0.010704860188998282
0.010738376113586127
0.010753532054368407
0.010749408635310828
0.010750914234668016
0.010764349387027323
0.010775482337921858
0.010777627672068775
0.010780608693603427
0.010800882643088698
0.010834840005263685
0.01084585058502853
0.010803177836351097
0.010719208270311356
0.010634452728554606
0.010576838057022541
0.01054518487304449
0.010532311310525984
0.01054633578285575
0.010595263312570751
0.010659627337008714
0.010702109443955124
0.010704439065884799
0.01068331373622641
0.01067006628261879
0.010668025785125792
0.010647238497622311
0.010599094657227397
0.010556658126879483
0.010540276858955621
0.010530238621868193
0.01051637682132423
0.010520311426371337
0.010545083722099662
0.010564477862790227
0.010570863049943001
0.010575142670422793
0.010576470221858472
0.010576442251913249
0.010588955348357559
0.010611763822380453
0.010625658323988318
0.010625072580296546
0.010618878998793662
0.010613347641192377
0.010609568145591766
0.01060323218582198
0.010595832976978272
0.01060472947312519
0.010627435394562781
0.010627843565307557
0.01059898583451286
0.010578658203594387
0.010582813140936197
0.010590315747540444
0.010589046205859631
0.010586921367794275
0.010586130244191735
0.010578199999872594
0.01056978554232046
0.010582550449762494
0.010610120804049075
0.010615651479456574
0.010587137860711663
0.010557403564453125
0.01055327479261905
0.010553170854691415
0.010527452831156551
0.010489301953930408
0.010465985697228461
0.010458888446446508
0.010462255931925029
0.010481466550845652
0.010513636199757457
0.010539692887105047
0.010542369578033686
0.010522461144719273
0.010496584372594953
0.01048295095562935
0.010494843786582352
0.010535238767042756
0.010585476853884756
0.010610094773583115
0.010591275328770279
0.010552029800601303
0.01052171730902046
0.010500443268101662
0.010483181490562855
0.01047155173495412
0.010455313704442233
0.010432000886648893
0.010418332344852389
0.010424141942057758
0.010444218758493662
0.010470354340504855
0.010497061144560576
0.010511466609314084
0.010496680105570705
0.010460046543739736
0.010431912904605269
0.01042737022973597
0.010434113247320055
0.010441429174970835
0.010455546034500003
0.010483256462030112
0.01052381212823093
0.010566988261416554
0.010586133878678083
0.01056328095961362
0.010516240429133177
0.010480213616974652
0.01048051088815555
0.010520052968058736
0.01057703594211489
0.010617592160124333
0.010622937944717706
0.010606038600672036
0.010591928316280246
0.01058755291858688
0.010581217738799751
0.01056711673969403
0.010555127726402134
0.010551083972677589
0.010545766379218549
0.010533741554245352
0.010526042992714792
0.010536827647592872
0.010566274840384722
0.010591549745295198
0.010580629045143723
0.01053507523611188
0.010503079062327742
0.010523482558783144
0.010576968432869762
0.010621100219432265
0.010645631097722798
0.010662466024514287
0.010667714555747807
0.010642700928729027
0.010594587973318994
0.0105622205324471
0.010558665255084634
0.010563482511788607
0.010571608818136156
0.010580592991318553
0.01056424961425364
0.010517722684890032
0.010486507597379386
0.010503602160606534
0.010535741874482482
0.010534455229062586
0.010500859280582517
0.0104721526382491
0.010467259860597551
0.010471335316542535
0.010481763889547437
0.010513503616675735
0.01055087568704039
0.010563171310350299
0.01055187810678035
0.010540512159932404
0.01054146389476955
0.010544724704232067
0.010528484121896326
0.010492234020493924
0.010472362679429352
0.010495081569533795
0.010534718055278064
0.010555355167016387
0.01056046798126772
0.01056740410393104
0.010578617388382554
0.010595732629299163
0.01061916335951537
0.010638741818256676
0.01064689862774685
0.010647836171556265
0.01064646438928321
0.010634465254843234
0.010607481186743825
0.010597254536114632
0.010633280405309052
0.01068240626482293
0.010697075000498444
0.010687318951822818
0.010686731124296784
0.010691950272303075
0.010678824484348298
0.010657082567922771
0.010655769247096032
0.010660696858540177
0.010648430672008545
0.010645145999733359
0.010665986533276738
0.010679684623610228
0.010675845809746533
0.010677501463796944
0.010698093893006444
0.010731214843690395
0.010755782241467386
0.01075363100739196
0.010728283391799778
0.010700460583902895
0.010690828040242194
0.010698891237843781
0.010706973175983877
0.010704947570338845
0.010699181323871017
0.010702765481546521
0.010711333609651773
0.010703200427815317
0.010674100941978395
0.010644577322527765
0.010637393065262585
0.010657216773834079
0.010681709724012762
0.01068728873040527
0.010681347246281803
0.01068319845944643
0.01068936488358304
0.01068293139571324
0.010663247085176408
0.010649774249177426
0.010653089836705477
0.010659552244469524
0.010665802562143653
0.01068701446754858
0.010711368708871304
0.010714152271393686
0.010711411570664495
0.010727732521481813
0.010749322171323001
0.010761332330293954
0.010773393311537802
0.01078385729342699
0.010781560610048473
0.010787507698405535
0.010827637235634029
0.010869997912086546
0.010861327359452843
0.010813476140610874
0.010780948291067034
0.010770814165007324
0.010752802405040712
0.010734434989280998
0.010741427165921778
0.010756930450443179
0.010750878886319697
0.010732128655072302
0.010727028062101454
0.010734483171254396
0.010741069130599499
0.010754432282410561
0.010780069762840867
0.01080308850388974
0.010812622832600028
0.010810298498254269
0.010801586124580353
0.010794183937832713
0.01079399166163057
0.010800160318613052
0.010808168384246529
0.010811237350571901
0.010804165098816156
0.010794652169570327
0.010795742471236736
0.010805594851262867
0.010815002599265426
0.010831726889591664
0.010865582895930856
0.010896682974416762
0.01089875124162063
0.010875022513791919
0.010849140028003603
0.01084503467194736
0.010865368612576276
0.010875916222576052
0.010852359964046628
0.01082872591447085
0.01083427287172526
0.010841654781252145
0.010836390727199614
0.010842968826182187
0.01086620170623064
0.010887783193029464
0.010900344946421683
0.010909086896572263
0.010916274467017501
0.010919838652480394
0.01092022571247071
0.010913593152072281
0.010899792567361146
0.01089275792473927
0.010899029271677137
0.01090490011498332
0.010897618816234172
0.010888168732635676
0.01088982765795663
0.010885394173674285
0.010858444874174892
0.010835344174411147
0.010848372040782124
0.010885204246733338
0.010912468458991497
0.010915260422043502
0.01089630521601066
0.010875774931628257
0.01088387870695442
0.01091965616447851
0.010946581508032977
0.01093825404997915
0.010896396792959421
0.010840689304750413
0.01079967268044129
0.010788496385794133
0.01079451157944277
0.01079633150016889
0.010782606010325253
0.0107649265951477
0.010772578807082028
0.01080577235436067
0.010823176675476134
0.010797260825056583
0.010756068076007068
0.010744219811167568
0.010760573653969914
0.010772380551788956
0.010759836616925896
0.01073550695553422
0.010744453095830976
0.010807274640537799
0.010867817560210824
0.010860975105315447
0.010805610045790672
0.010767902005463839
0.010767143764533103
0.010773877645842731
0.010776889461558312
0.0107936176401563
0.010814218667801469
0.010801256524864584
0.01075463233748451
0.010710217822343111
0.010681829159148037
0.010666239382699132
0.010674577674362808
0.010698021692223846
0.010696465910878033
0.010671590089332312
0.01067393864504993
0.010716478284448385
0.010760929803363978
0.010779843791387975
0.010775566536467522
0.010759025225415825
0.010735998591408134
0.010710304949898273
0.010695127970539033
0.010704691943246872
0.010731732121203095
0.010748923674691468
0.010741762490943075
0.01072945493273437
0.010735256269108505
0.0107526008435525
0.010760776952374727
0.010754825454205275
0.010750442110002041
0.010765321366488934
0.010794873670674861
0.010811438064556568
0.010790029757190496
0.010738915919791907
0.010697176677640528
0.01069133126642555
0.010713890800252557
0.010746367196552455
0.010776218827813863
0.010793930741492659
0.010793027735780924
0.010775156181771307
0.010751292544882744
0.010734152719378472
0.010729354480281473
0.01073459153296426
0.010745157417841256
0.010756168500520288
0.010762834183406084
0.010772359217517078
0.010799385281279683
0.01083530880510807
0.010853648912161588
0.010847090983297676
0.010827143886126578
0.010803903844207525
0.010782431792467833
0.010762599990703165
0.01074955762596801
0.010756167524959892
0.010776307401247322
0.010782054264564068
0.010762293201405555
0.010736813682597131
0.010728513724170625
0.010742129222489894
0.010759105109609663
0.010753604385536164
0.010728691250551491
0.010711376445833594
0.010714119840413332
0.010734553844667972
0.010769678300712258
0.010806349630001932
0.010824739425443113
0.010821472874376924
0.010818094424903392
0.01083236130187288
0.010840039248578251
0.01081042328150943
0.010769547685049475
0.01076280665351078
0.010788974717725068
0.010821772960480303
0.01085255851969123
0.010885415042284876
0.010914970741141587
0.010922318142838776
0.01090659990441054
0.010895383211318404
0.010891559154260903
0.010870042375754565
0.010839068973436951
0.01082847076933831
0.01083264427492395
0.010820815560873599
0.010777352496515959
0.010708116295281797
0.010640279829967767
0.010615479047410191
0.01064615061506629
0.010691333431750535
0.010704914014786482
0.010693249877076596
0.010697475683409721
0.01072637753561139
0.01074720203410834
0.010748776083346456
0.010755120243411511
0.010769567554816603
0.010777902395930142
0.010785171184688807
0.010786139266565442
0.01076422058744356
0.010744805801659823
0.0107597636571154
0.010784520031884313
0.010789087351877242
0.010786640143487602
0.010783592716325074
0.010758008437696844
0.010714396603871136
0.010692715337499976
0.010710577368736268
0.01074688287684694
0.010778536093421281
0.010799357404466718
0.010810837165918201
0.010815533834975213
0.010810283557511867
0.010788344535976649
0.010760831639636308
0.010746778266038745
0.010750365846324711
0.01076692264759913
0.010781167221721262
0.010775729403831065
0.010764061128720642
0.01077299914555624
0.010785652012564241
0.010769407574553042
0.010745054502040148
0.010744134224951267
0.010750324719119818
0.010741062383167445
0.010723898620344698
0.010720014164689928
0.01073266820749268
0.010738560934551061
0.010727514163590968
0.010713249379768967
0.01070607899921015
0.0107113550696522
0.010724028234835713
0.01072716788155958
0.010722052939236164
0.010724558550864459
0.010727067228872329
0.010713414375204592
0.010705042043700813
0.010732071101665496
0.01076971851522103
0.010774200996384025
0.010756556540727616
0.010752032147720456
0.01075245461659506
0.010728270306717604
0.01068719693692401
0.010669764967169613
0.010701063727028668
0.010755044310353696
0.010778453268576413
0.010759818262886255
0.010732066456694157
0.010708824300672859
0.010685257446020842
0.010679505283478647
0.010703424827661366
0.010731231649406254
0.010735507826320828
0.010718313076067717
0.010702363916207104
0.0107058573840186
0.010722821678500622
0.010728287843521684
0.010706290456000715
0.01066892485599965
0.010641770767979324
0.010635612693149596
0.010634476428385824
0.010614552372135221
0.010578372308518737
0.010553426060359925
0.010556333588901907
0.010578083272557706
0.010599898288492114
0.010614126522559672
0.010624947657343
0.010633546982426197
0.010641805776394904
0.010656838750001042
0.010679013761691749
0.010705678123049438
0.010734785923268646
0.010749042506795377
0.010727527630515397
0.010685153384692968
0.010674475703854113
0.010721681660506875
0.010776406610384584
0.010780220092274249
0.01075587563449517
0.01075099821202457
0.010749539872631431
0.010722424392588437
0.010692657765466719
0.010687967457342892
0.010692395847290754
0.010675062020309269
0.010637354163918644
0.010610177095513791
0.01061383283464238
0.010643682142253965
0.010680224972311407
0.010704276831820608
0.010714414012618363
0.010728908819146454
0.010764341328758746
0.010799537929706275
0.010789667600765824
0.010738673743326217
0.01069859909825027
0.010690906334202737
0.010695291904266924
0.01069768424378708
0.010690562603995203
0.010657390276901425
0.010599283084739
0.010549998166970909
0.010542976872529834
0.010573930747341365
0.010605181974824518
0.010608330238610506
0.010591226911637932
0.010578446893487126
0.010584117800462992
0.010606072745285928
0.010628933890257031
0.01063369817333296
0.010610265971627087
0.010571736763231455
0.01055300167761743
0.010568664325401187
0.010592621779069304
0.0106015156628564
0.010599060663953424
0.010594524131156503
0.010592794409021736
0.010590852608438582
0.010579122977796942
0.010560364504344761
0.010551816006191074
0.01057100210338831
0.01061458645388484
0.010643029902130365
0.010623260370921343
0.010585547480732203
0.010586017041932792
0.010625206856057048
0.010659201887901872
0.010664619801100344
0.010646543262992055
0.010620461369398981
0.010606285585090518
0.01060463641770184
0.010591279859654605
0.010559616861864924
0.010540476751048118
0.010561200380325318
0.010606706861872227
0.010640277964994312
0.010644045385997742
0.010626243965234608
0.010607979644555598
0.01060196390375495
0.010597369235474616
0.010582954243291169
0.010580489416606725
0.010606330882292242
0.010623285355977714
0.010601097240578384
0.010568299731239676
0.010535680640023201
0.010510023375973105
0.010493745047133416
0.01048819127259776
0.010488293387461455
0.01048941777087748
0.010490162780042738
0.01049056409392506
0.010494700092822313
0.010503973120357842
0.010506305221933871
0.010494187895674259
0.010481370892375708
0.010479636101517826
0.010476428363472224
0.010454759534914046
0.010426771233323962
0.010416093184612691
0.010408565227407962
0.01037802367238328
0.010346165406517685
0.010342951456550509
0.010344864493235946
0.010325082677882165
0.010315368198789657
0.010351111877243966
0.010406812839210033
0.010444198192562908
0.010468727184925228
0.010488429211545736
0.010481253690086305
0.010444814821239561
0.010414121074136347
0.010410243952646852
0.010420067531522364
0.010423147820401936
0.010409047466237099
0.010386715547647328
0.010379890033509582
0.01039221630198881
0.010405532389413566
0.010409592995420098
0.010406102945562452
0.010401603817008435
0.010393895404413343
0.010367690271232277
0.010325284011196345
0.010303647620603443
0.010322127437684686
0.010339976102113724
0.010321201807819307
0.010291219044011085
0.010286241446156055
0.010302761772181838
0.010313018516171724
0.0103071329719387
0.010306800990365446
0.010327389971353114
0.010357143844012172
0.010380113036371768
0.01038732757559046
0.010378475231118501
0.010363707290962339
0.010348509815521538
0.010327713238075376
0.010306673161685466
0.0103106605890207
0.010348372498992831
0.010385949260089546
0.010391227824147791
0.010364535416010767
0.010310499849729239
0.010244954132940621
0.010217462298460305
0.010252961623482406
0.010303698896896094
0.010314685755874962
0.010289554845076054
0.010271333444397896
0.010291027040220797
0.01033938792301342
0.010389945313800126
0.01042597729479894
0.010433297310955823
0.010408084150403738
0.010376288630068302
0.010367262859363109
0.010372926346026361
0.010370811461471022
0.010363139426335693
0.010360619616694749
0.010367046818137169
0.010379725066013635
0.010381918898783624
0.01035892807180062
0.010321184201166034
0.010300316764041782
0.010315823906566948
0.010344970340374857
0.010354623314924538
0.010351514525245875
0.010364066427573562
0.010392979681491853
0.010403868877328932
0.010369224338792265
0.010319798244163394
0.010311690729577095
0.010333791498560459
0.010333999784197658
0.010316674469504506
0.010314334591384977
0.010314214427489787
0.010299786028917879
0.01029769476968795
0.010319043213967235
0.010327680753543973
0.010306480012368412
0.010293901138938964
0.010319906400982291
0.010348860083613545
0.010342228955123574
0.010333326349500566
0.010365020416211337
0.010409385960083456
0.010423312953207642
0.01042193486355245
0.010427198268007486
0.010412471268791705
0.010366179849952459
0.010326499484945089
0.010309023989830166
0.010296717791352421
0.010297057991847396
0.01031729549402371
0.01032313731033355
0.010290132232476025
0.010245451189111918
0.010223539883736522
0.010227002494502813
0.010243774061091244
0.010270071390550584
0.01029892407823354
0.010311796346213669
0.010309394381474704
0.010314771882258355
0.01032890411093831
0.010326573944184929
0.010299255051650106
0.010272416674997658
0.010274848227854818
0.010298973938915879
0.010309973920229823
0.010298732509836555
0.010287674844730645
0.010282883513718843
0.010277253983076662
0.010282180143985898
0.010300476402044297
0.01030348590342328
0.010279180160723626
0.010261264413129538
0.0102730291034095
0.010292078701313585
0.010292905811220408
0.0102789166290313
0.010268341950140893
0.010270998196210713
0.010278972054366023
0.010277879855129868
0.01026513144141063
0.010246069973800332
0.010221193260513246
0.010197385293431581
0.010194484952371567
0.010220785404089838
0.010256907073780894
0.010282084820792079
0.010296463733538985
0.010297218903433531
0.010278107437770814
0.010263954843394459
0.01028412398416549
0.01032836023485288
0.010372627130709588
0.010401778679806739
0.010399895331356674
0.010374425516929478
0.010358471202198415
0.01035724491579458
0.010351300006732345
0.010339361252263188
0.010318572430405766
0.010274806488305331
0.010230720499530435
0.010225714021362364
0.010240954752080143
0.010238209241069853
0.010235606497153639
0.010261249972973018
0.010298576157074421
0.010340585361700506
0.010379289283882827
0.010429699565283954
0.010492960163392127
0.010534169967286289
0.010535502545535565
0.01051811755169183
0.0104934248351492
0.010458853996824473
0.010429631222505122
0.010422732247970998
0.010428230676334352
0.010431223430205137
0.010431956993415951
0.010432713078334927
0.010436897315084934
0.01045139787485823
0.010475064672064036
0.010493131917901338
0.010494132321327924
0.010490325002465398
0.010496721416711808
0.01050818057730794
0.010522041833028198
0.010534816819708795
0.010516840198542923
0.01046299863839522
0.010423610256984829
0.010419569630175828
0.010418418904300779
0.010417544266674668
0.010443580357823522
0.010478327395394444
0.010470993211492896
0.010420304315630347
0.010384920111391693
0.010397676341235638
0.010426808302290737
0.010443468606099486
0.010455918505322188
0.010463301776908338
0.01045258351135999
0.010434150914661586
0.010428940125275404
0.010445551155135036
0.010476357201114297
0.01049223766196519
0.010463506495580078
0.010410742561798542
0.010395447385963052
0.010432925545610488
0.01047813129844144
0.010500035127624869
0.010500951940193771
0.010490814063232393
0.010486079670954496
0.010499128876253962
0.010515412259846925
0.010515538172330707
0.010509819588623941
0.010509158067870885
0.010493789345491677
0.010456124921329319
0.010429492925759405
0.010448511263821274
0.010510020493529736
0.010566231503617018
0.010573472725227476
0.010558594355825335
0.010572083096485585
0.010598801157902927
0.010599035846535116
0.010589725247118622
0.010575558117125183
0.010571776977740229
0.010581916896626353
0.010596699777524919
0.01059406605316326
0.01056831781519577
0.010531751110684127
0.010492821622174233
0.010450134619604796
0.010420022658072412
0.010429389218334108
0.010459514630492777
0.01046544150914997
0.010446862359531224
0.010443044693674892
0.010470599213149398
0.010498903125990182
0.010502009091433138
0.010499523710459471
0.010520811909809708
0.01057195249479264
0.010632530248258262
0.010666700080037117
0.01066072472371161
0.01063628647243604
0.010625353702344
0.010634896717965603
0.010630353207234293
0.01058853030204773
0.010544211009982974
0.010540814441628753
0.01057655711658299
0.010606424398720265
0.010584131022915244
0.010530126267112791
0.010512929072137921
0.010541438383515924
0.010560061251744628
0.010548704080283642
0.010542975678108633
0.010566731318831443
0.010603308440186083
0.01063140160171315
0.010653394679538906
0.010669170233886688
0.010660104991402478
0.01062356253620237
0.010580885456874967
0.010553419983480125
0.010552318601403385
0.010567103768698871
0.010568209204357117
0.010540263513103127
0.010511603767517953
0.0105247459304519
0.010566082298755646
0.010586796824354679
0.01059080009581521
0.010612458696123213
0.010636220292653889
0.010632174334023147
0.010624315296299756
0.010643803894054145
0.010676077879033984
0.010699528828263282
0.010712339417077601
0.010709226636681706
0.010682265015784651
0.010649864729493856
0.010647128860000521
0.010675252263899893
0.010701770554296672
0.010720879447180778
0.010755948363803327
0.010797708430327475
0.01080336567480117
0.010765701034106314
0.01072908834554255
0.010725575529504568
0.01073884519515559
0.010739667476154863
0.01072696794755757
0.010721898346673697
0.01073552740039304
0.010758963853586465
0.010782769101206213
0.01080418590689078
0.010808379044756294
0.010785877625457942
0.010768351478036493
0.010786015090998262
0.010819239949341863
0.010839350877795369
0.01084189181914553
0.01083055764902383
0.010816609866451473
0.010809580911882222
0.010799306656699627
0.010782679650001228
0.010781998310703785
0.010804819336626678
0.010825145589187742
0.010824777150992304
0.010808547670021653
0.010786909232847393
0.01077955426182598
0.01079004573635757
0.010778569492977112
0.010723061063326895
0.010659657628275454
0.01062084418023005
0.010600782935507596
0.010587649811059236
0.010581451295875012
0.010587989655323326
0.01060701803304255
0.010630202631000429
0.01065799772972241
0.01069925704272464
0.010747721230145543
0.010774429512675852
0.010757756740786136
0.0107172325020656
0.010689789433963598
0.010689911167137325
0.01071045259712264
0.010725910926703363
0.010712947486899793
0.010683276816271245
0.010657936001662165
0.010641706332098693
0.010639007964637131
0.010644779566209763
0.010647883128840477
0.010658476650714874
0.010680929636582731
0.010691041955724359
0.010678920021746308
0.01066360044060275
0.010655185626819729
0.010649721366353332
0.010644142648670822
0.010633919618558139
0.010616498836316168
0.010596831520088017
0.010593406080733985
0.010619241551030428
0.01064674513414502
0.010646805418655276
0.010639411453157664
0.010647111057769507
0.01065772047964856
0.010663696306291968
0.010667553655803203
0.010659554414451123
0.010645578876137733
0.010647752629593015
0.010651813230942934
0.010623188496101648
0.010584892986807972
0.010600190067198128
0.010664760393556207
0.01070446940837428
0.010696058520115912
0.010693817047867924
0.010721441905479879
0.01073475984390825
0.010710035401862114
0.01067948050564155
0.010667542365845294
0.01066432636231184
0.010660177944228053
0.010667443638667465
0.010703401768114417
0.010758834327571094
0.010794945079833269
0.01078125708270818
0.010730671288911253
0.010673509850166739
0.010625915697310119
0.010604969395790248
0.01061713696923107
0.010637337455991656
0.010642399154603481
0.010643976915162057
0.010664123927708715
0.01069758516503498
0.010728578139096499
0.010759841171093285
0.010807733770925552
0.010902656563557685
0.011056749220006167
0.011201758473180234
0.011247227364219726
0.011190815523732453
0.011165855394210666
0.01110889760311693
0.011075636909808964
0.011174353118985892
0.011370864696800709
0.011522390332538634
0.011515335363801569
0.011500280580949039
0.011503993377555161
0.011528223427012563
0.011582834357395768
0.011651619239710271
0.011716117807663977
0.011776675931178033
0.011831038340460509
0.011854276820085942
0.01184346386929974
0.011832241145893931
0.011841422200668604
0.011866446030326187
0.01190252577420324
0.011955577430780977
0.01202257719822228
0.01207533004693687
0.0120920554921031
0.0120802236138843
0.012057834344450385
0.012039078776724636
0.012030671136453747
0.012035469401162117
0.012053547883406282
0.012082137991674244
0.012126834827940912
0.012193307555280626
0.01228619712172076
0.012419465559069066
0.012554196792189031
0.012571331346407533
0.012651674305088819
0.012798367575742304
0.012821288355626166
0.012784511761274188
0.012760705766268074
0.012774412243161351
0.012877024395857006
0.013000990583095699
0.013048753265757114
0.013023587588686497
0.01296406275825575
0.012914024288766085
0.012945840167813003
0.013061201102100312
0.013197096756193787
0.013291954025626183
0.013346579461358487
0.013370230940636248
0.013327250748407096
0.013355650291778147
0.01340169670060277
0.013485609604977071
0.013721352263819426
0.01410869881976396
0.014496816797181964
0.014749115018639713
0.014850539159961046
0.014862195984460414
0.014816300878301263
0.014804938994348048
0.014870249212253838
0.01503251452697441
0.015276843472383917
0.015513421192299575
0.015605874001048506
0.015638234135694803
0.015761458247434346
0.015853290578816084
0.015864959540776907
0.015809618376661092
0.01577847440261394
0.01579978138906881
0.015866227480582893
0.01587886314606294
0.0159359558718279
0.016124995239079
0.016358257154934108
0.016556605340447277
0.016687309718690813
0.016752244022209196
0.01679210564820096
0.016837110605556517
0.01684254402294755
0.016815505141858013
0.016765160067006946
0.01672000169986859
0.016685534408316015
0.01670457110973075
0.01682662634877488
0.0170193727244623
0.017211918535176663
0.017372547464910893
0.017533961264416576
0.01770480384817347
0.01779805716127157
0.01778864672873169
0.01774666590616107
0.01774738414445892
0.01768490580841899
0.0178007178963162
0.018102679210714998
0.018385603784117847
0.018501392032485454
0.018461264111101626
0.01853499827440828
0.018697817660868168
0.0189081719215028
0.019096239185892046
0.019245209591463208
0.01939804361667484
0.019516805808525533
0.01947020862950012
0.019542808022815734
0.01966549382545054
0.019768905851524323
0.01982535815332085
0.019823966082185507
0.01981230888981372
0.019857093608006835
0.019927160709630697
0.019911655227188022
0.019977635415270926
0.020134652380365877
0.02030392719199881
0.020434148479253053
0.020569144252222032
0.02077248166780919
0.02103406668175012
0.02131006807554513
0.02157426981488243
0.02175585726974532
0.02172586309723556
0.021930317934602497
0.022240891554392874
0.022510648514144124
0.02272129409015179
0.022921167437452823
0.02313852046150714
0.023305598353035747
0.023277855017222463
0.023479131455533205
0.023735704903956503
0.023952371142804622
0.024203560759779065
0.024572765447665006
0.0249879500688985
0.02526065200800076
0.025314868486020714
0.02528203256428242
0.025271483776159585
0.025237271566875278
0.025271156495437028
0.02527108514215797
0.025206136396154762
0.025145720003638416
0.025128734728787093
0.025245458451099694
0.025446485427673905
0.025650689480826258
0.02588246123166755
0.02620133979478851
0.026570001502987
0.026829146784730255
0.026831353046000005
0.026901946710422633
0.026945834814105184
0.02703347437782213
0.02740333817433566
0.027940378268249334
0.028355309958569705
0.028635758543387055
0.02887344061397016
0.0289759587100707
0.02901019797893241
0.029306366303935648
0.029743858233559878
0.030152907676529138
0.030401756970677526
0.03049569406080991
0.030486476551741363
0.03051743663614616
0.030695377327501775
0.03087153853382915
0.03093157278839499
0.03096878746058792
0.031120109404437244
0.031348515811841934
0.03147616423666477
0.03139251657528803
0.03117586979875341
0.031127950339578093
0.031467653997242453
0.0320370305236429
0.0326554970163852
0.03308637339156121
0.033244048745837064
0.03318742589326575
0.033024837442208084
0.03312007550150156
0.033317822518292815
0.033501142642926425
0.033500127121806146
0.03357752370182425
0.03374866093508899
0.033846585652790966
0.0338103875820525
0.03377727709943429
0.03381504518678412
0.03381583147216588
0.03381030020536855
0.033882756519597025
0.033985637691803273
0.03411426397971809
0.034336921779904515
0.03464702456491068
0.03485794936073944
0.03481913070427254
0.034858795071486384
0.03490083592245355
0.03492006967077032
0.034970842730253936
0.035051339238416405
0.03506836279528216
0.03503146411618218
0.03507290267618373
0.03510819361079484
0.03508561837254092
0.03496580281527713
0.03479899751255289
0.03488087959587574
0.034871093577239665
0.03486873112386093
0.03523872202495113
0.03574533717241138
0.036344283390790225
0.03699576365994289
0.03731328680645674
0.03722240112256259
0.037464150448795405
0.0376020452240482
0.03769355929922313
0.03769342297920957
0.03805204984266311
0.038738498343154786
0.03930017499718815
0.039313018184620886
0.039495113417506215
0.03956382580334321
0.039756330207455906
0.03990233266958967
0.03982694256352261
0.03971175963291898
0.039558468600735065
0.039136508961673824
0.039200070379301906
0.03973847808549181
0.04014268865808845
0.040203327231574805
0.040860462619457395
0.04155696870293468
0.04189524318091571
0.041876365854404865
0.04258549380581826
0.043541161415632815
0.044192436987068505
0.04438995470292866
0.044212982964236286
0.04433768637711182
0.04486619842471555
0.045488540125079455
0.04579091667197645
0.04585513738682494
0.046589455858338624
0.047652446816209705
0.047855751649476586
0.048488799098413436
0.04947465586476028
0.05024125883122906
0.05085200156783685
0.05115363481687382
0.05134004686260596
0.05208122426411137
0.05308050034102053
0.05413041810737923
0.054797677902970465
0.05494362527970224
0.05578053141245618
0.05652257394278422
0.05647319146897644
0.056743740071542564
0.05712553305318579
0.057369258031249044
0.05751371931983158
0.057652477654628456
0.05794245373923332
0.05837276310659945
0.05867639497620985
0.0587016242230311
0.058723627657163886
0.05870421301340684
0.058711405871436
0.058738569125998764
0.05862704208353534
0.05915389435132965
0.05963650995865464
0.05976565522607416
0.05968721766024828
0.05973393922904506
0.059837071292567996
0.059665575167164205
0.05962904389947653
0.05978121060412377
0.059984971203375606
0.059880875085946174
0.05984820899786428
0.05975463699083775
0.05989001910900697
0.06028764630900696
0.06172408080426976
0.0632622720533982
0.06373532166471704
0.06412300135940313
0.06445539231412113
0.06461348440265283
0.06506018964340911
0.06583569033071399
0.06652453589485958
0.06666196588659659
0.06667482256190851
0.06735287283780053
0.06823142839595675
0.06917459829710423
0.06958526618313045
0.0693746577273123
0.0691931163216941
0.06907471615355462
0.06923047486692667
0.06906048274366185
0.06931283144047484
0.07013047764310613
0.07085698614129797
0.07148875533835962
0.07182739125797526
0.07152548637008295
0.07161565176211297
0.07169931046431884
0.07184517538873479
0.0722892227419652
0.0727442120667547
0.07277303394861519
0.07311096680583433
0.07352175863692537
0.07370333834085613
0.07393766347551718
0.07440937489736825
0.07445313030853867
0.07469975913641974
0.0746259775548242
0.0754013424180448
0.07575878535164521
0.0756362948846072
0.07533432935131713
0.07541374601656571
0.07573812121292577
0.07598927059676498
0.07643156699370593
0.07658029220532626
0.07653697424801066
0.07676864209817723
0.07706479225074872
0.07704346320591866
0.07681068879319355
0.07671036347514018
0.07695586867630481
0.07668628088664263
0.07671560546616092
0.07677826393628492
0.07650377532001584
0.07650174071313813
0.07660575555404649
0.07677418323699385
0.07660060476278886
0.07636549566406757
0.07693393407622352
0.07783053749939427
0.07808980597183109
0.07781792073510588
0.07763014680705965
0.07782953922171146
0.07781004598597065
0.07845586739480495
0.07926174130057916
0.07969339625909924
0.07998421856667846
0.08020229470450431
0.08032038462115451
0.0816691742441617
0.0829448261181824
0.08322817171923816
0.0833824847615324
0.08399133325787261
0.0844709412008524
0.08467646581120788
0.08533905482850969
0.08572688593296335
0.08589210582664236
0.08628962471848353
0.08619970585685223
0.0863869179226458
0.08639325727708638
0.08638447650708259
0.08656930210068822
0.08638792860787362
0.08679122261935845
0.08750383818056434
0.08782764005474747
0.08794103314168751
0.08815984580432996
0.08815221260534599
0.0883295490895398
0.08873518250649795
0.08902898816158995
0.08944475565105676
0.08975826145382598
0.0903198902355507
0.09171609108103439
0.09244613915914669
0.09289506485685706
0.09392643793253228
0.09449542712187395
0.09477589585818351
0.09503904691897333
0.09492795061320067
0.09453999190358445
0.09423067698488012
0.0935463431593962
0.09321261720266193
0.09334232229040935
0.09338709887117147
0.09353402293287218
0.09373178873909638
0.09398013926809654
0.0935586832393892
0.09281652059173212
0.09227555808611214
0.09269122831290588
0.09310454586753622
0.0935559233580716
0.09345835296669974
0.09395881684031337
0.09487342392327264
0.09489484230754897
0.09565751776564867
0.09643112808465958
0.09601271150866524
0.09589782384689897
0.09589803622337058
0.09596007062355057
0.09564321313984692
0.09542388799134642
0.09504924224456772
0.09587809146847576
0.09602387843420729
0.095302338025067
0.09466434156754985
0.09475048706168308
0.09526690480299294
0.09517307538306341
0.09475220633205027
0.09421832953812555
0.09388093770714477
0.09406868303893134
0.09392764440272003
0.0933102615037933
0.0931534508569166
0.09288545965217054
0.0920492956484668
0.09105353071121498
0.09039713253965602
0.09053322162013501
0.09080608433578163
0.09024484178749845
0.08919716983567923
0.08867222343571485
0.08912844930775464
0.09002467976650223
0.08943503396352753
0.0890763227827847
0.08953061381122097
0.08917573326267302
0.08884063212899491
0.0884305741242133
0.08872404705267399
0.08903917734278366
0.08863982165930792
0.08848065982107073
0.08823745138244704
0.08815497930394485
0.08823442137800157
0.08812022225465625
0.08796656355960294
0.08787719321670011
0.08785903866868466
0.08750218687579035
0.08714697639457882
0.08692195279989391
0.08716874901438132
0.08776974698528647
0.08807160110212862
0.08820543743437156
0.08839958537369967
0.08855451509356499
0.08901046830229462
0.08941357258241624
0.08942592470208183
0.08992907285457477
0.09024719735374674
0.09020606896607206
0.08903051029657945
0.08760026996023954
0.08718910231022164
0.08686802979325875
0.08648742282995954
0.08657293768366799
0.08596871943213046
0.08570655555464328
0.08539746238384396
0.08494835075456648
0.08495062210829929
0.08404974459670483
0.08345692170085385
0.08299403177108616
0.08240234001772478
0.08269410175038501
0.08299698538146913
0.08328100825892762
0.08312146979849785
0.08322658329736442
0.08315874940250069
0.08261801547836513
0.08188967275666073
0.08130682055605576
0.08109739617677406
0.08140369957545772
0.08118750376626849
0.08098575949436054
0.08067032261751592
0.08028373749693855
0.07984766393667087
0.0802517273486592
0.08061804951401427
0.08034602604107931
0.08074356210650876
0.08159392080269753
0.08201103276805952
0.08227883909130469
0.08189338536700234
0.0818759581563063
0.081098998778034
0.08064725870266556
0.08126666425028815
0.08189082021359355
0.08167681497056037
0.081527789614629
0.08183428454445675
0.08195254972204566
0.08192093732301146
0.08158058134606108
0.08085282943444326
0.08013603296829387
0.07982843281934038
0.07976659707492217
0.07975038699340076
0.07959223041543736
0.07979213100858033
0.0793495767773129
0.07916849572909995
0.07925925291143358
0.07956787576433272
0.07991390992887318
0.07965479207225144
0.07988239055033773
0.08011966492282227
0.07955854017520324
0.07860015423502772
0.07852384084369987
0.07914486044552177
0.07956246857531368
0.07950434860773385
0.08053481277311221
0.08064998500514775
0.07949956289492548
0.07862371382070706
0.07796600453089923
0.07746577164856717
0.07733482911018655
0.07585293165175244
0.0751489978749305
0.07505329891107976
0.07527819492155687
0.07532413191627711
0.0748852392565459
0.07519548916025087
0.07494023138191551
0.074406700481195
0.07485108942724765
0.075403111143969
0.0757475362624973
0.0764826699718833
0.07785543370991946
