0.009941093502566218
0.009833822983782738
0.00977246777387336
0.009778963278513401
0.00980595167959109
0.009810717180371284
0.009817319686990232
0.009854832908604293
0.009898231257684529
0.009922175896354019
0.009919039553496987
0.009887116274330764
0.009874075811821967
0.009923083567991852
0.009993082631845028
0.010031961409840733
0.010029900667723269
0.010000268067233264
0.009977564408909529
0.009966572904959321
0.009943525402341037
0.009932853633072227
0.009960014871321619
0.009975587017834187
0.009928207474295049
0.00985388166969642
0.0098103037616238
0.009771441956982017
0.009698314589913935
0.00963432678952813
0.009623151016421616
0.0096461833990179
0.009660970917902887
0.009631999495904892
0.009586917301639915
0.009606921840459108
0.009700165034737439
0.009777042125351727
0.009786770944483578
0.009781645198818295
0.009797407314181328
0.00979212389793247
0.00975262331776321
0.00972656589699909
0.009737881172914058
0.009764991756528616
0.009779284158721566
0.009767328826710582
0.009753622093703597
0.009763913932256401
0.009744184748269618
0.009665459406096488
0.009652253820095212
0.009777603563852608
0.009901017099618912
0.009901691854465752
0.00984184909844771
0.009806431117467582
0.009776097310241311
0.009717307714745403
0.009668764183297754
0.0096609389455989
0.00965875173918903
0.009650520246941597
0.009679764825850725
0.009753225320018828
0.009818564120214432
0.009845462993253023
0.009863822122570127
0.009917800845578313
0.010001443815417588
0.010060205787885934
0.01004978931741789
0.009973183346446604
0.009881242753472179
0.009831717223860323
0.009836148512549698
0.009859972167760134
0.009873966756276786
0.00988908021710813
0.009919371807482093
0.009944990207441152
0.009945217077620328
0.009928128384053707
0.009914105436764657
0.0099160167388618
0.009927607874851673
0.009929109059739857
0.009924341121222823
0.009930578484199941
0.00992138361558318
0.009874231405556202
0.009849854721687734
0.009914563265629112
0.010017681163735687
0.010034231799654663
0.009941715903114528
0.009860428951214998
0.009863987709395587
0.009890616743359715
0.00989125307649374
0.009893448343500495
0.009902504440397024
0.009902824449818581
0.009927601707167923
0.009991076495498418
0.010028394453693181
0.010010539097711444
0.00999270485015586
0.009994857939891516
0.01000027930131182
0.010020093063358217
0.010031843944452702
0.009992179584223777
0.009917674753814935
0.009851343561895192
0.009824240505695343
0.009831203138455749
0.009817832028493284
0.009779283292591572
0.009787010380532592
0.009854998055379838
0.009905880715232343
0.00990485811373219
0.009917110381647944
0.009973584667313844
0.01001245699590072
0.010023865443654358
0.010080817816779018
0.010192323182709516
0.010280824832152575
0.010304484602529555
0.010305372851435094
0.01033720547100529
0.01038690445246175
0.010387322765309364
0.010308956482913346
0.010206945994868875
0.010142348005902023
0.010110525207128376
0.010101816637907178
0.010131515893153847
0.010171997945290058
0.010176872285082936
0.010151454072911292
0.01011873447103426
0.010088937911204994
0.010084513674955815
0.010116261101793499
0.010151562290266156
0.010168519336730242
0.010195160789880902
0.010236733797937632
0.010244834693148732
0.010212060178164393
0.010189501554705202
0.010188396445009858
0.010189488434698434
0.010211000153794884
0.010245728567242622
0.010238419885281473
0.01020086275646463
0.010216189676430076
0.0102960563194938
0.01034470168640837
0.01031722302781418
0.010292884225491435
0.010306979983579368
0.010282315630465746
0.010186943369917571
0.010082941080909222
0.01001848884159699
0.009996728056576103
0.010013684132136404
0.010061128796078265
0.010133207747712732
0.010231988185551018
0.010325590807478875
0.010345397819764911
0.01027857489651069
0.01021382762119174
0.010222471551969647
0.010246278613340109
0.010211166422814132
0.010167844025418163
0.010182564258575439
0.010212484486401082
0.01019895967328921
0.010151851761620492
0.010107575976289808
0.010103517475072295
0.01015210592886433
0.010185058375354857
0.010129737767856568
0.01004509158199653
0.01003678771900013
0.010088501223362982
0.010109903870616109
0.010094046890735626
0.01010978314327076
0.010171310286968946
0.010241490656044334
0.010308510928880424
0.01035490008071065
0.010346159390173852
0.01029495769413188
0.010243454908486455
0.010192104750312864
0.010129818364512176
0.010090014801826329
0.010092839153949172
0.010110204953234643
0.01013307907152921
0.010160875376313924
0.01016078966204077
0.010130887918639928
0.010107629483100027
0.01010413866955787
0.010131892377976327
0.010200567129068076
0.010250084984581917
0.010206841442268341
0.01010823466349393
0.010046791587956249
0.010029559668619186
0.01001386612188071
0.010004066615365445
0.010006838601548225
0.009989009131677449
0.009940876918844878
0.009898895346559584
0.009888042055536062
0.009897808153182268
0.009907887130975724
0.009900749400258065
0.00988170992815867
0.009898076965473592
0.00997618216322735
0.01006125430809334
0.010093013723380864
0.010088439995888621
0.010098084686324
0.010133387905079871
0.010161835935432463
0.01016071294201538
0.0101438134489581
0.010117732353974134
0.010066419148351997
0.009996492702048271
0.009954545272048563
0.00996806735638529
0.00998229813296348
0.009935847262386232
0.009873325536027551
0.009870185763575137
0.009922697166912258
0.009979575779289008
0.009982490341644733
0.009912879441399127
0.009857546421699226
0.00991262933705002
0.010033465409651398
0.010094278717879206
0.010061749336309732
0.010026938575319945
0.010053697042167187
0.010081015559844673
0.010051832317840308
0.010024162030313165
0.010058262252714485
0.010126772313378751
0.010193661418743432
0.010250307389069348
0.010280591805931182
0.010277048635762185
0.010245232884772122
0.01018456096528098
0.010113778391387314
0.010081679015420376
0.010098280033562333
0.010097148371860385
0.010048669860698283
0.010036929892376065
0.010109914673957974
0.010181842274032533
0.010201585919130594
0.01022469145944342
0.01026286352891475
0.010280496999621391
0.010283915421459823
0.010269496534019708
0.010222779791802169
0.010199004923924804
0.010244447703007609
0.010298323293682188
0.010305481455288827
0.0103011085675098
0.01031801943667233
0.010326361164916307
0.010286622950807213
0.010218725653830916
0.01016889225691557
0.010128784286789596
0.010071540642529726
0.010012802053242922
0.009976348243653774
0.009963694114703684
0.009971461752429604
0.009998261202126742
0.010029313096310943
0.010050928762648254
0.010074336652178318
0.010093937329947948
0.010101404148153961
0.010145645113661885
0.010244151591323317
0.010327770381700248
0.01035558019997552
0.01035057136323303
0.010326162995770573
0.010283805807121097
0.010244319629855454
0.010223769401200115
0.010220279234927148
0.010235752423759549
0.010270255794748663
0.01030371705070138
0.010308403172530234
0.010284152743406594
0.010264868410304188
0.010266045758035034
0.01026513458462432
0.010253592838998883
0.010254569156095385
0.010289033444132656
0.010342555532697589
0.010368590515572578
0.01035577793372795
0.01035440518753603
0.0103840312641114
0.010388946805614979
0.010328334611840547
0.010236316891387105
0.010172752286307514
0.010153509362135082
0.010145534686744213
0.010124846994876861
0.010106518436223268
0.010117199432570487
0.01016389821190387
0.01021885260939598
0.010245850826613605
0.010238061547279359
0.010205623861402273
0.01015665064798668
0.010101669549476356
0.010064660117495804
0.010073693699669093
0.010126888691447676
0.010184475353453308
0.010202877793926746
0.010187273831106722
0.01018426838098094
0.010199453469831497
0.010182304589543492
0.010105751280207187
0.010019549885764718
0.009998276971746236
0.010038047714624554
0.010073999532032758
0.010079702779185027
0.010065585763659329
0.010045159254223108
0.010044417246244847
0.0100782924820669
0.010112960184924304
0.010093558512162417
0.010025971299037338
0.009994492710102349
0.010059304013848304
0.010168830319307744
0.010215614344924689
0.010159281035885214
0.010070613278076053
0.010043030804954469
0.010059407972730696
0.010034597325138749
0.009982394149992614
0.00997584116179496
0.009993692815769464
0.009981894434895366
0.009965657943394036
0.009966880816500634
0.009952147116418928
0.009916056350339203
0.009878445288632066
0.009841449519153684
0.00982052625855431
0.00983760912436992
0.009876514116767795
0.009881881438195706
0.009824238948058337
0.009771555145271123
0.009806367978453636
0.009892913696821779
0.009946836987510324
0.009965043761767448
0.00998545987997204
0.010005982441361994
0.010016775378026067
0.010021265563555062
0.010003515027929098
0.009969005533494056
0.009950229045934976
0.009929556353017687
0.009883527623023837
0.00985900559462607
0.009893841126468033
0.009939847521018237
0.009942822388838977
0.009945362836588175
0.010026987851597368
0.010161803655792027
0.010232641426846385
0.01018701149849221
0.010094717913307249
0.010047187600284814
0.010064204153604806
0.010108555622864515
0.01014866222627461
0.010174970063380896
0.010167567366734147
0.0101122264447622
0.0100368837476708
0.009971908766310662
0.009919666138011962
0.009871883857995272
0.009819482695311308
0.009765736851841211
0.009723186718765646
0.009698999435640872
0.009703072856646032
0.009745185091160237
0.00981275361031294
0.009878919506445528
0.009932024283334612
0.009971034270711243
0.00998871827730909
0.009978009620681405
0.009939998604822904
0.009893975800368935
0.009871882209554315
0.00988969350932166
0.009945502115879207
0.01002557332161814
0.010097997304983437
0.010133200089912862
0.010134465834125876
0.010116903837770223
0.010075754150748253
0.010014842892996968
0.009952848027460277
0.009896821528673171
0.009866431241389364
0.009895300692878663
0.009977653683163225
0.010059783533215523
0.010096408822573722
0.010099527218844741
0.010112495385110378
0.010146285949740558
0.010181893527042121
0.010208174544386566
0.010205105503555387
0.010148533780593424
0.010075682206079364
0.010063077833037823
0.010123498197644949
0.010189705502707511
0.01019100917968899
0.010135602375958114
0.010114013645797969
0.010187897789292038
0.010305265500210225
0.010370881010312588
0.010371499634347857
0.01037967054406181
0.01043569905916229
0.010485994548071175
0.01048052920261398
0.01044702177401632
0.010408657216466964
0.010362151642329991
0.01033858872950077
0.010351594875101
0.010365180419757963
0.010369726463686675
0.010380943194031716
0.010387777269352227
0.010389441135339439
0.010422098701819777
0.010487890802323818
0.010520399629604072
0.010473481824155896
0.01039457535604015
0.010358642912469804
0.010364655542653055
0.01035720570711419
0.010322970373090356
0.010292129653971643
0.010288230294827371
0.010316932660061865
0.010349395445082336
0.01034667564323172
0.010316876587457955
0.01029182466911152
0.010282467768993228
0.010282179925125092
0.010279803364537656
0.01026665822835639
0.01022396979155019
0.01013932375703007
0.010054902376141399
0.010026275953277946
0.010049780004192144
0.01008050485746935
0.01008344424655661
0.010059245273005217
0.010027716816402972
0.009985910411924124
0.009932969964575022
0.009914670642465352
0.009949712795205415
0.00998582946602255
0.009997440692968667
0.010012480639852583
0.010046681589446962
0.010085231901612132
0.010101945516653358
0.01010174690745771
0.010125536031555384
0.010171078857965768
0.010177543004974723
0.010126890456303954
0.01007553460309282
0.010061660769861192
0.01006140092620626
0.01005023777950555
0.010042582587338984
0.010055440014693886
0.010075226482003928
0.010075216048862785
0.010039625051431357
0.009972485264297575
0.009902644322719424
0.009856401067227126
0.009829480494372546
0.00981379802338779
0.009812769689597189
0.009821860920637845
0.009838683465495705
0.009872978567145765
0.00991612857207656
0.009932091683149338
0.00990772879915312
0.009885870430152863
0.009899480340536684
0.00991028867661953
0.009874824834987521
0.009803539500571787
0.009725338099524378
0.009665636201389135
0.009646089493762701
0.009675688433926553
0.009745626242365689
0.009816036624833942
0.009846138532739133
0.009849478886462749
0.009859780112747104
0.00988383955322206
0.00992258189478889
0.00995809790911153
0.00993484687525779
0.00983284188900143
0.009719931131694465
0.00967031450709328
0.009672331109177321
0.009674039639066904
0.009678768473677338
0.00971985685173422
0.009788779600057751
0.009855795588809996
0.009899535086005926
0.00990894928574562
0.009914270220324397
0.009962315042503177
0.010037096831947565
0.010089819768909365
0.010122871103230863
0.01015483106020838
0.010163207163568586
0.010131391200702637
0.010095865807961672
0.010103051653131842
0.010130651160143316
0.010097993651870639
0.009994200216606259
0.009907758205663413
0.009892587014473975
0.009919626258779317
0.00993978846585378
0.009925728123635054
0.009887326930183918
0.009838685125578195
0.009784820582717657
0.00976176104741171
0.009778112743515522
0.009771163337863981
0.00972846577409655
0.009721544755157083
0.00977693140739575
0.009837303292006255
0.009863910691346973
0.009888976253569126
0.00993251685751602
0.009967618391383439
0.009993480748962611
0.010032411722932011
0.01006670621689409
0.010070836932864041
0.010071668680757285
0.010102740626316518
0.01014739098260179
0.010175433410331607
0.010179801974445582
0.010158825498074293
0.010111389621160925
0.010057763441000133
0.010026835976168514
0.010016773787792772
0.009998815441504121
0.009959499211981892
0.009924693757202476
0.009920707889832556
0.009919006524141879
0.009889511836227029
0.00987173462053761
0.009902235029730946
0.009940361413173377
0.009937243477907032
0.009911027546040714
0.009905950035899877
0.00992387606529519
0.009934004303067923
0.009925813148729503
0.009915716715622693
0.009917817618697882
0.009941523168236018
0.009989251631777734
0.01004148282809183
0.010075421356596052
0.010078888221178204
0.010047142354305833
0.010001936214976012
0.009970874055288731
0.009947853616904468
0.009926399053074419
0.00992602929007262
0.00995207455707714
0.009986391610000282
0.010029450347647071
0.010086424802429973
0.010120645917486399
0.010094010676257313
0.010017453120090067
0.009934168108738959
0.009889541021548211
0.009877669201232493
0.009840850478503853
0.009765309356153011
0.009693331776652485
0.009654911307152361
0.009673393229022623
0.009761609435081482
0.009856192546430975
0.009868098392616957
0.009818907061126083
0.009796544625423849
0.009804543994832784
0.00980195051059127
0.009800074531231075
0.009799944988917559
0.009772249499801546
0.009735993689391763
0.009730015955865383
0.00974232744658366
0.009738489731680601
0.009701700755394995
0.009629153518471868
0.009549751905724406
0.009529425299260765
0.009587147869169713
0.009648152058944107
0.009656485572922974
0.009664174856152386
0.009739527986384928
0.00986759045626968
0.009984496657270938
0.010026128739118576
0.009966909578070044
0.009870389262214303
0.009821852440945805
0.00983090583467856
0.009875344880856573
0.009942703514825553
0.009978739763610064
0.009938281713984906
0.009885905818082392
0.009894096748903394
0.009936553374864161
0.009974614067468792
0.010007557722274215
0.010019142511300743
0.009990983286406845
0.009962061145342887
0.009978142532054335
0.010011113788932562
0.01001975852297619
0.010025375178083778
0.010046116905286909
0.010034439004957676
0.009958758559077978
0.009881280264817178
0.0098721973458305
0.009910922972485423
0.00994646854698658
0.009968488633166999
0.00997823047451675
0.009980136533267797
0.00999007107457146
0.010004755407571793
0.01002165004145354
0.0100632816250436
0.010122355837374926
0.010162241037469356
0.010177333992905914
0.010180463469587266
0.010170727986842393
0.010155984368175268
0.010161012536846101
0.010188490254804491
0.010215742897707969
0.010234066389966757
0.0102474685292691
0.010256670182570815
0.010274622980505228
0.010301287996117025
0.01029617658816278
0.010246016052551567
0.010190136712044478
0.010147937431465835
0.010125652959104628
0.010151305655017494
0.010210718780290335
0.010245479869190603
0.01024641836527735
0.010257151196710765
0.010290868689771741
0.010303191321436317
0.010262748815584928
0.010199192070867866
0.01016019872855395
0.010162955855485052
0.010172488735988736
0.010153548060916364
0.010139361054170877
0.010150119778700173
0.010144400126300752
0.010117424516938627
0.010111530299764127
0.010141298808157444
0.010177576364949346
0.010189149677753449
0.010196126769296826
0.010241489859763532
0.010312108965590596
0.010359759298153222
0.010373402831610291
0.010373474226798862
0.01035194423282519
0.01029184379382059
0.010237562502734363
0.010230256598442794
0.010234197203535586
0.010218024272471666
0.010194793632254005
0.010170070137828589
0.010146911111660302
0.010150700118392706
0.010191044269595296
0.01022235426818952
0.01020648585166782
0.010181895641144365
0.01018638129811734
0.010185534567572176
0.0101565029239282
0.010129100785125047
0.010111982938833535
0.01011062331032008
0.010155826206319035
0.010215449226088823
0.010209473439026624
0.010144697523210199
0.010107515240088105
0.010119307623244821
0.010133751332759858
0.010159121749456972
0.010212850775569677
0.010238259092438966
0.010192345073446631
0.010108045923989267
0.010037150364369155
0.009994900331366807
0.00997006799792871
0.009953382993116974
0.009934977313969284
0.009906884317751974
0.009864571653306484
0.00980510858586058
0.009762144039850682
0.009788413546048105
0.009867753123398871
0.009931015141773969
0.009948757565580309
0.00994496698724106
0.009964762961026281
0.010030128946527838
0.010099604751449078
0.01012015137821436
0.010094652583356947
0.010051377781201154
0.00999968804884702
0.00993379914900288
0.009878582663368433
0.009895851011388004
0.00997307664481923
0.010015678962226958
0.010003408379852773
0.009985729549080134
0.009965492102783174
0.009930869154632092
0.009901183056645096
0.009884724845178425
0.009879108157474548
0.009892105937469751
0.009905733841005713
0.009887686129659415
0.009851368602830916
0.009838277634698897
0.00986231833929196
0.009907300139311702
0.009957930033560842
0.00999014536384493
0.009969246997497976
0.009911476711276918
0.009862549039535224
0.009816848596092314
0.009771644999273122
0.009771506078541279
0.009807032754179091
0.009808893876615911
0.009763761560898275
0.009720854458864779
0.009726977732498199
0.009784187474288046
0.009845809016842394
0.009892861968837678
0.009947555735707284
0.009991409126669168
0.009987392982002347
0.009951186149846762
0.009925832627341152
0.009918252858333289
0.009886945709586143
0.009816845301538707
0.009763638032600283
0.00975673329550773
0.009743468137457967
0.009691132267471403
0.009660681502427906
0.009703813553787768
0.009762774589471519
0.009785018740221857
0.009803733502049
0.009818710444960743
0.009793027595151216
0.009761493292171509
0.009777565894182771
0.009830179437994958
0.009880817101802677
0.009899247055873275
0.009868537436705082
0.009808467424008996
0.009763899690005929
0.009747759781312197
0.009732418507337571
0.009712479333393276
0.009730985956266522
0.009805170448962598
0.009876014329493046
0.009894539001397789
0.00989770312095061
0.009915641259867698
0.009904180320445448
0.009862025801558047
0.009854005132801831
0.009871196106541903
0.00985621074680239
0.009830926838330924
0.009849710362032056
0.009902885383926332
0.009946860927157105
0.009960978187154978
0.009946756458375602
0.009925235398113727
0.009926789333112538
0.009954371904022992
0.009993515645619481
0.01004648786270991
0.01010396467987448
0.010134998024441302
0.010141717784572393
0.010143980213906617
0.010141518013551832
0.010145332638639957
0.010156099700834602
0.010147146133240312
0.01012648902600631
0.01012813889887184
0.010160591893363744
0.01020081724273041
0.010212771764490753
0.010207819822244345
0.01022017579525709
0.010196089546661824
0.010078199601266533
0.009992538993246853
0.009993865170981735
0.010092670337762684
0.010162126005161554
0.01015808254480362
0.010148948743008077
0.010187860764563083
0.01025416597025469
0.010303648002445698
0.010314163160510361
0.01029694801894948
0.010281916996464134
0.010279657756909729
0.01027220506221056
0.010240888928528875
0.010177832739427685
0.010109693466220052
0.010099166778381914
0.010155705220531672
0.010218309732154011
0.010254543540067971
0.010272535879630595
0.010282548046670854
0.010318099425639958
0.010410631019622087
0.010519980415701867
0.010571404923684895
0.010566434909123927
0.010559286749921739
0.010532979930285364
0.010433573618065566
0.01030025590211153
0.010235773669555782
0.010268459343351424
0.010309208331163973
0.010267778935376554
0.010181683448608965
0.010142077773343772
0.010147631647996605
0.010152960421983152
0.0101635207911022
0.010197660138364881
0.010251142878551035
0.010305860945954919
0.01034041947685182
0.010370516746770591
0.01041381172137335
0.010426353616639971
0.010395280728116631
0.010388037138618529
0.010432866169139743
0.010475687626749277
0.010465618588496
0.010421129141468555
0.010402252797503024
0.01042912329081446
0.010465917487163096
0.010483983079902828
0.010481678228825331
0.010448660633992404
0.010377939282916486
0.010285745856817812
0.010190537264570594
0.01012289775069803
0.010120884238276631
0.0101726577244699
0.010225645797327161
0.010256478537339717
0.01028121629031375
0.010317737637087702
0.010368289323523641
0.010422495352104306
0.010457736235111951
0.010464006299152971
0.010469042286276818
0.010486669414676726
0.0105036880960688
0.010535028832964598
0.010573932614643127
0.01055730463238433
0.010473762869369239
0.010396864307112992
0.010367828579619527
0.010341935919132083
0.010289546449203045
0.010250635908450932
0.010257181108463555
0.010290294799488038
0.01030891185393557
0.010286343549378216
0.010238312452565878
0.010210577517282217
0.010212515015155077
0.010192322423681616
0.010141806367319078
0.010135932858102024
0.010184835251420736
0.010203321108128875
0.010185524330008775
0.010227094846777618
0.010299738112371415
0.010352192802820355
0.01029136062366888
0.010215957628097384
0.010214337285142393
0.010249352806713432
0.010262623492162675
0.010242405175231397
0.010191972854081542
0.010151553354226052
0.010167681172024459
0.01021147999446839
0.010224863975308836
0.010199351340997965
0.010174078838899732
0.010188741928432136
0.010227245164569467
0.010245637493208051
0.010239948523230851
0.010214517342392355
0.010160844875499606
0.010107882919255644
0.010092939129099249
0.010096601545810699
0.010071553918533028
0.010013964271638542
0.009969552103430033
0.009959279340691865
0.009961034993175417
0.009984570152591915
0.010066666586790235
0.010178686461877078
0.010234226214233786
0.010203223912976683
0.01016400385648012
0.010206123490352183
0.010298615458887071
0.010350026725791394
0.010355133172124624
0.010350589749868959
0.010337996380403638
0.010321398840751499
0.010300516760908067
0.010262032889295369
0.010230578519403934
0.010237240979913622
0.01025891545927152
0.010263808995950967
0.010250893242191523
0.010214830776676535
0.010151531894225628
0.010106033876072616
0.010125352335162461
0.010170520911924542
0.010183004948776215
0.010185239408165216
0.010211260707583278
0.010231812100391835
0.010226793382316827
0.010239708563312888
0.010294827283360064
0.010341310142539441
0.010338288620114327
0.010306942802853882
0.01028044088743627
0.010284547139890491
0.010331399207934737
0.010398661580402403
0.01044486790895462
0.010434175003319978
0.010366582174319773
0.010294043635949492
0.010267818125430494
0.010267287879250943
0.010220419713295997
0.010113976947031915
0.010014593601226807
0.009961074141319842
0.009936991017311811
0.009935182672925293
0.009958736768458038
0.00998881753301248
0.01000408205203712
0.010019876337610185
0.01006041032494977
0.010104903979226946
0.010118130615446717
0.010095914350822568
0.010058267556596548
0.01003291274420917
0.010034069025423378
0.010052490830421448
0.010075382818467916
0.01010057189501822
0.010117867905646562
0.010103933864738792
0.010066928963642568
0.010056737372651696
0.010089959029573946
0.010117169797886162
0.01009552731178701
0.010034794395323843
0.009976302557624876
0.009959939452819526
0.00997969654854387
0.009982734622899442
0.009945299245882779
0.009914688905701042
0.009924221821129321
0.009926303492393344
0.009892743008676916
0.009870749399997294
0.009884325156453997
0.009917701156809925
0.009958777327556163
0.009979858703445643
0.009970824683550745
0.009957014166284353
0.009941974885296077
0.009928781609050929
0.009946602678392083
0.00998196256812662
0.00997271328466013
0.009910942655988037
0.009864684795029461
0.009875941760838032
0.009918316514231265
0.00994496833300218
0.00993185094324872
0.00988706197589636
0.009826488110702485
0.00978227613028139
0.009806577572599054
0.009889830418396741
0.009938496451359241
0.009893640757072717
0.009808527769055218
0.009761015982367099
0.009756867126561701
0.009759330956730991
0.009746539501938968
0.009735199736896903
0.00975905102211982
0.00980449992697686
0.00982620679307729
0.009820282387081533
0.009816267909482122
0.009834208423271776
0.009875684597063809
0.009934883306268603
0.010000776660162955
0.010029499789234252
0.00997008367208764
0.009851617680396885
0.009760623346082867
0.009727673560846598
0.009720627160277218
0.009716026484966278
0.00971712992992252
0.009725164026021957
0.009724596065934748
0.009726036221254617
0.009775736690498889
0.009871237254701555
0.009933703416027128
0.009895802065730095
0.00978975452715531
0.009703621859662235
0.009666615205351264
0.009666537616867572
0.009702309397980571
0.009742656527087092
0.009748987418133766
0.009736374034546316
0.009744492778554558
0.009803958053234965
0.00991244744276628
0.010014780217316001
0.010062625699210912
0.010067764904815703
0.010061410877387971
0.010050751504022628
0.010037751842755824
0.010037570567801595
0.010047684099990874
0.010045514130033552
0.010047024278901518
0.010088033149950206
0.010143169616349042
0.010173820541240275
0.01019052553921938
0.010176624122541398
0.01009810043266043
0.010008321949280799
0.009968444465193897
0.009935252347495406
0.009868141838815063
0.009812082755379379
0.00980749712092802
0.009846765040419996
0.009917111354880034
0.010012185906525702
0.0101029770122841
0.01013429593993351
0.01009224096313119
0.010038132204208523
0.010018658542539924
0.010007345350459218
0.009989708978682756
0.010016662552952766
0.010105693119112403
0.010176563155837356
0.010169179162476212
0.010135362891014665
0.010147299128584563
0.010204828788992017
0.010259888945147394
0.010284249109681697
0.010294075380079449
0.010312989784870297
0.010332127129659056
0.010319333041552454
0.010289908875711263
0.010314863354433329
0.010400032254401594
0.010463911481201649
0.010461179323028773
0.010426390382926911
0.010410521049052476
0.01043346612714231
0.010483973887749016
0.010518139062914997
0.010473074170295148
0.010341818595770746
0.010226993144024164
0.010217703846283257
0.010289593269117176
0.01032776566920802
0.010302909647580237
0.010291159127373248
0.010331168577540666
0.010356569052673877
0.010309808240272104
0.010247987513430416
0.010234404529910535
0.010222279392182827
0.010181028053630144
0.010163800013251602
0.010171009856276215
0.010147317820228636
0.010095671124290675
0.010070851959753782
0.010099727306514978
0.010149414828047156
0.010198110952042044
0.010285913350526244
0.010407882137224078
0.010475703903939575
0.010457111443392932
0.010415182430297137
0.010405459981411696
0.010415594484657049
0.010393883488141
0.010327788561116904
0.010272665489464998
0.010270292514469474
0.010285535240545868
0.010281799731310458
0.010286733640823513
0.010301462521310896
0.010274430913850665
0.010228312907274812
0.010235517150722444
0.01029114330885932
0.010354196319822222
0.01040781122399494
0.010427060888614505
0.010399188855662942
0.010353716020472348
0.010322058098390699
0.010317976120859385
0.010335353133268655
0.01033095876686275
0.010273918295279145
0.010201782528311014
0.010156129112001509
0.010117761332076043
0.010074481093324721
0.010058282429818065
0.010063695167191326
0.010059365488123148
0.0100821493845433
0.010177119667641819
0.01029232248198241
0.010361146635841579
0.010419166958890856
0.010520345931872725
0.010612484642770141
0.010613266725558788
0.010545540945604443
0.010491416896693409
0.010474219697061925
0.010477836795616894
0.010502812550403178
0.010544935627840459
0.01058695413172245
0.010611632026266306
0.010605509211309254
0.010576183437369763
0.010536468331702053
0.01048417182872072
0.010439295645337552
0.010430211329367011
0.010435892036184669
0.010420459329616279
0.010383827642071993
0.010337652582675218
0.010285417141858488
0.010248114427085966
0.0102589762955904
0.01030693853739649
0.010351516695227474
0.010379560426808893
0.010378390706609935
0.010333091977518052
0.010270664107520134
0.010237051115836948
0.01025859851622954
0.010322811424266547
0.010379526896867901
0.010389294412452727
0.010360379943158478
0.010338259148411452
0.01035873495740816
0.010393959307111799
0.01040675729745999
0.01038954638177529
0.010388732294086368
0.010418211268261075
0.010436455591116101
0.01041370867518708
0.01037276695482433
0.010349791154731065
0.010334134257864207
0.010308215867262334
0.010309402162674815
0.010327393733896316
0.010289018258918077
0.0102259211987257
0.01022439813008532
0.010261425829958171
0.010276684323325753
0.010280139225069434
0.010302694991696625
0.010315701877698303
0.010247014320921153
0.010108975879848003
0.010022355464752764
0.010040827356278896
0.010086840956937522
0.010087936369236558
0.010049047835636885
0.010011481286492199
0.010007091478910298
0.010011582768056542
0.009977197390981019
0.00994560853112489
0.00998349636560306
0.010039006690494717
0.010059264490846544
0.010102204312570393
0.010175635174382478
0.010200979937799275
0.010186602054163814
0.010191827442031353
0.010187796161044389
0.010137551231309772
0.010084174058865756
0.010080496326554566
0.010121319515164942
0.01014201798243448
0.010095769937615842
0.01003753430908546
0.01003927887417376
0.0100716288597323
0.010075288696680219
0.01005252794129774
0.010020854922477156
0.00997828466584906
0.009936117073521019
0.009915170618332922
0.00990915090078488
0.009887570652645082
0.00984932439867407
0.009840017303358763
0.009870934342034161
0.009887437908910215
0.009867542800493538
0.009853401666041463
0.009867699267342687
0.009891529846936465
0.009902434807736426
0.00988130206009373
0.009831644294317812
0.00979389199987054
0.00978473743190989
0.009780719249974937
0.009785232620779426
0.00980949509423226
0.009823942144867032
0.009814223756548017
0.009810015892144293
0.009820604431442916
0.009815151423681527
0.009777901261113584
0.009730644149240106
0.009705493596848101
0.009720006329007446
0.009754550219513476
0.009759750659577548
0.0097226039506495
0.00969094477361068
0.00969431433128193
0.009703830876387655
0.009695578427053987
0.009673453895375132
0.009635653547011316
0.009585815775208175
0.009549215233419091
0.00953912387834862
0.009539470621384681
0.009545847550034523
0.009578761919401586
0.009639138565398752
0.009699537879787385
0.009745374685153366
0.009781338979955763
0.009789206949062646
0.009740392938256263
0.009657891904935241
0.009603329587262123
0.009612932002637535
0.009674116161186248
0.009736166426446289
0.009732708833180368
0.00965914542786777
0.00962679564487189
0.009704963774420322
0.00978586494224146
0.009775481235701591
0.009732306085061282
0.00970763343386352
0.009673493071459234
0.009627177014481276
0.009611057445872574
0.009654352946672589
0.009743962092325092
0.009833970370236785
0.009898334443569183
0.00995399899315089
0.010009102260228246
0.010048399788793176
0.01006716824369505
0.010066797754261643
0.01006692563649267
0.01010395734803751
0.01014461879618466
0.010122167586814612
0.010068729086779058
0.010038926028646528
0.010002957843244075
0.009939140197820962
0.009881652200128883
0.00983740621013567
0.009790791836567224
0.009764182870276273
0.009771573087200523
0.009784696027636527
0.009790152146015316
0.009800679367035627
0.009820641814731062
0.009847096905577928
0.009880679342895746
0.009920033714734018
0.00995164318708703
0.009959752622526139
0.009952383656054735
0.009953074804507196
0.009969755671918393
0.009986427631229162
0.00997220998397097
0.009916833734605461
0.009870341485366226
0.009882280786987394
0.009918944381643086
0.009931010901927948
0.009931039286311717
0.009950526801403611
0.009990938790142536
0.010012683642562479
0.009979532356373966
0.009926484995521605
0.00992534538730979
0.009987755340989678
0.010041770269162953
0.010030321767553687
0.00999875248875469
0.010007899180054665
0.010035096120554953
0.010045000514946879
0.010053330846130849
0.010071418695151806
0.010097022880800069
0.010150630993302911
0.010231741110328586
0.010296425002161413
0.010316583428066224
0.010304269429761917
0.010274484264664352
0.010221299307886511
0.010148824930656702
0.01009168745484203
0.010068110032007098
0.010054544997401535
0.010037566041573883
0.010041993353515863
0.010074657734949142
0.010089912856929005
0.010055498715955765
0.010016644925344735
0.01003019216004759
0.010057845294941217
0.010026606924366206
0.009960646682884544
0.009942779873963446
0.009980175020173192
0.009996213428676128
0.009964932098519057
0.009962146936450153
0.010043664155527949
0.010167016657069325
0.01025161447469145
0.010262912167236208
0.010239197118207812
0.010246535178739578
0.010290011996403337
0.01029219760093838
0.010224286103621125
0.010172060874756425
0.010192653525155037
0.010238035484217107
0.010244120326824487
0.010207852378953249
0.01017913012066856
0.010183764786925167
0.010190284005366266
0.010159226406831295
0.010080186005216091
0.00998727916739881
0.009930219671223312
0.00991249511251226
0.009910836135968566
0.009929466210305691
0.009968588342890144
0.009986870491411537
0.009966157211456448
0.009953559534624219
0.00997092470759526
0.009976392837706953
0.009954323801212013
0.009928362010978162
0.009909210419282317
0.009906934003811329
0.009937852511648089
0.009989806341473013
0.010017634278628975
0.010003678482025862
0.009984304546378553
0.00997624158859253
0.009964169810991734
0.009965867288410663
0.010002793313469737
0.010051872080657632
0.010070580181200058
0.010036377697251736
0.00998600388178602
0.009971652049571275
0.009974141418933869
0.009956601895391942
0.009945681476965547
0.009982473840937018
0.010055877983104438
0.010109286902006716
0.010105281693395227
0.010073423970025032
0.010062541116494685
0.010083456041757017
0.010106960118282587
0.010095437965355813
0.01006038196850568
0.010046811567153782
0.010057942748535425
0.01005753762088716
0.010023796560708433
0.009982286589220166
0.009983222915325314
0.010025107224937529
0.010047099986113608
0.01001672773854807
0.0099626456736587
0.009924971729051322
0.00992134649772197
0.009939237628132105
0.00994572760304436
0.00993125912733376
0.009931695566046983
0.009975143489427865
0.010031611076556146
0.01006584926508367
0.010108415407594294
0.010201604180037975
0.01030058993725106
0.010326390892732889
0.01029589057667181
0.010276404484175146
0.010266983471810818
0.010246223018039019
0.010246211960911751
0.010287438845261931
0.010315309821162372
0.010284575656987727
0.010253545492887498
0.01030591529328376
0.010439398784656077
0.010562477204948663
0.010574769638478755
0.01049559076782316
0.01044574131257832
0.010467864705715329
0.01048372286139056
0.01042548043653369
0.010323329106904566
0.0102449572365731
0.01020936801796779
0.010206318255513906
0.010234983016271144
0.010282051649410278
0.01031122288433835
0.01030712143983692
0.010292978750076145
0.010297706830315292
0.010330103745218366
0.010366835412569345
0.01038672600639984
0.01040259365690872
0.010400732820853591
0.010349906189367175
0.010308318622410297
0.010352967325598001
0.010435724845156074
0.010473395083099604
0.010468301477376372
0.01044655421981588
0.010429155840538442
0.010457245982252061
0.01051999326562509
0.010545841131825
0.01052596659399569
0.010518422180321068
0.010535114018712193
0.010554050880018621
0.010581109945196659
0.010613541880156846
0.010622381037101149
0.010595458946190774
0.010555062405765057
0.010533131072297692
0.010533141391351818
0.010528541298117488
0.010498674092814327
0.010455231233499944
0.01042455479502678
0.010405492696445435
0.010397836479824037
0.010439690083730966
0.010526628163643182
0.010581420299131424
0.010581887173466385
0.010596076373476536
0.010645943973213435
0.01067745515378192
0.01067741185426712
0.01067087181378156
0.01064271162962541
0.010586753082461655
0.010537549946457147
0.010498499190434813
0.010461702987086027
0.010459439107216894
0.010494770978111774
0.01051567710004747
0.010491475753951818
0.01045489486074075
0.010465842569246889
0.01052521053235978
0.010567703491542488
0.010561784859746695
0.010543232939671725
0.010554594923742116
0.010594846396706999
0.010618318752385676
0.010588914002291859
0.010523669244721532
0.010452112723141909
0.010374505049549043
0.01029611297417432
0.010243456785101444
0.010223102120216937
0.010219775268342345
0.010221285033039748
0.010207693940028548
0.010172645142301918
0.010151091646403074
0.010161205006297677
0.010184499647002666
0.010228895598556846
0.010305739231407643
0.010367394951172173
0.010369497244246304
0.01034824271220714
0.010363866901025176
0.010414112561848014
0.010429857624694705
0.010328167490661145
0.010124564538709819
0.009969719485379756
0.00996335748117417
0.010030870547052474
0.01008495209272951
0.010119238921906798
0.01013866304885596
0.010156792111229152
0.01020204729400575
0.010267676915973425
0.010316679843235761
0.010324937116820365
0.010301707882899792
0.010281041294801981
0.010277846029493958
0.010265086980070918
0.010221473793499171
0.010184191991575062
0.010201398346107454
0.010242284985724836
0.010247407129500062
0.010246989319566637
0.010303287573624403
0.010366032589226961
0.010327312394510955
0.010204223543405532
0.010118840651120991
0.01012021109694615
0.010156884484458714
0.01016127503477037
0.010108736979309469
0.010050422095227987
0.010051992249209434
0.010089678138028831
0.010079926720354706
0.010021230198908597
0.009997148483525961
0.010031933225691318
0.01008506721816957
0.010131973668467253
0.010157892124261707
0.010164456982165575
0.01017691666027531
0.010198587721679359
0.010211959388107062
0.010216565311420709
0.010217633116990327
0.01021534375147894
0.010217809416353703
0.010218092973809689
0.010196593240834773
0.010158571205101908
0.010127302121836691
0.010112644282635301
0.010102219062391669
0.010093384459614753
0.010091848238371313
0.01008099183673039
0.010069833914749325
0.010100479531101882
0.01017325205495581
0.010262131018098444
0.010354503921698779
0.01041726604104042
0.010412750954274089
0.010368145518004895
0.010347980819642544
0.01035948765464127
0.010354725255165249
0.010309061617590487
0.010250856440979988
0.010226847562007606
0.010242252033203841
0.010249257341492922
0.010226185300853103
0.010217040351126343
0.010250144177116454
0.010288448319770396
0.010293293604627251
0.010287582969758659
0.010322086969390512
0.010392248157877475
0.010448395949788391
0.010482020832132549
0.010513642937876284
0.010523057288955896
0.010497490905690939
0.010487836336251348
0.010528981133829803
0.010585324310231953
0.01060144494054839
0.010551227766554802
0.010466312181670219
0.010412956920918077
0.010403838795609773
0.01039480515755713
0.01036327232606709
0.010314950284082443
0.010278448918834329
0.0103127795830369
0.010423301288392394
0.010519077416975052
0.010531358066946267
0.01049304312793538
0.010434949996415525
0.010358497854322196
0.01031073079444468
0.010312495334073902
0.010302764736115933
0.01024885349906981
0.010179449634160847
0.010123302284628153
0.010098777054809034
0.010110640646889806
0.010143389869481325
0.010184226259589195
0.01022839650278911
0.010265881239902228
0.010283447173424064
0.01027091168332845
0.010230453349649907
0.010181943611241877
0.010143065415322781
0.010125009636394679
0.010149315255694092
0.010204467268195003
0.010224773329682649
0.010187857057899237
0.010161944383289665
0.01021541896974668
0.010321839270181954
0.010388857335783541
0.010379878683015703
0.01034788589924574
0.01035454250406474
0.010389497054275125
0.010379315211903304
0.010298224468715488
0.010197882908396422
0.010118063280824572
0.010066651024390012
0.010057483774144203
0.010100473572965712
0.010171032219659537
0.010226715526077896
0.010251041441224516
0.010253387680277228
0.010237862011417747
0.010216605388559402
0.010232633531559258
0.010290104602463544
0.010328798964619636
0.010334003232419491
0.010345389791764319
0.01035337679553777
0.010327938231639563
0.01030292701907456
0.010314899794757366
0.010339160962030292
0.010349302780814468
0.010329984887503087
0.010251668924465775
0.010139054274186493
0.010066446173004806
0.010048320316709578
0.010047895275056362
0.010058453839737922
0.010103746866807341
0.01016702432418242
0.01017918151570484
0.010133633383084088
0.010109511478804052
0.010150991284754128
0.010241135631222278
0.010334303693380207
0.010361983350012451
0.010309654306620359
0.010251139185857027
0.010237843967042864
0.010236021832097321
0.010198775923345237
0.01013090718537569
0.01006986251566559
0.010041745647322386
0.010041170893236995
0.010034529939293862
0.010000936137512326
0.00996251478092745
0.009936007724609225
0.00990458165993914
0.009864835301414132
0.009837573773693294
0.009830602023284882
0.009834510288201273
0.009860456662718207
0.009928787387907504
0.010009267986752092
0.010059166643768548
0.010087950918823481
0.010106616902630776
0.010093892060685903
0.01004697130061686
0.010002215781714768
0.00999148638220504
0.010004386932123452
0.010019265655428171
0.010030889040790499
0.010032604932785034
0.010033587163779884
0.010076228028628975
0.010181745798327028
0.01029212929541245
0.010326353665441275
0.010289228030014783
0.010241435011848807
0.010199175977613778
0.010136590586043895
0.010047966779675335
0.009981009080074727
0.00998734831577167
0.010041745237540454
0.010078134778887034
0.010077210292220116
0.010044851426500826
0.00997228636406362
0.009887866685166955
0.009862589985132217
0.009899898653384299
0.00991130389738828
0.0098504962422885
0.009782339006196707
0.009779822535347194
0.009817936869803817
0.009817576417699456
0.009762539702933282
0.009722905671223999
0.009763041122350841
0.009852019113022834
0.009905692045576871
0.009906861542258411
0.00990933224093169
0.009927399877924473
0.009903536282945425
0.009809537527617066
0.009701460674405098
0.009657392415683717
0.009711759774945676
0.009813164323568345
0.009844577764160931
0.009751905577722937
0.009628963742870837
0.00959415729623288
0.009625000036321581
0.009625967184547335
0.009580969703383744
0.009528747615404428
0.009490297695156186
0.009476210616994649
0.009480776945129037
0.009480048248078674
0.009464472774416208
0.009424085363280028
0.009349599624983966
0.009291526940651239
0.009311359620187431
0.009377338760532438
0.009412894344422966
0.009396195164881646
0.009368987821508199
0.009395987882744521
0.009490864691324532
0.009577657112386078
0.009575375197455287
0.009495017156004905
0.009415987331885844
0.00939439752139151
0.009415861070156097
0.009434891098644585
0.009449178867507726
0.00949200412724167
0.009550481040496378
0.00957666319794953
0.009573313961736859
0.009565371652133763
0.009547247264999897
0.009542763675563037
0.009581740631256252
0.009617450737860054
0.009613980206195265
0.009604486250318588
0.009608115241862834
0.009623794516082853
0.009656640090979636
0.009687234265729785
0.009681199498008936
0.009631186933256685
0.009567018463276327
0.009523378231097012
0.009499231385998428
0.009485484713222832
0.009509424660354853
0.009583353213965893
0.009647103403694927
0.009643583213910461
0.00961274775210768
0.009615041029173882
0.009632878806442022
0.009639491012785583
0.009646823436487467
0.009634322854690253
0.009564421128015966
0.009484665831550956
0.009484034199267626
0.009543258256744593
0.009557053833268582
0.00950723278336227
0.009483624184504151
0.009518695280421525
0.009538951772265136
0.009509111810475588
0.009481728156097234
0.009486191764008254
0.009509530945215373
0.0095653617545031
0.009659588327631355
0.009735675046686083
0.009735479874070734
0.009687956860288978
0.009669875698164106
0.009688957703765481
0.009699801898095757
0.009703884026966989
0.009737843435723335
0.009805464604869484
0.009874478345736862
0.00990006803534925
0.009861036846414208
0.009811187356244772
0.009829252162016928
0.009910130209755152
0.009974061984103173
0.009965719394385815
0.009918341040611267
0.009909216170199216
0.009961573136970402
0.010017128002364189
0.010003856737166644
0.009939013877883554
0.009912365560885518
0.00995324871269986
0.010000934393610805
0.00999656846979633
0.009949370357207953
0.009908667341805994
0.00990265937987715
0.009928634339012206
0.009960061968304217
0.009954417285043746
0.009897839112672955
0.00983819383662194
0.009852341529913246
0.00996341670397669
0.010088955883402377
0.010126135707832874
0.010083609067369253
0.010049944533966482
0.010066657294519245
0.010106075978837907
0.010134216053411365
0.01013553679222241
0.010096492192242295
0.010016657758969814
0.00992682586191222
0.00986584579339251
0.009844622744712978
0.009842101251706481
0.009835078408941626
0.009828234212473036
0.00984240063233301
0.009871207997202874
0.009888774622231722
0.009881157432682813
0.00983939581317827
0.009777893521822989
0.009734036107547582
0.009722211919724942
0.009743809991050512
0.009792133062146604
0.009829437376465648
0.009843234024010598
0.009869154035113752
0.00989762366283685
0.00987518060253933
0.009813865348696708
0.009776000163983554
0.009774768406059594
0.009781114566139877
0.0097914231242612
0.00981526174582541
0.00983319653198123
0.009828993573319168
0.009818893873598427
0.009819499705918134
0.00983224472263828
0.009850034124683589
0.009851526059210301
0.009821075899526476
0.009773880853317677
0.009732196750119328
0.00970376635203138
0.009689195819664747
0.009681987611111253
0.009670345152262599
0.009658479439094663
0.00967484305612743
0.00972370482981205
0.009767733309417962
0.00979154563974589
0.00980639886111021
0.009807232450693846
0.009786429486703128
0.00975718637695536
0.009742479985579849
0.00974311277270317
0.009740878432057797
0.009747313619591295
0.00978223045822233
0.009810390961356462
0.009804781228303909
0.00981436412082985
0.009855033182539046
0.009844987515825777
0.009753765149507671
0.009685474180150777
0.009722487959079444
0.009822480503935367
0.009911968167871236
0.009942939144093544
0.00988396923756227
0.009756801675539464
0.009641869380138814
0.009602353125810623
0.009630044617224484
0.009680790808051825
0.009710612199269235
0.009692920530214906
0.009655073846224695
0.009643796703312547
0.009662852333858609
0.009690695565659553
0.009700945566873998
0.009688629461452365
0.009699417913798242
0.009751770165748894
0.009793862530495972
0.009805582552216948
0.00982799056218937
0.009875141130760313
0.009928334436845035
0.009974865019321441
0.009986303336918355
0.009961369370575995
0.00996326703345403
0.010002353733871133
0.009997602785006166
0.00990802727639675
0.009793968370649964
0.009677878124639392
0.009633096663746983
0.009656834576744586
0.009697784131858497
0.00973141641356051
0.009779403996653856
0.009841502113267779
0.009897499768994749
0.00994980223942548
0.010001019444316625
0.010043014409020543
0.010059855547733604
0.010032261034939437
0.009985478552989662
0.00997248466592282
0.009995084044057877
0.010027629756368697
0.010071857613511384
0.010112687998916953
0.0101057134475559
0.010062701657880098
0.010059502811636777
0.010115408957935869
0.010158943408168853
0.01015793058089912
0.010156836016103626
0.010168593802955001
0.0101662736851722
0.010156574316788465
0.010166295843664557
0.010189161826856434
0.010207755051087588
0.010224713773932309
0.010228034616447985
0.010208036557305605
0.010196060677990317
0.010193471219390631
0.010161405154503882
0.010132246918510645
0.010169441206380725
0.010236650416627526
0.010282069304957986
0.010342195441480725
0.010422191163524986
0.010453077633865177
0.010442325996700674
0.010476086316630244
0.010562005727551877
0.010624778943601997
0.010623943756800145
0.01058812664821744
0.010559862463269383
0.010535052516497672
0.010494035088922828
0.010468029116746038
0.010492852739989757
0.01054129330907017
0.010562149707693607
0.01054552495246753
0.010518795431125908
0.010503227240405977
0.010487206834368408
0.010439224704168738
0.010370372456964105
0.010353356446139515
0.010408799776341767
0.010439577861689031
0.010368706458248198
0.010243922749068587
0.010152751754503697
0.010134195587597787
0.010181570816785097
0.010270061946939676
0.010363228865899146
0.010422695626039058
0.010437103582080453
0.010424124905839563
0.010426466532517225
0.010482208777684719
0.010557217046152801
0.010593644473701716
0.010600541511084884
0.010597770768217742
0.010582319672685116
0.010574074548203498
0.010573865300975739
0.010548949921503663
0.010497558317147195
0.010438591528218239
0.01038485112367198
0.010362527347169817
0.010390766714699566
0.010442235700320452
0.01046932598343119
0.010471255641896278
0.010488458564504982
0.010523958532139659
0.010553695915732533
0.01059571621241048
0.010653350979555398
0.010718474129680544
0.010694446042180061
0.010602232422679663
0.01053273375146091
0.010523704062215984
0.010550244334153832
0.010584652102552354
0.01059425245039165
0.010558167037088425
0.010504042520187796
0.01045224322937429
0.010386221094522625
0.01033692337339744
0.010363160201814025
0.010434906755108386
0.010472578236367554
0.010462121828459204
0.010450601428747177
0.010471382548566908
0.01050292348721996
0.010500262402929365
0.010457808228675276
0.010412105910945683
0.010396840716712177
0.01041517053730786
0.010445794789120555
0.010469345916062594
0.010478293653577567
0.010470600069966167
0.010439528145361691
0.010378198651596903
0.01031025747070089
0.010276773625519127
0.010279255935456604
0.010277272670064121
0.010259391302242874
0.01027981776278466
0.010355172087438405
0.010386241781525314
0.010318145295605064
0.010254858094267547
0.010263340300880372
0.010260468968190252
0.010212689221370965
0.01020352266728878
0.01023724076570943
0.010224982728250325
0.010167340945918113
0.010147135481238365
0.010170752718113362
0.010168246328830718
0.010142345090862363
0.010164226396009326
0.010223402208648622
0.010249466109089554
0.01023852966260165
0.010241935926023871
0.010288370947819203
0.010343785751610995
0.010357099946122616
0.010341515457257628
0.010338182365521788
0.010349198929034173
0.010358429842162876
0.010345842365641147
0.01029626646777615
0.010243436477612704
0.010247915310319513
0.010317066386342048
0.010390178731177003
0.01040684272069484
0.010370314274914562
0.010317302572075278
0.010265131087508053
0.010224597225897015
0.010204427742864937
0.010194862026255578
0.010180984018370509
0.010149061940610408
0.010095613712910562
0.010056141198147088
0.01007913743611425
0.010161091962363571
0.010239496966823936
0.010254570953547955
0.010223860482219606
0.010236276648938655
0.010335915298201144
0.0104521055216901
0.0104914072714746
0.010444381046108902
0.0103546382044442
0.01025626513408497
0.010186333295423537
0.010152032866608351
0.010096359024755657
0.01002143335295841
0.010010931240394712
0.010058178927283733
0.010081312616821379
0.010083956171292811
0.010125712761655449
0.010203455160371959
0.010256551958154886
0.010240123767871409
0.010170434208121151
0.010107120706234127
0.010081263969186693
0.01006707429420203
0.010044947739224881
0.010055370961781591
0.010131766546983272
0.01021683233557269
0.010243409788236022
0.010233655492775141
0.01022806737339124
0.01021374573232606
0.010176882734522224
0.010133646049071103
0.010096693453378975
0.01006735160946846
0.010032867374829947
0.009963924626354127
0.009860087803099304
0.009782491924706847
0.00979499140754342
0.009880090218503028
0.00996929221553728
0.010034376285038888
0.010094750826247036
0.010159812045749277
0.010193494462873787
0.010169201691169291
0.010131225138902664
0.010136546457652003
0.010180618206504732
0.010212719007395208
0.01021291934652254
0.010228879677597433
0.010290850270539522
0.010352280861698092
0.01036757993977517
0.010350812547840179
0.010324560403823853
0.01028436178341508
0.010238383386749775
0.01021031007869169
0.010197395144496113
0.01017504355404526
0.010147967573720962
0.010163816907443106
0.010230696438811719
0.010289871576242149
0.010315427309833466
0.010325832495000213
0.010308827983681112
0.010248153165448456
0.010183485962916166
0.010171807759907097
0.010207974568475038
0.010233266679570079
0.010225041813682764
0.010214227293618023
0.01021848427131772
0.010227213341277092
0.01023943858454004
0.010262358805630357
0.010280944851692765
0.01026253740536049
0.010194587639998644
0.010110361827537417
0.010054647517390549
0.010038014496676623
0.010065333908423782
0.010146507117897273
0.010250106109306217
0.010319552505388857
0.01033288606442511
0.010323988352902234
0.010337561825290323
0.010348832665476948
0.010297026105690747
0.010198186582420022
0.010126180874649435
0.01011914039729163
0.010149403191171587
0.01014968296745792
0.010096095753833651
0.010043955841101706
0.010038969474844634
0.010070623091887682
0.010121573228389025
0.010171789648011327
0.010183695377781988
0.01016759181395173
0.01019250157987699
0.010259102743584663
0.010291573526337743
0.010278039234690369
0.010246713696978986
0.010182118769735097
0.010094344711396842
0.010025841598398984
0.009986283804755658
0.009980528736487032
0.0100080683757551
0.010033205945510416
0.010041724778711797
0.01007204457418993
0.010140409218147397
0.010190781343262643
0.010166068449616433
0.01009284403640777
0.010040086489170789
0.01003241481957957
0.010068696369417011
0.010158485365100205
0.010263829724863172
0.010307777752168477
0.010291302246041596
0.01027527819154784
0.01027900674380362
0.010313751420471817
0.010404027595650405
0.010499899031128735
0.010509480559267103
0.010442067827098072
0.010375118150841444
0.010321814159397036
0.0102569047245197
0.010190621179062873
0.010152507594320924
0.010154350311495364
0.010188294348772615
0.010230517543386669
0.010232116971164941
0.010176600362174213
0.010129464545752854
0.01014599618734792
0.010184397930279374
0.010172695743385703
0.010118431092705578
0.010094514759257435
0.010135281009133905
0.010197529238648712
0.010224702407140285
0.01021869846386835
0.010215174914337695
0.010230157626792788
0.010273139402270317
0.010328817903064192
0.01034167799865827
0.010302434538025408
0.010256098923273385
0.010208653989247978
0.010148482562508434
0.010107315303757787
0.010103644814807921
0.010110814543440937
0.01013177880551666
0.010200154078193009
0.010292866399977356
0.010345746097154915
0.010342566838953644
0.010320306858047842
0.01031209850916639
0.010325813253875821
0.010355976326391101
0.010389267497230322
0.010423257071524859
0.01046835863729939
0.010505323274992406
0.010491824778728186
0.010422095903195441
0.010340084922499954
0.010296272961422801
0.010294768188614398
0.010289142762776465
0.01025116679025814
0.010216554040089249
0.0102244977443479
0.010255768427159638
0.010272693703882396
0.010266257994808257
0.010242861895821988
0.010225091509055347
0.010257942262105644
0.010345961451530456
0.010415297476574778
0.010404031579382718
0.01034054841613397
0.010292510408908129
0.010292873720172792
0.010325261072721333
0.010341702192090452
0.010304817468859256
0.010234968597069382
0.01018302510958165
0.01016921020578593
0.01020966654177755
0.010313584508839995
0.01041336717782542
0.010445304156746715
0.010445793173275889
0.010458461979869754
0.010477298374753445
0.010495366845279932
0.010504808195400983
0.010492060766555369
0.010459897448308766
0.010427841925993562
0.01042635808000341
0.010463093996513635
0.010489625199697912
0.010467291807290167
0.010421481714583933
0.010369679657742381
0.010303952295798809
0.010260253041051328
0.010275779373478145
0.010322214921470731
0.010364451657515018
0.010411251506302505
0.010472042884211987
0.010528427395038308
0.0105682554631494
0.010587558699771762
0.010571784449275583
0.01052526491228491
0.010479150398168713
0.01046417448669672
0.010487447418272495
0.010520680837798864
0.010523414046037943
0.010486997745465488
0.01046015823725611
0.010485911834985017
0.0105151929683052
0.010485361032187938
0.010436432640999556
0.010437090292107314
0.010473427751567215
0.01049527890747413
0.010506944798398763
0.010543125360272824
0.010591901626903565
0.010614174972288311
0.01061929740710184
0.010639658961445093
0.010647133651655167
0.010601414714474231
0.010544098210521042
0.010529511412605642
0.010552658673841506
0.010599006973206997
0.010644978287164122
0.010644657469820231
0.010592655716463924
0.010531606320291757
0.010488023580983281
0.010457179595250636
0.010429725053254514
0.010400040333624929
0.010370241166092455
0.010354644486214966
0.010359575643669815
0.010353829378727824
0.010304765847977251
0.010243833425920456
0.01023015490733087
0.010272885963786393
0.010333438359666616
0.010367438294924796
0.010360113270580769
0.010348481554538012
0.010369992551859468
0.010401280557271093
0.010412123152054847
0.010413802505936473
0.010418349748943002
0.010426635188050568
0.01043931977590546
0.010441399195697159
0.01042460415046662
0.010414834995754064
0.010411133768502622
0.010353012697305531
0.010238006960134953
0.010167651870287954
0.010198304324876516
0.01027659272775054
0.010329831729177386
0.010330129896756262
0.01029552794760093
0.010250769045669586
0.010204883662518115
0.010167435337789356
0.010162615422159434
0.010207307329401373
0.01025455696741119
0.010246781597379595
0.010236819216515869
0.010308123612776398
0.01041606345679611
0.010454973080195487
0.01041732972720638
0.010376700714696199
0.010368261218536646
0.01037368577439338
0.01038815536070615
0.010418522872496396
0.010444917029235511
0.010451196781359614
0.010449955442454665
0.010448394133709371
0.010439957545604556
0.010428005184512585
0.010420449604280293
0.010408079768531024
0.010379043002612888
0.010342846582643688
0.010309262673836202
0.010265262543689459
0.010191395063884556
0.010101709372829646
0.010043564636725932
0.010032140456605703
0.010040852536913008
0.010062967007979751
0.01011738767614588
0.01019181486684829
0.010229350097943098
0.010200852716807277
0.010154405296780168
0.01015315699391067
0.010188471907749772
0.010206137995701282
0.010187915829010307
0.010144759442191571
0.010083521662745626
0.010018623187206685
0.00996679414762184
0.00992510728072375
0.009877919883001596
0.009823341153096408
0.009786934431176633
0.009786970478016884
0.009794563346076757
0.00978364611044526
0.009784268492367118
0.009820818966254592
0.009857174197677523
0.009864078308455647
0.009869642050471156
0.009896864602342247
0.009933713469654321
0.009976435583084822
0.010027577329892665
0.01006008025025949
0.010040131425485014
0.0099815969215706
0.009935501522850245
0.009934983251150697
0.009973497274331748
0.010024027405306698
0.010068872745614499
0.01010875650215894
0.010144472408574074
0.010165966651402413
0.010165190254338086
0.010139312031678855
0.010102752186357975
0.010094370145816356
0.010112585872411728
0.010099711606744676
0.010049857012927533
0.010020763711072505
0.010018379853572696
0.009999979329295456
0.009962621221784502
0.009938527268823237
0.009950995752587915
0.009994021817110479
0.010032823767978698
0.01004185675876215
0.010038784327916802
0.010060818023048342
0.01010550644947216
0.01014032918959856
0.010159763868432491
0.010161203832831233
0.010144775991793722
0.010158943738788366
0.01023277801927179
0.010326065043918788
0.01040607223054394
0.010473433379083873
0.010501478463411332
0.010457302450668067
0.010375546300783753
0.01031317160697654
0.010267520237248392
0.010208641453646123
0.010148205000441522
0.010118149712216109
0.010098862939048558
0.010048133577220142
0.00999092339305207
0.009972341153770685
0.00996048846282065
0.009909557276405394
0.00985335904173553
0.009844484776258468
0.00987572398269549
0.009919716147705912
0.009965258147567511
0.00998274287674576
0.009944637699518352
0.009894981028046458
0.009893976671155541
0.009926661702338605
0.009960150285623968
0.009990689244586974
0.010016480209305883
0.010048703164793551
0.01008916955208406
0.010106692579574883
0.01008822713745758
0.010058721646200865
0.010034291602205486
0.010004976107738912
0.009981369515880942
0.00999243550002575
0.010009136968292295
0.009969475141260772
0.009896639578510075
0.009868290147278459
0.009896219559013843
0.009944133679382502
0.009995740223675966
0.010047577086370439
0.010088122722227127
0.010110760920215399
0.01012352416291833
0.010127763624768703
0.010104658515192568
0.010058001570869238
0.010030981646850705
0.010024770358577371
0.010005896475631744
0.010010406516958028
0.010087065242696553
0.010177083918824792
0.010186392208561301
0.010137304714880883
0.010125206040684134
0.010148813698906451
0.010137833498883992
0.010111907450482249
0.01013322823913768
0.010164540954865514
0.010135448528453708
0.010074981022626162
0.010054008492734284
0.01005524120759219
0.010015892647206783
0.009958174391649664
0.0099538544123061
0.010006652057636529
0.010062200399115682
0.010084294204134495
0.010070212401915342
0.010042502142023296
0.01005427548661828
0.010120020478498191
0.010163932447321713
0.010145779226440936
0.010145680417772383
0.010218819954898208
0.010297165296506136
0.010298925945535302
0.01021990018663928
0.010123786474578083
0.010081646381877363
0.010096548672299832
0.010128604080528021
0.010161687599029391
0.010178489061072469
0.010138396648690104
0.01004009046824649
0.009955583778209985
0.009934836530592293
0.00992416324093938
0.009870897722430527
0.00982309966115281
0.009834550030063838
0.009875882708001882
0.009889640025794505
0.009863077839836478
0.009840425844304264
0.009869672113563866
0.009925629023928195
0.009937151053454727
0.009905817580875009
0.009911330644972622
0.009988456717692315
0.010088307750411332
0.010149426797870547
0.010153920683078467
0.010144839955028146
0.010180747916456312
0.010240786108188332
0.010244532348588109
0.01018923421157524
0.010141720261890442
0.010113226822577417
0.010091667892411352
0.010110178720206022
0.010175535979215056
0.010252991577144712
0.010331668728031217
0.010393476295284927
0.010393012743443251
0.010326568146701902
0.010227078380994499
0.010109395296312869
0.009998149482998996
0.00994211487006396
0.009946895060129463
0.009974998442921788
0.010027709857095033
0.010124259705189615
0.010215398117434233
0.01024019633885473
0.010234959963709116
0.010273494836874307
0.010347147323191166
0.010390919921919704
0.01039537855423987
0.01041162502253428
0.010447805623989552
0.010455066489521414
0.010419000703841448
0.010369042742531746
0.010323178959079088
0.010296238407026976
0.010297699426300823
0.010303602220956236
0.010295660661067813
0.010270202106330544
0.010204075688961893
0.010108065898530185
0.010049139857292175
0.010047784927301108
0.010043071759864687
0.00999653086066246
0.009953550142236055
0.00996207960182801
0.009992225947789847
0.009992318458389491
0.009966136573348194
0.00995134298922494
0.009964170684106648
0.009987901549320667
0.010015464171301574
0.010063058033119887
0.01012045243754983
0.010157211276236922
0.010165088369976729
0.010141793203074486
0.010093243699520827
0.010067699507344515
0.010101846852339804
0.010141397104598581
0.010119116038549692
0.010072710115928203
0.01006590538425371
0.010062998009379953
0.010015156974550337
0.009965863523539155
0.009951489956583827
0.009945919290184974
0.00994365668622777
0.009948516741860657
0.009933374105021358
0.00990169495344162
0.00988937569083646
0.009893228465225548
0.009905187434051187
0.009956459251698106
0.0100413155881688
0.010102343657054006
0.01011837053578347
0.010100761177018285
0.010043452964164317
0.009955806247889996
0.009892479674890637
0.009902441892772913
0.009960455051623286
0.009989763256162404
0.00995817779796198
0.009915155642665922
0.00992042334517464
0.009946738036815077
0.009917019358836114
0.009830455426126719
0.009756008498370647
0.009738864630926401
0.00977461454924196
0.009817513986490667
0.009811040984932334
0.00977007464505732
0.009767138955648989
0.009798504668287933
0.009804905722849071
0.00980632278835401
0.009850947863887995
0.00989931472344324
0.009870809540152549
0.009754679072648287
0.009625246329233051
0.009549759775400162
0.00952829681802541
0.00953790629748255
0.009579461889807135
0.009658157345838844
0.00975353791611269
0.009845023562666028
0.009935169857926666
0.010008010833989828
0.01001309890532866
0.009938611052930355
0.009848813149146736
0.009822601536288857
0.009877483383752406
0.00992904338054359
0.009888507851865142
0.009800598791334778
0.009739396430086344
0.009681064821779727
0.009615051411092281
0.009600081141106784
0.009644578872248531
0.009690323600079865
0.009717842463869602
0.009754447268787771
0.009799572443589567
0.009822415676899255
0.009822217198088765
0.009837588774971665
0.009890486565418542
0.009942344930022955
0.009943155504297465
0.009914685096591712
0.009901724883820861
0.009900697018019855
0.0099092638050206
0.009936844368930907
0.009970820299349726
0.010009698872454464
0.010073655939195306
0.010152516786474735
0.010195639065932483
0.01017510713543743
0.010109911705367267
0.010032328295055777
0.009971896354109049
0.00992856863187626
0.00987265294417739
0.009812520493287593
0.009789116326719522
0.009796508341096341
0.009797787270508706
0.009789527647662909
0.009777032404672354
0.009740024809725583
0.009681328448932618
0.009653068541083484
0.009677845663391053
0.009708407744765281
0.009729923359118401
0.00978310891194269
0.00984741651918739
0.009882840865757317
0.009932350197341294
0.010011567017063499
0.01005870837951079
0.010073234955780209
0.010092870567459613
0.010079080569557846
0.010002638089936226
0.009915631697513163
0.009864385316614061
0.0098637809837237
0.009924440956674517
0.010000595636665822
0.010008202490862459
0.009948132671415805
0.00990476378472522
0.009932268746197223
0.010009601425845177
0.010067702366504817
0.010063933944329619
0.010050451771821827
0.010102496882900595
0.010202840850688517
0.01027083489811048
0.010270647972356528
0.010243309843353927
0.010232589344959707
0.010231136491056532
0.010226587820798159
0.010229613506235182
0.010236046176869422
0.0102198699535802
0.010166304577142
0.010097127587068827
0.010064415656961501
0.010096896979957819
0.01016034962143749
0.0102039791084826
0.010234336873982102
0.01030358203453943
0.010409389815758913
0.010475723310373724
0.010478859266731888
0.010462103981990368
0.01041737007908523
0.010325331673957407
0.010237001518253236
0.010188295342959463
0.010156612114515155
0.010138603048399092
0.010143646956421434
0.010141106331720948
0.01012611910002306
0.010146056190133096
0.010202683268580585
0.010247038558591158
0.010257204598747193
0.010249836805742233
0.010252255478408188
0.010272567314095794
0.010291754701174795
0.010302841211669148
0.010320228261407464
0.01033329208381474
0.010322282912675292
0.01030465792864561
0.010293685866054147
0.010268683615140616
0.010224392090458423
0.010182555194478481
0.010163786145858467
0.01019137591123581
0.010260943165048957
0.010305277612060309
0.010272035400848836
0.01018997870851308
0.010112396255135537
0.010061318634543568
0.010037517664022744
0.010046466586645693
0.010095653291791677
0.010170098736416548
0.010232234064023942
0.010248927199281752
0.010231751850806176
0.01023963866289705
0.010305277926381678
0.010394989720080048
0.01045425868825987
0.010450577577576042
0.010398989617824555
0.010359579201322048
0.010367611409164965
0.010398348968010396
0.010431900678668171
0.010484798287507147
0.010553265195339919
0.010590280452743173
0.010574810290709138
0.01054969513323158
0.010539453714154661
0.010511527042835951
0.0104642890044488
0.010442626844160259
0.010453059538267553
0.01046218884875998
0.010462527654599398
0.010474015246145427
0.010505721925292165
0.010553290899842978
0.010595839137677103
0.010594117280561477
0.01054937262320891
0.010521279338281602
0.010541053100023418
0.010566376068163663
0.010543281785212457
0.01047773519763723
0.010424284872133285
0.010407859438564628
0.010397623050957918
0.010359958491753786
0.010302606036420912
0.010268315526191145
0.01027258456684649
0.010273531915154309
0.0102611269406043
0.01028275777818635
0.010322368151973934
0.010314633639063686
0.010283711552619933
0.010290021549444646
0.010309389880858362
0.010298466323874891
0.010276027978397906
0.010275582880713046
0.010287268531974404
0.010281992172822356
0.010267828907817602
0.010259179715067148
0.010232903198339045
0.010181714256759733
0.010137891827616841
0.01013315349817276
0.010164963882416486
0.01017974343849346
0.010144017492420972
0.01011464866809547
0.0101346027944237
0.01016135876532644
0.010171695712488145
0.010188824392389505
0.010205805832520128
0.010187648613937198
0.010138317686505615
0.010120843248441815
0.010175707195885479
0.010251992596313358
0.01027265922166407
0.010236122561618686
0.010202412160579115
0.010192816597409546
0.010186773673631251
0.010194316715933382
0.010217974379193038
0.010221667513251305
0.010204861429519952
0.010200604540295899
0.010213509271852671
0.010230658233631403
0.010236002111341805
0.010192588856443762
0.010089726324658842
0.009998664590530098
0.010003714559134095
0.010103882760740817
0.010208849448245018
0.01022418559761718
0.010160212409682573
0.010097122660372406
0.01006553373998031
0.010067264188546688
0.010109478367958218
0.010154992558527738
0.010156260086223484
0.010123533795122057
0.010091084011364729
0.010069638122804463
0.010059607776347547
0.01006585273426026
0.010087200424168259
0.01011227956507355
0.010127079440280795
0.010114721180871129
0.0100648588151671
0.010000343492720276
0.009966477523557843
0.009975970699451863
0.009984768780414014
0.009952911529690028
0.009911774965003133
0.009906193378847093
0.009912155894562602
0.009894996853545309
0.009880117317661643
0.009901114234235137
0.00994049827568233
0.009958489597775042
0.009942805797327309
0.009916324235964566
0.009909460712224245
0.009923565036151558
0.009935886913444847
0.00993809430161491
0.009939362744335085
0.009945992201101034
0.009956314757000656
0.009956824241671712
0.009939565658569335
0.009928719417657703
0.009935347291175275
0.009925975301302969
0.009896569543052465
0.009894572964403778
0.009938174863345922
0.009985827151685953
0.009985546392854303
0.009935771748423576
0.009897412583231926
0.009906643270514905
0.009921356439590454
0.009923497512936592
0.009961644895374775
0.010032928579021246
0.010069191588554531
0.01005962811410427
0.010048565531615167
0.010041119498200714
0.010007065322715789
0.00994043189799413
0.00989140832098201
0.009920411556959153
0.009989764259662479
0.010001188714522869
0.009966391914058476
0.009982193033210933
0.010054773171432316
0.010111052296124398
0.01013622833415866
0.010158258071169258
0.010151980984956026
0.010090371472761034
0.010028250147588551
0.010030432222411036
0.010079057826660574
0.010107719944790006
0.010085809631273151
0.010046774055808783
0.010038056867197156
0.010060229850932956
0.010083339717239142
0.01009482003748417
0.01009259296581149
0.010070207063108683
0.010024537993595005
0.009962456300854683
0.009912654557265341
0.009905352024361491
0.009941717549227179
0.00999145916197449
0.010020269248634577
0.010059985611587764
0.010159473693929612
0.01024688005913049
0.01021663281135261
0.010101720225065947
0.01002674459014088
0.010061559756286443
0.01015446615871042
0.010195695129223168
0.010144299915991724
0.010044294632971287
0.009957755845971406
0.009928919728845359
0.00995270418934524
0.009978663735091686
0.00996900228317827
0.009924477804452181
0.009879011707380415
0.00988440403714776
0.00995423547923565
0.010030806362628937
0.010056802276521922
0.010053010107949376
0.010068721203133464
0.01009516571648419
0.010090957791544498
0.010057695591822267
0.010037798271514475
0.01005344310309738
0.010085754436440766
0.010114767383784055
0.010134466108866036
0.010119900414720178
0.010046803951263427
0.009962456705980003
0.009941465794108808
0.009966197051107883
0.009976590084843338
0.009982076133601367
0.01001109435223043
0.010047845854423941
0.010071058450266719
0.01007725138682872
0.010071182092651725
0.010075920498929919
0.010117076626047493
0.01017751372884959
0.010204877080395818
0.0101778932986781
0.010135451960377396
0.010123786078765988
0.010142957465723157
0.010155216911807657
0.010136533207260072
0.010110082495957613
0.010114196008071303
0.010148077267222106
0.010167719833552837
0.01015248741954565
0.010127256223931909
0.010088554145768284
0.010025290460325777
0.009998947018757462
0.01005772105883807
0.010141302808187902
0.010189142297022044
0.010223332215100528
0.010260708020068706
0.01028708079829812
0.010284576835110783
0.010204957691021263
0.01005596817471087
0.009967396943829953
0.010013231043703854
0.01010645566508174
0.010145397265441716
0.010114001324400306
0.01005039400421083
0.010006896303966641
0.01001183728221804
0.010040149241685867
0.010030190828256309
0.00996419814415276
0.009896977040916681
0.009870117427781225
0.009874235177412628
0.0098793892422691
0.00986708576325327
0.00985232725739479
0.009837197195738554
0.009796599731780589
0.009740804615430533
0.00971548819448799
0.00975364273879677
0.009832101385109126
0.009880882413126528
0.009879523748531937
0.009880401799455285
0.009922774997539819
0.009987791669555008
0.01002047535032034
0.009990524356253446
0.009943473348394037
0.009947060765698552
0.009992915550246834
0.010017887088470161
0.009993449300527573
0.009944642740301789
0.00991735321469605
0.009923532865941524
0.009915880928747355
0.009856064058840274
0.009783525271341204
0.00976958358194679
0.009814806771464646
0.00985365929082036
0.009862724696286023
0.009881291687488556
0.009915465358644723
0.009912247024476527
0.00986458529252559
0.009855363359674811
0.009925233246758581
0.009984242040663957
0.009951465227641166
0.009888137290254236
0.009901142041198909
0.010001938990317285
0.010112030496820808
0.010162586634978652
0.010163599755614997
0.010160281895659864
0.010163695691153407
0.010163485431112349
0.010150627749972045
0.010125716044567525
0.010110537488944828
0.010096071367152036
0.010035460316576063
0.009943612469360232
0.009883514079265297
0.009870751281268894
0.00989525455981493
0.009957295916974545
0.01002768418751657
0.01004505622666329
0.00999458046630025
0.009946928867138922
0.009958424312062562
0.009994181194342673
0.010009266575798393
0.010010949135757983
0.010014142477884888
0.010012897457927465
0.01000468008685857
0.009999190545640886
0.009999880022369324
0.01000951882917434
0.010031649563461541
0.010054755578748882
0.01006890476681292
0.010077184378169478
0.010075201517902315
0.01003674699459225
0.00994316759519279
0.009832955561578274
0.00977013333234936
0.009764023665338755
0.009763707080855966
0.009737057597376406
0.009738014237955213
0.009827752197161317
0.009947274262085557
0.009982773191295565
0.00992347178980708
0.009863795931451022
0.009880094979889691
0.009941503023728728
0.009948305450379849
0.009869675459340215
0.009797635907307266
0.009826007736846805
0.009928553286008536
0.010010371371172368
0.010033385837450623
0.010024200617335737
0.010010896362364291
0.009999624392949045
0.009983411366119981
0.00998147199396044
0.010023133852519095
0.010063850139267742
0.01003923081792891
0.010004449510015547
0.010060123400762677
0.01016509162262082
0.010188787998631597
0.010103902700357138
0.009999157255515456
0.009950975589454174
0.009949970678426324
0.009952425910159945
0.009956791494041682
0.009975259453058242
0.009993844195269047
0.01000664381776005
0.01003849487286061
0.010106519921682775
0.010171488192863763
0.01019417515490204
0.010229198434390128
0.010342248054221272
0.010469777681864799
0.010496367886662483
0.010429383739829063
0.010373111912049354
0.010367371141910553
0.010355830257758498
0.010297910529188811
0.010242264913395048
0.010251480038277805
0.010290729510597885
0.010284096542745829
0.010248170788399876
0.010240475148893893
0.010231318604201078
0.01016435473691672
0.010053942003287375
0.009946102271787821
0.009870953802019357
0.00981982703320682
0.00975436915177852
0.009688110933639109
0.009688421431928874
0.009752309950999915
0.009790005991235376
0.009760687160305679
0.009732382129877806
0.009772713277488947
0.009844148964621127
0.009889509556815028
0.009928126018494368
0.009972662003710865
0.009976607295684517
0.00991980400402099
0.009860316682606935
0.009868401349522174
0.009936495861038565
0.009988953312858938
0.009984579202719033
0.00996579349040985
0.009980203942395746
0.010015912041999399
0.010046893400140106
0.010071254251524806
0.010084791867993772
0.010077712731435895
0.010062414617277683
0.01006043548695743
0.010080493413843214
0.010131364734843374
0.010196876688860356
0.010212527136318386
0.010166848129592836
0.010145068899728358
0.0101820183172822
0.01021640762221068
0.01021761761046946
0.010229964260943233
0.010287580150179564
0.010345491655170918
0.0103456970769912
0.010305318809114396
0.01027058833744377
0.010262057008221746
0.010285277538932859
0.010317608364857733
0.010320424046367406
0.01030440827831626
0.01030467455741018
0.010298413513228298
0.010252946116961538
0.0102013094490394
0.010187277505174279
0.010210963482968509
0.010254520121961833
0.010295766252093018
0.010309954970143736
0.01029558497481048
0.010269891079515219
0.010245197941549123
0.010232174461707473
0.010230494700372218
0.010216175834648311
0.010184485777281226
0.010179632767103612
0.010221773562952875
0.010257256655022503
0.010239533036947251
0.010193939628079534
0.010165248741395771
0.010158200310543179
0.010158128468319774
0.010154506890103221
0.010122542092576623
0.010052961497567594
0.009988699350506067
0.009965679477900266
0.00997575600631535
0.010005923211574555
0.010027187429368496
0.009983260123990477
0.00987380557693541
0.009795708917081355
0.009827637909911573
0.009917810875922441
0.009967908370308578
0.00998228058218956
0.010028007705695927
0.010095124975778162
0.010121938628144563
0.010097974338568747
0.01005770888645202
0.01003494260367006
0.010029794885776938
0.010011182613670826
0.009973915601149201
0.009952323748730124
0.009960464155301451
0.00997936119325459
0.010023190220817924
0.010126145156100393
0.010240786448121071
0.010277332090772688
0.010250303796492517
0.010235051922500134
0.010235693207941949
0.010233918386511505
0.010246009081602097
0.010255776732228696
0.010208260561339557
0.010098659321665765
0.00999246898572892
0.00994038624688983
0.009927412406541406
0.0099199099233374
0.009918414582498371
0.009931830121204258
0.009941205712966621
0.009943167637102306
0.009964289925992489
0.00998940450605005
0.009973954535089433
0.009933447535149752
0.009916693544946611
0.009922760799527168
0.009911598809994758
0.009853812134824693
0.009764436418190598
0.009700448084622622
0.009687593136914075
0.009687493788078427
0.009671803140081465
0.009663481661118568
0.009688995992764831
0.009733172259293496
0.00976126420777291
0.009751742263324559
0.009696002090349794
0.009645071760751307
0.009681881084106862
0.009764401405118407
0.009790652557276189
0.009797571934759617
0.009851744147017599
0.009888681904412807
0.009848899762146176
0.009789391364902257
0.009773064758628608
0.009797869981266558
0.009849896128289402
0.009915326312184334
0.009956721113994718
0.009943838291801512
0.009889891864731907
0.0098383498378098
0.009821665929630399
0.009849126092158258
0.00992026403080672
0.01000345959328115
0.010046859541907906
0.01006229715421796
0.01009441377595067
0.010103090554475785
0.010030182343907654
0.009926628139801323
0.009883707063272596
0.009914494319818914
0.009971717498265207
0.010016964487731457
0.010045247017405928
0.010078623108565807
0.010128531912341714
0.01017976736649871
0.010232980535365642
0.010292118424549699
0.010320213381201029
0.010310256690718233
0.010323727894574404
0.01037062774412334
0.010391512452624738
0.01039142903406173
0.010432758391834796
0.010491258511319757
0.010464409231208265
0.010345566379837691
0.010248298388905824
0.010227346564643086
0.010222382936626672
0.010187827739864588
0.010140029052272438
0.010097259269095958
0.010075673926621675
0.010098518896847963
0.01016364222858101
0.010258464231155813
0.010377386948093772
0.010487037147395312
0.010557376169599593
0.010588604416698217
0.010553195062093436
0.010438567157834769
0.010331850866787135
0.010318253859877587
0.010356451477855444
0.010368931386619807
0.010366172245703638
0.010375763988122344
0.01035961514338851
0.010312250698916614
0.010310166911222041
0.010366998119279743
0.010389209818094968
0.010343430773355066
0.010318224537186324
0.010368634760379792
0.010428825728595256
0.010433833696879447
0.010419381479732693
0.010424655075185
0.010418896968476475
0.010409479797817766
0.010451290020719171
0.010510318609885872
0.010506356670521199
0.010458350083790719
0.01045119111891836
0.010526383030228317
0.01064529134426266
0.010716783916577696
0.010704447557218373
0.010676528257317842
0.010698635559529067
0.010750775425694883
0.01077266976237297
0.010759517340920866
0.010765574467368423
0.010810590162873269
0.01086646454408765
0.010892654745839536
0.010851761088706552
0.010769418869167567
0.010718429321423173
0.0107102365558967
0.010700473398901521
0.010674819801934063
0.010654088882729411
0.010659901169128716
0.01070568292401731
0.010770282656885684
0.010792574207298457
0.010744072725065052
0.010667556440457701
0.01061868753284216
0.010610188012942673
0.010617454326711595
0.010622897977009415
0.01062455548439175
0.01059302840847522
0.010503236390650272
0.01040824222844094
0.010373751344159245
0.010391855807974935
0.010430505904369057
0.010469614407047629
0.010484981276094913
0.010475687202997505
0.010470917047932744
0.010477461949922145
0.01046816452872008
0.010434824218973517
0.01039948143530637
0.010367001369595528
0.010317099941894413
0.010257033160887658
0.01023601780179888
0.010267048687674106
0.010281709292903542
0.010223851017653942
0.010141461822204292
0.010116974031552673
0.010144356740638613
0.010153878657147288
0.010130807664245367
0.010124402185902
0.010164656322449445
0.010232414766214788
0.010288339825347066
0.010309205977246166
0.010300827473402023
0.010282162730582058
0.01027249978389591
0.010261703403666616
0.010203720084391535
0.010102966669946908
0.010025994549505413
0.009988218648359179
0.009956719246692955
0.009937958777882158
0.009952721823938191
0.009993553874082864
0.010055720461532474
0.01013260256499052
0.010177054442465305
0.010148546788841487
0.010101600675843656
0.010124408300034702
0.010196942519396544
0.010239573144353926
0.010235383645631374
0.010209454400464892
0.010201571392826736
0.010262016863562167
0.010374505035579205
0.01044793162960559
0.01043682808522135
0.010391860646195709
0.010374622652307153
0.01038443457800895
0.010390535457991063
0.010383665370754898
0.010357021945528686
0.010304637253284454
0.010261400947347283
0.010264072944410145
0.010285377423278987
0.010274835037998855
0.01022380992770195
0.010162933422252536
0.010139365629293025
0.010164881274104118
0.010180972418747842
0.010143603943288327
0.01009262035600841
0.01007445395924151
0.01007591656409204
0.010074642021209002
0.010065173590555787
0.010013692360371352
0.009938932815566659
0.009868166195228695
0.009836624874733389
0.009892375417985022
0.009946660343557597
0.00997271724510938
0.010007352884858847
0.01004723107907921
0.01006013346835971
0.010038968087173998
0.010011451947502793
0.010023940880782902
0.010081862397491932
0.010144853396341205
0.010199154932051898
0.010257157823070883
0.010294779553078115
0.010279210074804724
0.010246433704160153
0.010258627040311694
0.010300156301818788
0.01029935576952994
0.01023330954834819
0.010155010195448995
0.010138198342174292
0.010204164134338499
0.010290510524064302
0.010327690015546977
0.010319411614909768
0.010299051995389163
0.010278231897391379
0.010268975300714373
0.010272220722399653
0.010256044724956155
0.010220283241942525
0.01020609427243471
0.010200542835518718
0.010164996823295951
0.010131720723584293
0.010136189684271813
0.010143943317234515
0.010123134646564723
0.010088105774484575
0.010054388362914325
0.010021543842740357
0.01000083061400801
0.010003521698527038
0.01000145702622831
0.009969368544407189
0.00994515630416572
0.00996669081505388
0.01000552470330149
0.01003434489481151
0.010080372877418996
0.010162979159504175
0.010242081326432527
0.010265201851725579
0.010243241572752596
0.010230580600909889
0.010228708307258784
0.01019170789513737
0.010121109993197024
0.010071629970334471
0.010088840932585299
0.010167000791989267
0.010244263815693558
0.01026370185893029
0.010232403809204697
0.010188772957772017
0.010153813371434808
0.010142970541492104
0.010155692547559738
0.010140663813799619
0.010064045093022287
0.00997988872230053
0.00992917335126549
0.009871156625449658
0.009797027460299432
0.009751001079566777
0.009723154599778355
0.009680675249546767
0.009641455444507301
0.009615989699959755
0.009592796429060399
0.009591979859396815
0.009620041302405298
0.009646531497128307
0.00966676679905504
0.009700717716477812
0.009754914678633214
0.009803451630286873
0.009804133237339556
0.009770146696828306
0.009759755525738
0.009778978009708226
0.009787943656556308
0.009760539140552282
0.009689800175838172
0.009620159566402435
0.00963724812027067
0.009711500220000745
0.00980234306305647
0.009882973697967827
0.009869468496181071
0.00981037512421608
0.009763488546013832
0.009732250184752047
0.009708902589045465
0.009707410810515285
0.009722021413035692
0.009717773613519966
0.009673002059571445
0.009608944701030851
0.009568856325931846
0.009561339169740677
0.009550660750828683
0.009516613357700408
0.009481354365125299
0.009462416530586779
0.009459768277592958
0.009492597756907344
0.009576347470283509
0.009685937934555112
0.009770580679178237
0.009772208370268345
0.009676207704469562
0.009560587308369577
0.009517301293089985
0.009532277532853186
0.00953307893127203
0.009523984608240426
0.009551736693829298
0.009601225387305021
0.009646893795579672
0.009707122305408121
0.009778508101589978
0.009822739455848932
0.0098286395939067
0.009818592770025135
0.009824677747674286
0.009876986658200622
0.009974759807810187
0.010079488521441818
0.010152332368306816
0.010185972545295954
0.010201832940801979
0.010224341824650764
0.010261859586462379
0.010296553140506148
0.010292775509878994
0.010246671633794904
0.010193483545444906
0.010147874034009874
0.010109310382977127
0.010093399118632078
0.010099801677279174
0.010103735816664993
0.010076856017112732
0.01000758130569011
0.00994167939759791
0.009952229433692991
0.010034953220747411
0.010092661236412823
0.010036229570396245
0.00989148236811161
0.009786974177695812
0.009788393243215978
0.009817231982015073
0.009803873184137047
0.009785593710839749
0.009804639667272567
0.009866631594486535
0.009978108745999635
0.010089360754936933
0.010109757767058908
0.010072178971022368
0.010094388453289867
0.01016029786784202
0.010176634266972542
0.010168247050605714
0.010200450709089637
0.010244048936292528
0.010259355930611492
0.010261120721697808
0.010237950426526367
0.010169822811149061
0.010103934267535806
0.010087193199433386
0.010100061036646367
0.010101107247173786
0.010086230020970106
0.01008182244375348
0.010086216675117611
0.010076518207788467
0.010057173296809196
0.010049142311327159
0.010069048004224897
0.010118059027008712
0.01016722344327718
0.01019799403846264
0.010225514685735106
0.010246994709596037
0.010255641066469251
0.010279204840771853
0.010320636159740389
0.010338690960779787
0.010332518536597491
0.010340199624188244
0.0103465133626014
0.010327409338206053
0.010332713145762682
0.01038920649792999
0.010424756002612412
0.010393272768706083
0.010351553251966834
0.01034504959359765
0.010357266990467906
0.010373653736896813
0.010384996570646763
0.010373452217318118
0.010334939057938754
0.010283798347227275
0.010226303404197097
0.01016716482117772
0.010137883140705526
0.010156433652155102
0.010203376640565693
0.010255747553892434
0.0102926136367023
0.010305162570439279
0.010308424807153643
0.010313310022465884
0.010313617088831962
0.010298740798607469
0.010257840445265174
0.010192323653027415
0.010133065632544458
0.010122328083962202
0.010173149947077036
0.010247148261405527
0.010270118988119066
0.010198294622823597
0.010082834740169347
0.010021549719385802
0.010033851009793579
0.010051798382773995
0.010025476752780378
0.009962773947045207
0.009900838499888778
0.009885818297043443
0.009945021774619818
0.010052504958584904
0.010138271269388497
0.01015771561767906
0.01013863492757082
0.010127966958098113
0.010134481773711741
0.010167864533141256
0.01024735376238823
0.010329621890559793
0.010345103652216494
0.010307578020729125
0.010282363318838179
0.01028812642209232
0.010298321549780666
0.010294701801612974
0.010269900555722416
0.01021625628694892
0.010170677928254008
0.010204066368751229
0.01030303250066936
0.010352290919981896
0.010288653518073261
0.010196589506231249
0.010184529763646423
0.01023076476994902
0.01024941198527813
0.01022410596255213
0.010183170572854578
0.010146368239074945
0.010141281480900943
0.010191498040221632
0.010276628970168532
0.010341891259886325
0.01036456880159676
0.010374431889504194
0.010400185319595039
0.010443239025771617
0.010472722859121859
0.010442173164337874
0.010363378589972853
0.010316567244008184
0.010340312286280096
0.010378092261962592
0.010386588359251618
0.010404221420176328
0.010445271446369588
0.010450975205749273
0.010416596420109272
0.010411352999508381
0.010431292741559446
0.010407392289489508
0.010330266221426427
0.010234784316271544
0.010143136018887161
0.01007984797935933
0.010051761576905847
0.010026000696234405
0.010006549460813403
0.010026922230608762
0.010047999233938754
0.010027930731885135
0.010011684070341288
0.010019533070735633
0.010010843337513507
0.010005391957238317
0.010052472432143987
0.010114234844222665
0.01012383827008307
0.010095683028921484
0.010088266995735467
0.01010907274670899
0.010133941094391048
0.010167951844632626
0.010216662748716772
0.010248720124363899
0.01022850158624351
0.010166189302690327
0.010120656043291092
0.010132246166467667
0.010152242174372076
0.01010873326100409
0.010030084317550063
0.009990865662693978
0.01000056866556406
0.010042987372726202
0.010110016083344817
0.010140871540643274
0.010060768644325434
0.009910963005386292
0.009811406233347952
0.009807869391515851
0.009854327281937003
0.009889116887934505
0.009891931726597249
0.009897217596881091
0.009935044553130865
0.009973231349140405
0.009964499832130968
0.009920999826863407
0.009871118529699742
0.00980861579068005
0.009751260979101062
0.009734381847083569
0.009738079425878822
0.009738520802929997
0.009748803982511163
0.009736879668198526
0.009658435508608818
0.00957353706471622
0.009564584707841278
0.009610680276528
0.009655873365700245
0.009690618887543679
0.009716548342257738
0.009715111018158496
0.009688060693442822
0.009691468058153987
0.00974626435432583
0.00976494636386633
0.009693085155449808
0.009620460853911937
0.009645421504974366
0.00973653158172965
0.00978048485238105
0.00971944731194526
0.00962579907849431
0.009614749103784561
0.009688716786913574
0.009746852545067668
0.009742133477702737
0.009721237057819963
0.009704548167064786
0.009654639484360815
0.009581651906482875
0.00955081387422979
0.009571263273246587
0.009576228014193475
0.009536228133365512
0.009519070200622082
0.00957344691734761
0.009639047081582247
0.009655231055803596
0.00964382963720709
0.009626817209646105
0.00958803306799382
0.00955338539555669
0.009584131506271661
0.009650600934401154
0.00964400612283498
0.009553684573620557
0.009492894085124135
0.009530962500721217
0.009626750000752509
0.00971361991018057
0.009756436604075134
0.009760326221585274
0.009758568098768593
0.0097523223888129
0.00972138944081962
0.009700343129225075
0.009723996389657258
0.009769484936259686
0.009818385266698896
0.009851593459025025
0.009826741041615605
0.009755670656450093
0.009706715769134462
0.00969692257232964
0.009676889423280955
0.009630106850527226
0.009593844413757324
0.009577777008526028
0.009557258170098067
0.009534289450384677
0.009533387683331966
0.009554819334298373
0.009569128276780248
0.009559138659387827
0.009540541246533394
0.009538326440379023
0.009554943479597568
0.009568722806870938
0.009582137027755379
0.00961319278459996
0.009628085978329181
0.00959798094816506
0.00959412170574069
0.009673217134550214
0.00975521545857191
0.00977414358407259
0.009779136995784938
0.009806499970145523
0.009838065542280673
0.009849073300138116
0.00981048290617764
0.009726751847192645
0.009677208201028407
0.009734917404130102
0.009848324712365866
0.009911370147019625
0.009917748523876072
0.009927369807846843
0.009950162186287343
0.009957274347543716
0.009948220127262175
0.00994921229314059
0.009977269121445715
0.010018568406812846
0.010038180947303773
0.010021957186982035
0.009972651330754161
0.009894763841293753
0.009839239832945167
0.009869211660698056
0.009958282695151865
0.010034685768187047
0.010082308505661785
0.010107825859449804
0.010096504157409071
0.010048643047921359
0.009988367930054665
0.009938425775617361
0.009910042178817094
0.009911331995390356
0.009949819343164563
0.00999042353592813
0.009969858191907406
0.009905762309208511
0.009883783264085651
0.009895856580697
0.009846515762619674
0.009748892784118652
0.009718201356008649
0.009767523114569486
0.009796418296173216
0.00976137694902718
0.009724614466540516
0.009736401666887105
0.009756164187565445
0.009732825527898968
0.009693061178550124
0.00968612833879888
0.009710753443650902
0.00973910796456039
0.009746905942447483
0.00971175720449537
0.009638645993545652
0.009577774642966688
0.009581581638194621
0.0096468300325796
0.00970837359316647
0.009710415750741958
0.009671629099175334
0.009632716435007752
0.009595865411683916
0.009563433649018406
0.009558050818741321
0.009592390866018832
0.009638329255394637
0.009641895950771869
0.009610830587334931
0.009600644139572978
0.009609503480605781
0.00961171715054661
0.00961748143658042
0.009626205298118293
0.009637508550658822
0.009687853823415936
0.00977655552327633
0.009846305418759584
0.009880313333123922
0.009909522230736911
0.00993317830376327
0.009931794740259648
0.009920637984760106
0.00990992690436542
0.009874878497794271
0.0098147202283144
0.009780237502418458
0.009813526258803905
0.009887749049812555
0.00993699999526143
0.009935854854993521
0.009914017468690871
0.009901726134121418
0.009888048595748843
0.009835549145936966
0.00975479485001415
0.009707990922033788
0.009683580230921507
0.009617204209789634
0.009538317578844727
0.00951460916083306
0.009535040599294007
0.009561251173727215
0.009590417416766285
0.009611105071380735
0.00958008548244834
0.009491094378754497
0.009409646159037948
0.009398146495223046
0.009432806898839772
0.009451689631678164
0.009446351011283695
0.009422173537313939
0.009370829681865872
0.009331578598357737
0.009347435757517815
0.00938857621513307
0.009418740514665841
0.00946173835080117
0.009527297909371554
0.009555087643675506
0.009513750080950558
0.009469118909910321
0.009474031529389321
0.00948548765387386
0.009465861953794957
0.00946406168397516
0.009516045372001826
0.009572558393701911
0.009593472029082476
0.009597458224743605
0.00959444880951196
0.009584660157561303
0.009598019630648196
0.009644037634134293
0.009672240265645086
0.009648713683709502
0.009625935549847782
0.009669316872023047
0.009762745904736221
0.009840059569105506
0.009872809113003313
0.009894877164624631
0.009922212208621203
0.00991750232875347
0.009884720938280224
0.009886318636126816
0.009934663777239621
0.009962393841706217
0.009933908660896123
0.009897036822512745
0.009892407851293684
0.009926037518307567
0.010002534403465688
0.010092563354410231
0.010139081948436797
0.010118731637485326
0.010052453349344433
0.009981737099587917
0.009944030698388815
0.009947931645438075
0.009982977481558918
0.010030295667238533
0.0100539037771523
0.010042010499164462
0.010029593789950013
0.010038093440234661
0.010037451558746397
0.009993081451393665
0.009930341318249703
0.009901151931844652
0.009897162802517415
0.00987532636616379
0.009844451528042555
0.009832650469616056
0.009816314997151495
0.009778026062995195
0.009753709295764565
0.009758365042507648
0.009767500995658339
0.009769854778423905
0.00976051007397473
0.009738929183222354
0.00973886896390468
0.009796766825020313
0.009898809161968529
0.009975245422683656
0.009951044712215662
0.009844952863641083
0.009765137457288802
0.009760161340236663
0.009777081850916147
0.00977859580423683
0.009790930515155196
0.009834285331889988
0.00987628239672631
0.00988189531955868
0.00988949166610837
0.009956338373012841
0.010031503839418292
0.010030387751758098
0.010000631310977042
0.01002969210036099
0.010082898219116032
0.01009712043683976
0.010095986826345325
0.010115744676440955
0.010139979724772274
0.01013874410185963
0.010115630822256208
0.010092438673600554
0.010073831179179251
0.010075300731696189
0.010118202092126011
0.010166784045286476
0.010178911043331027
0.010181308556348086
0.010200468339025975
0.010220055752433836
0.010242583248764276
0.010278892554342747
0.010302521791309117
0.010299572027288378
0.010300975670106708
0.010313489409163594
0.010302951415069402
0.010270084990188479
0.010244500790722668
0.01021211375016719
0.010145107712596656
0.01007928493898362
0.010073061548173428
0.010111772455275059
0.010131939565762877
0.010122291347943246
0.010131618143059313
0.010173043454997241
0.010198794724419712
0.010182195496745407
0.010131944296881556
0.0100646052043885
0.01000978878699243
0.009970930740237235
0.009932055720128119
0.009908894505351783
0.00991002792492509
0.009909954043105245
0.009895147057250142
0.00988939770963043
0.009925633622333407
0.01001196248922497
0.010109213027171791
0.010127517278306186
0.010027597253210842
0.009904539119452238
0.009861639779992402
0.009878953918814659
0.009895809232257307
0.009914209358394146
0.009940999099053443
0.009941958412528039
0.00991812968160957
0.009920538109727204
0.009954900951124728
0.00996687721926719
0.009938030862249434
0.009916362408548594
0.00992915993090719
0.009937560260295868
0.009910715124569834
0.009869730602949857
0.00984262882731855
0.009851629752665758
0.009910282120108605
0.009976774882525206
0.009999342486262322
0.010019957385957241
0.01010220421012491
0.010186659297905862
0.010178328040055931
0.01011869203299284
0.010107982824556529
0.010136475935578346
0.010118795777671039
0.010021264599636197
0.009892072058282792
0.009819807368330657
0.00985717582050711
0.009948938488960266
0.00999698046594858
0.009990711016580462
0.009980098945088684
0.009975943276658654
0.009961412413977086
0.009941383241675794
0.009941995344124734
0.009990952210500836
0.010065318006090819
0.010073584676720202
0.00999056087806821
0.009913870319724082
0.00988639165647328
0.009849983798339963
0.009804522581398488
0.009810238732025028
0.00986899142153561
0.009933247528970242
0.009975119726732373
0.01000608991831541
0.010046988558024168
0.01007834745105356
0.010071143908426165
0.010048549263738096
0.010044193798676134
0.010049567460082471
0.010041218446567655
0.010011948845349252
0.009970093863084912
0.009917745077982544
0.009849356450140477
0.009787303884513677
0.009761527753435075
0.00975757577456534
0.009741520723327995
0.009717323170043528
0.0097082095220685
0.00969771365635097
0.00968122216872871
0.009712582197971642
0.009791661920025944
0.009845738001167774
0.00986545519437641
0.00990072736516595
0.009941527754999697
0.009928903668187558
0.009870679820887745
0.00984512816183269
0.009882263438776136
0.009939347240142525
0.009988779476843774
0.010032412698492407
0.010066736894659698
0.010098193539306521
0.010131531856022774
0.01014018845744431
0.010096578169614076
0.010008995099924504
0.009916854677721859
0.009857566584832967
0.009822567151859403
0.009762083692476154
0.009676354066468775
0.009645554395392537
0.009708177894353867
0.009789931932464241
0.009806150030344725
0.009774076351895929
0.009756480315700174
0.009748358484357596
0.009718915997073054
0.009682512497529388
0.009649222772568465
0.009612374720163644
0.009600293724797666
0.009635200654156507
0.009672383372671902
0.009663553736172616
0.009636215548962355
0.009642505906522275
0.009677366940304638
0.00970795212779194
0.009724092832766474
0.00971979804802686
0.009682044102810324
0.009619631189852953
0.009566705217584967
0.00952507067937404
0.009461418986320495
0.00940686570480466
0.009428395186550914
0.009489014269784093
0.009499698150902987
0.00947969607077539
0.009525717138312757
0.009646820584312082
0.009743253425695002
0.009747152742929756
0.00970077871810645
0.0096803625440225
0.009695057645440102
0.009704967541620136
0.009695279682055115
0.009678120664320887
0.009661133317276836
0.00964234909042716
0.009610933540388942
0.009554434586316347
0.009490288663655519
0.009469608152285218
0.009502772730775178
0.009529486624523997
0.009519719979725777
0.00952295976690948
0.009566591591574252
0.009600646351464093
0.009575973176397383
0.009508166261948645
0.00945771218277514
0.009455288797616958
0.009464250486344099
0.009454368990845978
0.009458451010286808
0.00950516788288951
0.0095522281806916
0.009544922355562448
0.009505211347714067
0.009499317440204323
0.009539497140794993
0.009574920502491296
0.009557831040583551
0.009485710770823061
0.009396723248064518
0.009336628057062625
0.00933448781259358
0.009385316800326109
0.00946316828019917
0.00957233456429094
0.009703921368345619
0.009785288358107208
0.009780658041127026
0.009726593010127545
0.009643882121890783
0.009541454473510385
0.009468324142508209
0.009472116143442691
0.009526072754524648
0.009555468871258199
0.009525697394274175
0.009458837280981243
0.009385592765174805
0.009318730090744793
0.009270520880818367
0.009265972282737494
0.009307545344345271
0.009364529792219401
0.00943850576877594
0.00956226951442659
0.009711612327955664
0.009813587516546249
0.009843213548883796
0.009840465122833849
0.009829460168257356
0.00978454962838441
0.00969913488253951
0.009618509747087955
0.009573418688960373
0.00955307819880545
0.009573692702688277
0.009666992318816483
0.009764851229265332
0.009757912210188806
0.009676191341131925
0.009633165397681297
0.009643160477280617
0.009641931466758251
0.009627546020783483
0.009661541902460158
0.009749532844871282
0.009830987332388758
0.009878131789155304
0.009908927935175598
0.009923453582450748
0.009878903715871275
0.009866269454360008
0.009829139891080559
0.009749252484180033
0.009728779336437583
0.009756482909433544
0.009768057861365378
0.00977344621438533
0.009813619097694754
0.009890236728824674
0.009973602034151555
0.010035683759488165
0.010076819425448776
0.010125565100461245
0.01017926275730133
0.010176196587271988
0.010094040920957923
0.010013041319325566
0.00999522919766605
0.010002518049441278
0.009992757979780435
0.009984738207422197
0.010014557898975908
0.010070220907218754
0.01008977766148746
0.010079318005591632
0.010137841925024987
0.010279006459750235
0.010397859341464937
0.010449621356092393
0.010463373186066747
0.010422295164316893
0.010315400892868637
0.010219286475330592
0.010183472326025367
0.010138430655933917
0.010030213193967939
0.009933731420896947
0.009938845918513834
0.010015370803885162
0.010084133422933518
0.010177527545019984
0.010388386552222073
0.010649922038428485
0.010759457494132221
0.010659970194101333
0.010559810451231897
0.010549010415561498
0.010670566204935313
0.010750164263881742
0.01078767245169729
0.010831266026943922
0.010759584531188011
0.010611046710982919
0.0104844802711159
0.010351717262528837
0.010229742885567248
0.010108398906886577
0.010135723487474024
0.010342184249311685
0.010720272241160273
0.011028341236524283
0.010966876521706581
0.011386132850311696
0.01199215064290911
0.012142533459700644
0.012565932879224419
0.01313874986488372
0.013195434450171888
0.013297367324121297
0.013229933246038853
0.013201886480674148
0.013325482122600079
0.013647697223350406
0.013818456795997918
0.014154435051605106
0.01501827735453844
0.015880713127553462
0.015989647721871735
0.016463039023801685
0.017332231053151192
0.018239564560353756
0.01882166273891926
0.018916012053377926
0.018938220026902854
0.018944527758285402
0.018986451127566396
0.01922327619045973
0.01960559457540512
0.01995751671958715
0.020285288859158753
0.02094304084777832
0.02221840600948781
0.023693980011157693
0.02451393607072532
0.024378373376093804
0.024826342067681254
0.025038127969019115
0.025184944663196804
0.025521399872377514
0.025537598095834255
0.025936316419392823
0.02671022614929825
0.027663017199374737
0.028053096258081497
0.02818603842984885
0.028069983310997484
0.028932488183490934
0.03004592960700393
0.030400848011486233
0.030272857984527946
0.030470307287760078
0.03083314870018512
0.030759419784881174
0.03174451409373433
0.03378797221928835
0.03643176277168095
0.03863800599239767
0.039683380210772154
0.03971979125402868
0.03996276939753443
0.04010300256311893
0.04000072066206485
0.04006850008387119
0.04083525134716183
0.04212392631452531
0.04281107167247683
0.04331910637207329
0.045086223063990474
0.046681826314888895
0.04736460238229483
0.047633893112652
0.04776812459807843
0.0483708531036973
0.050295793483965096
0.05268920415081084
0.053642064584419134
0.05476928840391338
0.05666124917101115
0.05778533959295601
0.05769841811619699
0.05818033311050385
0.0587899482017383
0.05925655885599554
0.05923059820663184
0.06010352079290897
0.0618068508664146
0.06362222034949809
0.06512734301853924
0.06612863328307866
0.06609863767866045
0.06721950901206583
0.06934631646145135
0.07169782192446292
0.07371536100748927
0.07510880346875638
0.07551625503227115
0.07895576346665621
0.08303916335105896
0.08381306439172477
0.0859072226518765
0.08798657292034477
0.0880480220168829
0.08891678908839822
0.08895331090781838
0.08889652646612375
0.08905546514783054
0.08944529045373201
0.0900706934882328
0.09040594918187708
0.09047009991016239
0.09153589006979018
0.09373409379739314
0.09602630626875908
0.09783815546892584
0.09822553056292235
0.09835778813343495
0.10071400938555598
0.10425216589588672
0.10558814805001021
0.10470219142269344
0.10399995977524668
0.10479014629963786
0.10584118136670441
0.10625927890650928
0.10784417932387441
0.10893526647705584
0.10895829205866903
0.10868552398867905
0.10882611262612045
0.10929710607044399
0.10928713591769337
0.10828021445777267
0.1068995720334351
0.10605694522615522
0.10687827127519994
0.10748153571039439
0.10773858866654336
0.10766836780589074
0.10790276555344462
0.10895953220780939
0.10960231172852218
0.10899066016077995
0.11045474202837795
0.11338049081154168
0.11496216103434563
0.11570303639397025
0.11654517935588955
0.1161184366280213
0.11607237278483808
0.1167326264316216
0.1163950886297971
0.11652184853795916
0.11723728978540748
0.11626432401593774
0.11489891469012946
0.11343155501876026
0.11238136323168874
0.11200965871568769
0.11198181122075766
0.11227423354052007
0.11227572939824312
0.11249907643068582
0.1123273164080456
0.11179016383364797
0.11045981963630766
0.10969681467860937
0.10973740545101464
0.10921751169953495
0.10815153918694705
0.10812707145698369
0.1092104524327442
0.11050981551408767
0.11080563229974359
0.10911156009417028
0.10795706011820584
0.10799458632245659
0.10689247590024024
0.10557377218268811
0.10466908959206193
0.10473857968579978
0.10410406429786236
0.10332515181507915
0.10280216736719013
0.10364826873410493
0.10387183246202766
0.10232025435194374
0.10199668908491731
0.10306261651683599
0.10399962691124529
0.10427199036814272
0.10354594353120775
0.10179922030307352
0.10010743770282715
0.09896052557509392
0.09775120151229202
0.09803292423486709
0.09570184517186135
0.09242211947683245
0.09179470748174935
0.08975744784809649
0.08860981302335859
0.0900210214406252
0.08989553106948733
0.08978200732730329
0.09074084842111915
0.09340435105375945
0.09516887804493308
0.09531211597379297
0.09839016537647695
0.10064175860024989
0.10008362791035325
0.09985437712166459
0.09957623546943069
0.09949054752476513
0.09928785269148648
0.0993683911068365
0.0982876545842737
0.096005380442366
0.09442012628074735
0.09583108145743609
0.09691832582000642
0.09634361770004034
0.09592118445783854
0.09614453058689833
0.09461795526556671
0.09381974913179875
0.09395117834210395
0.09395933274645359
0.0937165880203247
0.09351424359250814
0.09355927835684269
0.09392042492982
0.09437433179467916
0.094893390503712
0.09449244423303753
0.09365181074477733
0.09482350225094706
0.097586534996517
0.09998257435392588
0.10070105309598149
0.09974791486747563
0.10118441080208868
0.10086388988420367
0.09891073413193226
0.09736079281195999
0.09863279765006155
0.09892792057711632
0.09846142025664449
0.09969154677819461
0.10142941501457244
0.10297645238693803
0.1031995920697227
0.10383358047343791
0.10527214815374464
0.10468018670100719
0.1046969826426357
0.1048936869110912
0.10517818239051849
0.10598671833518893
0.10635084911249577
0.1070419624587521
0.1068186468211934
0.10842110618948936
0.11025628400966525
0.11098388697486371
0.11159268284682185
0.11131695270072668
0.11016115871723742
0.10970590854994952
0.10949981642421334
0.10834427621215582
0.10823294187430292
0.10962913791649044
0.11058178605977446
0.10987592105288059
0.11001399592496455
0.11040029225870968
0.10977575435303151
0.11031770518049598
0.1119283768022433
0.11260567797813564
0.11347784382291139
0.1143468281487003
0.1135453872801736
0.11264236533548683
0.11351739074569195
0.11345187490340322
0.11180232251994311
0.10997497953940183
0.10985791026614607
0.10948865253478289
0.1095051342761144
0.10913152453489601
0.1082471667882055
0.10817588379606605
0.10744870023801922
0.10644184086937457
0.10561334431637079
0.10563152244314551
0.1058088439423591
0.10497859600000084
0.10378464233595878
0.1036476415861398
0.10416654849424958
0.10319358077365905
0.10079830569215119
0.09918491054326296
0.09880189856979996
0.09577497764024884
0.09453973810188472
0.09416623606346547
0.09318445656914263
0.09227397951763124
0.0908370513189584
0.09048788567539305
0.08978134149685502
0.08753238526638597
0.08639040344394744
0.08615683059673757
0.08517611275892704
0.08405203657224775
0.08358864495996386
0.08471436440944671
0.08727809001691639
0.08950427043251694
0.08917129192966967
0.0900986497104168
0.09082158819772303
0.09092478313017636
0.09132095195353031
0.09244348814245314
0.09296840372495353
0.09322613272350282
0.09458111996762454
0.09440679577179253
0.09591760445851832
0.09557399835903198
0.09329890700988472
0.09158816174603998
0.08982022352982312
0.09054430056363344
0.08901907898019999
0.08799569061957299
0.08734595549292862
0.08767492617480457
0.08682564933318644
0.0856693573994562
0.08531200671102851
0.08362606028560549
0.08184640193823725
0.08092623623088002
0.08327858903910965
0.08516697401646525
0.08364772620145232
0.08702514781150966
0.08974091212265194
0.09006573844701052
0.08915878838859498
0.08850702568888665
0.08901066736783832
0.08920400233939291
0.08998780254740268
0.09086481304373592
0.0920961394207552
0.09449218925088644
0.09495701359584928
0.0962739334627986
0.0993924200674519
0.10189978070557118
0.10221184885594994
0.10280549852643162
0.10303414377383888
0.10167436034884304
0.10069446890614926
0.10074789360631257
0.09990348485764117
0.10055317908991128
0.10122062106151133
0.10091000814456492
0.10150375863071531
0.10403807542752475
0.10521924895700067
0.10417557484935969
0.10477931512985378
0.10503002479672433
0.10429525326006114
0.10353420826140791
0.10333011489361525
0.1034775671781972
0.10336182222235948
0.10362399405334145
0.10446782546583563
0.10526047674007714
0.10557105612009764
0.10646408761385828
0.10647868405561894
0.10742453901097178
0.10776844824664294
0.10814705597236753
0.10826338378246873
0.10792002650443465
0.10801545109599829
0.10779242366086692
0.10692910784855485
0.10752082869410515
0.10745436667464674
0.10629151890520007
0.10673220498953015
0.10756261508446187
0.10778467847499996
0.10826924533117563
0.10745423754677176
0.10699054636061192
0.10640467562712728
0.10806229347363114
0.10987835526932031
0.10990193768870085
0.11184930842369795
0.11389000314287841
0.11430395727977156
0.11485308321192861
0.11525968766305596
0.1134276636550203
0.1103224870795384
0.1092215381655842
0.11094567110762
0.1094784766016528
0.11084735458251088
0.11316013438627123
0.11401650277432054
0.11416656031273305
0.11584227348212153
0.11731961185112595
0.11552671097684651
0.11780372833833098
0.11805086107924581
0.11701076653320343
0.1179971379507333
0.11736682797782123
0.11768211357761174
0.11684296852443367
0.1170509019587189
0.11722721740137786
0.11954916939605027
0.12137697802856565
0.12070856038946659
0.11983972725924104
0.12023032976314425
0.120635104929097
0.12064617187716067
0.12215420790947974
0.12161322976462544
0.12025147679261863
0.12128310886211693
0.11835495112463831
0.11464627660345286
0.11298612149897963
0.11295034725684673
0.11271569366566837
0.1115988328307867
0.11121547533199191
0.11147554879076779
0.1102004433143884
0.10773843043018133
0.1048309766734019
0.10561901846900583
0.10630738640204072
0.10385179050266742
0.10226957018952816
0.10300620595924556
0.10290137527976186
0.1016982482932508
0.10144474759232253
0.10187799375504256
0.10166674539446831
0.10211833541747183
0.1021536602312699
0.10170315683353692
0.10249655799008905
0.10221590881235898
0.10012870438862592
0.09792576279025525
0.09847504364792257
0.0980971779860556
0.09824875180609524
0.099343047067523
0.09925928086973727
0.0990620099566877
0.09935056968126446
0.09935954845510424
0.09923867346253246
0.09899883890058846
0.097953717764467
0.10001491296570748
0.1020324424142018
0.10204319125972688
0.10526164437178523
0.11017790416721254
0.11129172729328275
0.11297595884185284
0.1163849865924567
0.11750276171136648
0.1167854650458321
0.1177395634073764
0.11948098885826766
0.12047067692503333
0.12062759442254901
0.12006008601281792
0.11894953654147684
0.11859707809053362
0.11907654587179423
0.11964977527037263
0.1186759427189827
0.11982236279640347
0.11938781291712075
0.11792640598025173
0.11840341865085065
0.1169861410651356
0.11536414281465113
0.11537732523400336
0.11620110127143563
0.11599955600686371
0.11642214072402567
0.11637211157940328
0.1159271946689114
0.11478950422257185
0.11509171562734992
0.113921561059542
0.11214840724598617
0.11048837227746844
0.10852361359167845
0.10605290281586349
0.10426978518720716
0.10449861699715257
0.10219824688974768
0.10010639477986842
0.10019961040932684
0.09966595320496709
0.10045520469546318
0.10104209008160979
0.10132097114808858
0.10185615682508796
0.10076435308903456
0.09839491487946361
0.09661494666244835
0.09613526731263847
0.0963612595340237
0.09618506575003266
0.09581721405033022
0.09547047346830367
0.09362634676974267
0.09169994062278419
0.09157463592942804
0.09159751019906252
0.09152888263575733
0.09233357654418796
0.09273754742927849
0.09307269304525106
0.09420586847234518
0.09535698196385056
0.09558908937964589
0.09459660523571074
0.09418624535668642
0.0942163574649021
0.09437391421291977
0.09302027818281204
0.09184005543589592
0.09185763331130146
0.09114519448950886
0.09083598694298417
0.090920255840756
0.09084506331011653
0.09056629485450685
0.09004068745300174
0.09045004084240645
0.09084637256804853
0.09008011976256966
0.08991659417748452
0.08966406469233335
0.08950444012414664
