0.011064730400103145
0.011150559191592038
0.011175022851093673
0.011171620222739875
0.011194909051409923
0.011265941538731568
0.011368892992613837
0.011466998532996512
0.011531618000008166
0.011561934169149026
0.011577328588464298
0.011594059358467348
0.011592074735090137
0.01154980308143422
0.011492769420146941
0.01146617460588459
0.011548532434389927
0.011640335737611167
0.011654209919506685
0.011614815854700282
0.011565467583714052
0.011536656549433246
0.011489195135072804
0.011432520578964614
0.011432362899649889
0.011494078092509881
0.011516523372847587
0.011468586337869055
0.011530010722926818
0.011639555840520188
0.011726798038580455
0.011757857954944485
0.011755574070848525
0.011758270064019598
0.011772594435024075
0.011801110545638949
0.011861303597688675
0.011939055611146615
0.011989220759714954
0.01200615155394189
0.012035332353552803
0.012118586291908286
0.012248032555216923
0.012343701447243803
0.01232673297461588
0.012260561764705927
0.012224878217093647
0.012258590712444856
0.012262907112017274
0.012295903959893622
0.012354267057380639
0.012355371113517321
0.01232560271571856
0.012311277142143808
0.0123263152531581
0.01236720704648178
0.012402864168398081
0.012430429948144592
0.01246190125006251
0.012485292893834411
0.012478454870870338
0.012436262596747839
0.012369195610517636
0.012328512473613955
0.01231063154351432
0.01230012665502727
0.012326316408580168
0.012256936574704013
0.012329667197191157
0.012422145516611636
0.012436568886041641
0.01246281248575542
0.012563207385246642
0.012669575674226507
0.012729882972198538
0.012767527690739371
0.01280481792113278
0.012848962554126047
0.01292260454967618
0.013008982912288048
0.013024295689538121
0.01303234615479596
0.013049418965820223
0.013007252263487317
0.012953556271386333
0.012898835531086662
0.01291772952012252
0.013030000575236044
0.013109834817005322
0.013058222886756994
0.013040061742649413
0.013083981038071214
0.013137497999705374
0.013173497123643756
0.01318628792418167
0.013178018543985672
0.013182780232164078
0.01326145883766003
0.01340993936988525
0.013593987200874836
0.01375042947824113
0.013824625932611525
0.013830254224012605
0.013826168265659362
0.013780004099826328
0.013853907960583455
0.014104518540552818
0.014306954315397889
0.014300347300595604
0.014313739300705492
0.014327160122920759
0.014382909386768006
0.014395850980072282
0.014523161153774708
0.014640460409573279
0.014697343257721514
0.014751375276246108
0.014870289381360636
0.015056542378151789
0.01526715757092461
0.01544756315241102
0.015544531274936163
0.015547436547349207
0.015507621706929058
0.015487508997321129
0.015495776569587179
0.015481388928019441
0.015472993812290952
0.015452425708062947
0.015473819926846773
0.015566341737867332
0.015684547977289184
0.015774181541055442
0.01579884276492521
0.015765051334747114
0.015700491158640945
0.015656322122085838
0.015640252434532157
0.015595999491051771
0.015577136101201176
0.015550005509285257
0.01550837718998082
0.01552252767549362
0.01562676748551894
0.015734254893613978
0.01576661523198709
0.015778782310662792
0.015830790813779458
0.015871938309282997
0.015870693975593896
0.015887252152897418
0.015963393191923386
0.016044693883741273
0.016024192176409997
0.016059878054657018
0.01605875610781368
0.01615491923817899
0.016399684413336217
0.016661249311291614
0.016851389250950886
0.01692339500063099
0.016867417550529354
0.016909070790279656
0.016900192095781676
0.0168652963754721
0.017051385549129917
0.017453642691252755
0.017663388845976444
0.017826575900544414
0.018326968178153036
0.018749701051274315
0.018912454249802976
0.018965891166590153
0.019030577221419664
0.019010229291743598
0.01906647424271796
0.019240765550639482
0.0194722791883396
0.01976897107088007
0.0202261886006454
0.02075768739799969
0.021034740800387225
0.020995278450427576
0.02122072870552074
0.021480010589584708
0.021736436535720712
0.022102394211688078
0.022553921834332868
0.022867522005108186
0.022941280785016716
0.022990824025473557
0.023238124966737814
0.023585403923643753
0.023755168325151316
0.023854168129037134
0.024023934496799484
0.02409288764640223
0.0241845053905854
0.02447679529839661
0.024745945875765757
0.024682106339605527
0.02471016615512781
0.024797915891977027
0.024888683722238056
0.025002647009678185
0.025125087574706412
0.025294157825410366
0.025495480985264295
0.02547326986154076
0.025700252741808073
0.025971071310923435
0.025911096928757614
0.026161417890689334
0.02645390669698827
0.026685469513176942
0.027000378497177735
0.027318907371372915
0.02737577227409929
0.02752579042164143
0.027841827139491217
0.0278770611010259
0.028119333760696464
0.028305695202434436
0.02847325580078177
0.028990258504636587
0.029650465585291386
0.03025676641263999
0.030641259403782897
0.030594922792515716
0.031226358021958733
0.03252476600697264
0.034075475737918165
0.035437014459748756
0.03634569756512065
0.03657853882934432
0.03695653182745445
0.03794302432157565
0.03913191769679543
0.039986956747598015
0.040167059107334355
0.040165456936811096
0.04032091412635055
0.040509565460961315
0.040652481464203444
0.041318810984375884
0.041689055686583744
0.04180892671109177
0.042441213991260156
0.043561748851789164
0.0440755846106913
0.044397231623297555
0.045207105618319476
0.0458603911974933
0.04622978606959805
0.04668392431980464
0.04745560645416844
0.048240287062944844
0.0486252855847124
0.048635604404844344
0.048709378290222954
0.04933944747841451
0.0505684568232391
0.05180165376339573
0.05237161169410683
0.05238747396680992
0.0523985726328101
0.05248434697045013
0.05258195618516766
0.05304637730238028
0.053608986588660625
0.053893258306197823
0.05407697150483728
0.054778031902969815
0.05560947520832997
0.05607596015441232
0.05611513279087376
0.05609952179598622
0.05613629901141394
0.05628931836748961
0.05664241330930963
0.0570158874039771
0.057023503739619626
0.057520471512689256
0.05811368689115625
0.05841533949715085
0.05849131084454712
0.05847726310661528
0.05861260587000288
0.05907234201848041
0.059726778789190575
0.06000061100232415
0.060220239118207244
0.060968116314033975
0.061860062609775925
0.0626554770610528
0.063323145256727
0.06365704723808449
0.06381915170233697
0.06438967861991841
0.06488734814105555
0.06509130082384218
0.0651205454923911
0.0650636731722625
0.06504751227097585
0.06509707330260425
0.06518944103037938
0.06546330748475157
0.06587913809518796
0.06604084856924601
0.06626425758819096
0.06647421294590458
0.0664585204666946
0.06656130159273743
0.06677583995624445
0.06694808793894481
0.06687843278981745
0.06708574644406326
0.06718047025322449
0.06732097620842978
0.06794586309115402
0.06912995423073881
0.07056934608554002
0.07192295038723387
0.07273889590869657
0.07306118773878552
0.07480459256854374
0.07711765686690342
0.07848994368861895
0.07861605677986518
0.07934955808043015
0.07930213891842869
0.07992334728478453
0.0803095152322203
0.08084167136286852
0.0817165630206
0.08179759432561695
0.08248892589472234
0.08321911486738827
0.0834528903150931
0.08373293614189606
0.08402867734897881
0.08411754662112798
0.08408331518352498
0.08469740214874037
0.08580775872513186
0.08627246287884191
0.08692282653413713
0.0877716652705567
0.08794602767098696
0.08955097794590984
0.09120787268970161
0.0914383108977927
0.09215319996175822
0.09281160833663307
0.09281861432478763
0.09306719298765528
0.09298046500596684
0.09287126846495085
0.09260766312014311
0.09263043987215497
0.09314856514218263
0.09356806202849839
0.09356902597064617
0.0937304094521096
0.09369789284945
0.0936427484068554
0.09373442577489186
0.09435211718897335
0.09473636052105576
0.09443748273770325
0.09482391406199894
0.09529767306114081
0.09530220959626604
0.09538918591570109
0.09542859496257733
0.09540593077428638
0.09552522995858453
0.09582020450558047
0.0958297749236226
0.095355666326941
0.09492886924766936
0.09517974482791032
0.09565137160301675
0.09538951745780651
0.09509799405408557
0.09528368346625939
0.09564978915383109
0.09584018576715607
0.09584080995118711
0.09587031478935387
0.0959864911052864
0.0957260492554633
0.09687545776250772
0.09912716859427746
0.10053185618889984
0.10035491987655405
0.1007735194824636
0.10142144450859632
0.10186163377889898
0.10195730329316575
0.10207101509789936
0.10215380973182618
0.1022043187415693
0.1023146985261701
0.1027029185264837
0.10306017024151515
0.10284695889567956
0.10264162342762574
0.10264124556561001
0.10243118702666834
0.1027799628052162
0.10350595616153441
0.10327680912683718
0.1035984326788457
0.10361443076166324
0.10366326935472898
0.10393266258295625
0.10438890567282215
0.10447093497612514
0.1043364946480142
0.10484111028024927
0.10501130616699811
0.10500853149278555
0.1050906813913025
0.10491501605894882
0.10427008450555149
0.10384223130939063
0.10363615043810569
0.10365278449899051
0.10301320778264199
0.101694306259742
0.1002504099078942
0.09900538533518556
0.0980396696808748
0.09780080550001002
0.09758795619767625
0.0973541209375253
0.09713283329445403
0.09668054520967416
0.09668532956857234
0.09695541252498514
0.09671884558338206
0.09639795429422521
0.09627016594109591
0.09575811586983037
0.09547646439867094
0.0953752239671303
0.09469619876181241
0.0937024140934227
0.09326088162197266
0.09302322876232211
0.09239264063828159
0.09193963987170718
0.09202937687223312
0.09167923703731504
0.09121142876800149
0.09112609504489227
0.09153274896554649
0.09185764999885578
0.09184358490048908
0.09123109845502768
0.0905790286208503
0.08974005267606117
0.08947638849436772
0.09026302988757379
0.09085722884163261
0.09077455156599172
0.09122200535784941
0.09065608187229372
0.09075434795755427
0.09121267087990419
0.09113277027441655
0.09043063743563834
0.08952316701353993
0.08913179874536581
0.08946293686400168
0.0899302450439427
0.09030225198424886
0.09051992049266118
0.09034057124808896
0.08995379767206031
0.0900692364142742
0.0895827319525415
0.0890476632892387
0.08897573824448045
0.08932720389333554
0.08974514949135483
0.08961859832517803
0.08938218499941286
0.08935301715217064
0.08957272248342633
0.08964467811514623
0.08917815633467399
0.08843197243812029
0.08773448906315025
0.08745963604014832
0.08749268946354277
0.08738455153943506
0.08678930618567392
0.08633647992275656
0.08603050342935603
0.08589956184790935
0.08601098400191404
0.08624357088352554
0.08636969674902502
0.08614563721872401
0.08562333331559785
0.08502514367748518
0.08492110302788206
0.08483800534857437
0.08497132418735419
0.08537260566197802
0.0853555301000597
0.0853332687279908
0.08551480716792867
0.08573794238851405
0.0855201028456213
0.08550085470313207
0.08543471701967065
0.08465156057442073
0.08336359495238867
0.08182604730129242
0.08057860049128067
0.08001333185413387
0.07993775976297911
0.07818137299211231
0.07604312192939687
0.07474478870630265
0.07483829380769748
0.074182143471553
0.0744156953197671
0.074054990519071
0.07365029405627865
0.07351188262866344
0.07278556772565935
0.0728061747312313
0.07217251492897049
0.07175725277338643
0.07175481854064855
0.07156205285107717
0.07147614383313339
0.07140357810480054
0.07148924003529827
0.07076412736729253
0.06952134814288001
0.06908528860949445
0.0687066867487738
0.06829049779567868
0.06844778348400724
0.06680483396165073
0.06556204707536381
0.06590600899129641
0.06577754078956786
0.06573921170260291
0.06602633343718481
0.06576702034217305
0.06587121504766401
0.06575125394912902
0.0659696930431528
0.0658774553280091
0.0653965394111583
0.06563607608492021
0.0664461640251102
0.0668512484774692
0.06690648455696646
0.06704946245532482
0.06702181543747429
0.06671560647722799
0.06661054304568097
0.06674765044183005
0.06621465842472389
0.06558734470454511
0.0660597623832291
0.0669432110991329
0.06775272089231293
0.06791441407985985
0.06786420687625651
0.06799821221269667
0.06849647334893234
0.06915096002514474
0.06931623548909556
0.06876612556166947
0.0683905280608451
0.06842207878944465
0.06866944159846752
0.06843088784138672
0.06775058327242732
0.06721785324218217
0.06713331927836406
0.06706994989071972
0.06676151682680938
0.06673231805500109
0.06548249061626848
0.06309079626342282
0.061926786656840704
0.06206588368921075
0.06154950956406537
0.06072264194139279
0.0602336939011002
0.06024268106964883
0.060260429398040286
0.060106869814917446
0.060022527045803145
0.05988693138235249
0.05985993455455173
0.05994792698009405
0.060165507752681154
0.060161804984672926
0.060351719256141224
0.06049976876354776
0.06006284140690696
0.059569530002772805
0.05964323375141248
0.05907853877404705
0.05884687288722489
0.05852132866100874
0.058074960917583664
0.05773296706902329
0.057576211292180234
0.05738389605132397
0.05690881231916137
0.05653329395456239
0.05654356765677221
0.05639062182512134
0.05623551376629621
0.056462214029743336
0.056256173235015014
0.05655294138181489
0.05682742007542402
0.0567370770976413
0.05674243832880165
0.057045108892489226
0.05713685478665866
0.05758455822593533
0.05812793297343887
0.05813938209146727
0.058436162220896225
0.05805215744883754
0.05815295694046654
0.05896829082688782
0.058987390798865814
0.05928659223136492
0.059403246485744604
0.05972493209526874
0.06028962307609618
0.06071731311676558
0.06077852174814325
0.060751928693498485
0.06073059916321654
0.06068412708875257
0.061436469431500884
0.06290373876458034
0.06412226217624266
0.06402097007900011
0.06418506443034858
0.06415847573254724
0.06354777711851056
0.0628079469356453
0.062478852804051715
0.06239819477079436
0.06248091993969865
0.06191750763333403
0.061638921513804235
0.061344324129167946
0.06057435628201347
0.059975660385680384
0.05994450132420752
0.05939609125605785
0.05959429338341579
0.059056631927960554
0.05830927555274684
0.05820567796123214
0.05807876771665178
0.05800845769466832
0.05785916188149713
0.0575712667091284
0.057584694216493516
0.057601858364068906
0.05716968457796611
0.05708336101437453
0.0570541412406601
0.05713368873402942
0.05711739760183263
0.05763891514681745
0.05829531449766364
0.0582005249382928
0.05829846141568851
0.059026667317957617
0.059138180707814174
0.05848567297682166
0.05799845257482957
0.05762396378966514
0.05736612241598778
0.057437152039492505
0.05770361943345051
0.05773799900198355
0.05745483575970866
0.05804685662966222
0.05915733570465818
0.05959713713033125
0.059693007895257326
0.06013402379699983
0.06020107750664465
0.05993746974563692
0.05987485487770755
0.060119297904311676
0.06022239415091463
0.060180353480391205
0.06033173686068039
0.06049559685459826
0.06044271064456552
0.06019393829395994
0.06020781509869266
0.06018176608951762
0.06020643126335926
0.06014229629770853
0.060390354501432736
0.06036477411980741
0.060408046171069145
0.060684239132096994
0.06079677338420879
0.06109325847355649
0.06107703592686448
0.06105119802174158
0.06100954198511317
0.06153917541145347
0.061640578563092276
0.06163726338883862
0.06156926518189721
0.06142130138003268
0.061269969189306724
0.06117911885026842
0.061555712652625515
0.061548021802445875
0.06148205049219541
0.06225700852228329
0.06317233032314107
0.06318458324414677
0.06305764925782568
0.06300820888136513
0.06280980114242993
0.06281704013119452
0.06282079562311992
0.06298069327836857
0.06299355386407114
0.06316502052592114
0.06321062213042751
0.06270248537417501
0.06285712575889192
0.06369670683634468
0.06382588626933285
0.06326877041719854
0.06267116639879532
0.06220547614735551
0.06207670667557977
0.06229433831409551
0.06223459106287919
0.06217383277136832
0.061887762409169225
0.06175902849063277
0.06159415251691826
0.06101140687824227
0.0601335191889666
0.0598257839132566
0.05999791311100125
0.06008357585873455
0.060513191397767514
0.06062452450627461
0.06018675425555557
0.060019393756520004
0.05975626370171085
0.0598143382568378
0.059345180043019356
0.058326230619568376
0.05755147114861756
0.05731748441350646
0.05713865466765128
0.05651543013285845
0.05612090007518418
0.05579785171197727
0.05577756271813996
0.05646043042303063
0.05678577516693622
0.05680542844347656
0.05682649192982353
0.05668044696794823
0.05673420393955894
0.05675220331293531
0.05649043043027632
0.05644690568093211
0.056418359369272364
0.056382034765556456
0.05608970679109916
0.0561546450573951
0.056055394413415345
0.05609945920761675
0.05602592215524055
0.05641986544243991
0.056568955956026915
0.056329406813019886
0.05617802567780018
0.05625246321898885
0.05621214302256703
0.05619644014746882
0.05565035122446716
0.05551108546438627
0.056081481794826686
0.05636378114111722
0.05632090438855812
0.05635610877070576
0.05616066665621475
0.056300788862863556
0.05667822876595892
0.05688748173415661
0.057188347585033626
0.05794816625653766
0.05841238211025484
0.058173805712722244
0.05849588486365974
0.05892950341221877
0.05893164563691244
0.05905080229509622
0.058977470552781595
0.05889789179898799
0.05866035277256742
0.05830394900753163
0.05836835862486623
0.05820724554592743
0.058115670153638346
0.05833014595671557
0.058932065091794356
0.05891407364048064
0.05875496914377436
0.058478085413808
0.05803781211259775
0.05809926707064733
0.05719477319158614
0.0568981412332505
0.05689752081641927
0.05615991817554459
0.05596601486206055
0.05594687903765589
0.05600578631507233
0.055706328481901435
0.05503340955474414
0.0547101071011275
0.05496265662717633
0.055095716879004615
0.05510112249408849
0.05510013508610427
0.05439198952633888
0.05308699069079012
0.05188041742891073
0.0515290960134007
0.0515275609632954
0.05168923401623033
0.05186330435331911
0.05194955596816726
0.052535073241451756
0.0528821819962468
0.05286148591316305
0.05289033639593981
0.05301903296611272
0.05322373423608951
0.05330040685716085
0.053426045363303275
0.05355609275749885
0.053657926358282565
0.05343085835920647
0.053190798482391985
0.053242418890586125
0.05352156409295276
0.05395257047843188
0.05415817806497216
0.05416077097412199
0.054168427801923824
0.05382441549561918
0.05360128206782974
0.05385921602835879
0.05369239334599115
0.05396507173310965
0.05401616013259627
0.0540252251480706
0.053559535074746235
0.05281932538957335
0.052655627275817095
0.05237646409543231
0.05194179449230432
0.051919497246854004
0.05198383018374443
0.052316535939462484
0.052641328832833095
0.05276478420128115
0.05299615844269283
0.05267771003767848
0.05269782470888458
0.05308591122622602
0.05237724101636559
0.05135004702955484
0.05072291980497539
0.050600854431977496
0.05028611231129616
0.050558007328072564
0.05085163852781989
0.05083693257649429
0.050900193825364114
0.05089320917613804
0.0509586787992157
0.05103814828093164
0.05095399015233852
0.050701329108560456
0.05075246117427014
0.050617225801106544
0.05041293677175417
0.05004024750669487
0.0503129076003097
0.050009041347075255
0.050354397022165355
0.050603684176458046
0.05050259604351595
0.050397047785809265
0.05019775736378506
0.05010974415810779
0.04991701944964007
0.04971905815182254
0.04942680494044907
0.049517867414979266
0.049652699225116524
0.0495446308888495
0.04979726567515172
0.04993404096923768
0.049970582473324615
0.049917042285669594
0.04975619550794363
0.04978589982027188
0.049315980480751025
0.04863918246119283
0.04865434090374038
0.04939251548377797
0.05029510503169149
0.05057922786800191
0.050900961314328017
0.05113757248385809
0.051071261565666645
0.05124715873971582
0.051351419959682974
0.051202047804836184
0.05152066612499766
0.05173178563709371
0.05154235641937703
0.05095428533968516
0.05157543741399422
0.05226450617308728
0.05221025942126289
0.052450366781558844
0.05271351059549488
0.05284437553491443
0.05283914353814907
0.05312518852297217
0.05353524012258276
0.05380611637141555
0.053802162725478414
0.05394321078667417
0.05364810648025013
0.053494921685196456
0.05336349707678892
0.053098628302104774
0.05296990370610729
0.05299109013634734
0.05294208893319592
0.05289257071563043
0.05291425342438742
0.05288263707538135
0.052855386340525
0.05287196682882495
0.052933513590833176
0.052943137837573886
0.05304177859681659
0.0526696534070652
0.05265947735169903
0.05259898388176225
0.05186768885585479
0.05140307103632949
0.0514346329914406
0.051205782279139384
0.051341873202472924
0.05157705403631553
0.051564930215245115
0.051812413503648715
0.052133390833623706
0.05240531717194244
0.052375292519573124
0.05236913563101552
0.05229741495335474
0.052087410780368375
0.05210178333683871
0.05242488778312691
0.052114707995206115
0.05174908348941244
0.05158648694166914
0.05165261172922328
0.05161217585555278
0.051801977361319584
0.05175778792705387
0.05219091452425346
0.05192217758973129
0.05104063246631995
0.05076649133930914
0.05086327976663597
0.05070368571090512
0.05102826213813387
0.05137677371152677
0.051373051282716915
0.05125466156285256
0.05143640687223524
0.05081665428704582
0.050172708929749205
0.05014861374394968
0.049935816370416435
0.04963807790656574
0.04960015191114508
0.04954124383511953
0.04955029644188471
0.04963677902705967
0.05012195089715533
0.05093428440624848
0.0514813661435619
0.05166646788828075
0.05342531556263566
0.05504853624734096
0.05447456720168702
0.055040514532011
0.055696827875217424
0.05578375884564593
0.05580882578040473
0.055663512285100296
0.05544142890837975
0.055279696451034394
0.05491725954692811
0.05468206059886142
0.05455897746724077
0.0543794800946489
0.05437766807270236
0.054307664273073895
0.05425692019285634
0.05409732258878648
0.05384939911658876
0.05391752023948357
0.05388689463143237
0.053804038441739976
0.05363747957046144
0.053346485927468164
0.05319301056792028
0.05340568048763089
0.05335036698146723
0.052957548006670546
0.05264931064099074
0.05245753646013327
0.05197450920357369
0.05190125259920023
0.05194063456146978
0.05270688282442279
0.053408641988644374
0.053705059997737406
0.05376226501306519
0.05379971272079274
0.05383736061048694
0.05378136037266813
0.054187333942390975
0.05455420918995515
0.054563586808508265
0.0542816693871282
0.05404484174447134
0.05393522593425587
0.05411346243112348
0.054330873236758635
0.054233493474312125
0.054210541453212496
0.05416507891961373
0.05412735827965662
0.05399316282593645
0.0536996745178476
0.05384979889844544
0.05388267243048176
0.05383093094569631
0.05384545829962008
0.053665876598097385
0.05326965665910393
0.05283991521224379
0.05278619579738006
0.05259041831479408
0.052759129982441665
0.053039887433405965
0.052610744897974654
0.052782270612660796
0.05250970012042672
0.05207741520600393
0.052201136201620105
0.052168472382472825
0.05243404282839038
0.05262002975097858
0.052674348341533915
0.0527192572678905
0.052694865113589916
0.05266928191413171
0.052655222048051654
0.05289057761896401
0.053310110273305324
0.053373886784538624
0.05327123374561779
0.053853634386323394
0.05413648179383017
0.05421315648942254
0.054184975639218466
0.05413243034621701
0.053856090686749666
0.053922286822926255
0.05356541004613973
0.05328630534815602
0.05306456609396264
0.05323187653440982
0.05342654836596921
0.05367645885795355
0.053882889659143986
0.05393626561155543
0.053738078563474116
0.053533752313815054
0.05339483912568539
0.05337269944138825
0.05320351650007069
0.05328377634519711
0.053400886335875836
0.05303683645557612
0.053491715926211325
0.05473683293792419
0.05557747922022827
0.05572558338870295
0.05557517668814398
0.055107086891075595
0.05441249107709154
0.05435199869447388
0.054290694795781747
0.054173243818804624
0.05418358617811464
0.054064084233250466
0.05369616522802971
0.05360666787950322
0.05349153152666986
0.05286400464479812
0.0522589954722207
0.05231147578451782
0.05170626234612428
0.05100892402115278
0.050936816334724425
0.05049140258342959
0.05018228068947792
0.05026838394231163
0.050362392782699314
0.05017186760203913
0.04971030729589984
0.049774082547519354
0.05010800924617797
0.05003636970650405
0.050187843965832146
0.050238857608055694
0.049963631619466466
0.049255953264655546
0.04880843482678756
0.04890449007623829
0.04891431187395938
0.04906810794956982
0.048948718670289965
0.04923829603241756
0.04968749449239113
0.04984936462249607
0.04987208126112819
0.049772016340866684
0.04959805820835754
0.0495714600617066
0.04934179463773034
0.049196642306633294
0.049349012752063576
0.0496802904130891
0.04973525592708029
0.04979611026355997
0.04978172464761883
0.04953473728965037
0.04954128303565085
0.0497019421053119
0.04963221176411025
0.04943745707627386
0.04942422046675347
0.04938486837549135
0.04938071084790863
0.04934207195998169
0.049027703036554154
0.04873978867777623
0.04859880212694406
0.04883458016323857
0.04927666030591354
0.04936306358780712
0.04944328982266597
0.049462597460951656
0.049439062064047905
0.04928564883535728
0.04946884924545884
0.049763219369342554
0.04983413398498669
0.05030059751006775
0.05112797676585615
0.051315508428961036
0.050717111472040416
0.05028815956437029
0.05026055521797389
0.049864078275859355
0.04981054389383644
0.050085833844495935
0.05062505704816431
0.050922814004588875
0.050993654252961276
0.05115356333670206
0.05139475148171187
0.05146801011986099
0.051437698929803446
0.05129550014389679
0.0508875015436206
0.05042182684759609
0.05005172782461159
0.04840600439812988
0.04689301911508664
0.0468809854995925
0.04624229427427053
0.04562800509505905
0.04559790034079924
0.04568774291663431
0.045529900026740504
0.045638505838578564
0.045474883471615615
0.04528428251389414
0.04526828720467165
0.04528286701650359
0.045371053805574775
0.04529879213427193
0.04523952781455591
0.045208375838119534
0.04527600302360952
0.04531205897917971
0.04521325469017029
0.04515832510311157
0.04519516669563018
0.045144695891067385
0.045064345331629736
0.04511477213469334
0.04509457214619033
0.044957165939267726
0.04484752367250621
0.04486191372037865
0.0448055781039875
0.0446518091915641
0.04437710949103348
0.04426440611947328
0.04351180049357936
0.042566285447683185
0.04203252351260744
0.041907624251907694
0.04172626834595576
0.04176445711171255
0.04216170402127318
0.042028633662266654
0.041656746920198204
0.04170925951679237
0.04182718196650967
0.04169812976848334
0.04166674591833726
0.04161888863309286
0.041313668412622066
0.041251958992797884
0.041195760950213295
0.04123122004326433
0.0413253415375948
0.041263957931660114
0.04131736389244907
0.04114181202370673
0.04103374837199226
0.040967078326502815
0.04083148321835324
0.04081890800967813
0.04088990990421735
0.040976626442279666
0.040991695414995775
0.040824350683251395
0.04035181364160963
0.039879881870001556
0.039910875029163434
0.039730833767680454
0.03958406269666739
0.03963632651488297
0.03953800590243191
0.03960097316885367
0.03944845494115725
0.03927050148835406
0.03926911327755079
0.038827499697217716
0.038568716066656634
0.03847767170052976
0.03818610011250712
0.037877882476896045
0.03752847537747584
0.03732890918850899
0.03729468749370426
0.03672445057309233
0.036323659151094034
0.03639782381127588
0.036304116651881484
0.036253885199548676
0.03615234977449291
0.03613384787575342
0.03595008095726371
0.03587928484659642
0.036324573246529324
0.03636249901726842
0.036098596203373745
0.03589673557667993
0.0356544249295257
0.035572742349468174
0.03558426381321624
0.035444186048116534
0.035405098900664594
0.03547270499751903
0.03548096373095177
0.035157724381424484
0.03475700393551961
0.03479649369954132
0.03416887699509971
0.0329019115306437
0.031736737308092414
0.03132835429976694
0.031135958764934912
0.030770217463141306
0.030511171219404786
0.030289430615957826
0.03003819123492576
0.029887359417043628
0.029861823988612743
0.02977884475258179
0.029909114390611648
0.029949599088868125
0.029822405023733154
0.02972359922830947
0.029753920496441422
0.02979848936549388
0.02976769576431252
0.029783046774100513
0.029868471149820833
0.029968674909323454
0.029812944431323558
0.02959801785647869
0.02963631392340176
0.029594431651057674
0.029583245400572195
0.029254112823400645
0.02884933904162608
0.028754460884956642
0.028628105932148172
0.02856640457524918
0.028652675581397488
0.02883540458162315
0.028908238107105716
0.028840658162953333
0.02868238403694704
0.02854181722388603
0.02859091868274845
0.028377126686973498
0.028055389195214955
0.027851267685182392
0.027784270995762198
0.027832590511534364
0.027815012969076635
0.027843833401566372
0.02777780067641288
0.027726903646253048
0.027602142837131395
0.027270573721034454
0.027130120067158713
0.0270764049643185
0.02687581437290646
0.026917978262063116
0.027050824454054236
0.026882650925545024
0.026671643081353977
0.026696098905522377
0.026790721910074353
0.026944869132712483
0.02704744083341211
0.027103567438898607
0.0272020816069562
0.027190057933330535
0.027223485222784803
0.0268960723397322
0.02648551596328616
0.026398869164986537
0.026366060472792014
0.02623767117038369
0.02632907938444987
0.026102289940463378
0.02563718500896357
0.02537222687387839
0.025240647540194915
0.024572395324939864
0.023805858081905173
0.023438037765445188
0.023501498585101217
0.02362450910615735
0.023710242414381355
0.023747244474943727
0.023675673130201177
0.023409890161128714
0.02293423263821751
0.022424608265282586
0.022231277542887257
0.022100682765012605
0.021781827870290725
0.02159665517276153
0.021554425811627878
0.02122706841211766
0.02084423230146058
0.020688454196788372
0.020561251532053574
0.02018386682495475
0.019891162875574082
0.019976399085717276
0.019760404307162388
0.019677389356074854
0.01965116930543445
0.01941794344573282
0.01953772157081403
0.019602003591135144
0.019743187928106636
0.01996322355000302
0.020106650915695353
0.02012804406695068
0.019970020095352082
0.0199752295948565
0.02009742624941282
0.020196863083401694
0.020089208569843323
0.01999210890615359
0.019970989909488708
0.020089904884807764
0.020360884947003798
0.02069957017316483
0.02086958327679895
0.020741753383772446
0.020509281568229197
0.020370834077475593
0.020461118890671058
0.020618537730770187
0.02072814018349163
0.020774463675916194
0.020917810375103728
0.021008731948677452
0.020990726691670715
0.021025437281932683
0.021108255978906528
0.021149347110185773
0.021195336872478945
0.020968662581872195
0.020607826120685787
0.020440742673818024
0.020488584310514854
0.020335289726499468
0.020157977604540064
0.02009933117777109
0.020088252634741365
0.020039723019581287
0.02013087401050143
0.020280071021988987
0.020197574822232126
0.019904043730348348
0.019906333242543043
0.019970387974753975
0.020087267624912784
0.020316890021786094
0.020703687123022972
0.021204345274018124
0.021587336658267304
0.02168746233917773
0.0215726958704181
0.021523288360331207
0.021507090898230673
0.021470487301703544
0.021452573629794643
0.02142201488255523
0.021409753420157357
0.021517070734407753
0.0216576967749279
0.021606341165024787
0.021632838959340005
0.021477759119588883
0.021313684257911518
0.021239559911191464
0.02115642903605476
0.02133114310912788
0.021502192597836256
0.021556664386298507
0.0215475320443511
0.021470370810711757
0.021336037459550424
0.021192620946094393
0.021113485277164726
0.021128312228247525
0.021115771626355126
0.021043958368245512
0.021097016830462962
0.021151697227032855
0.021219234047457576
0.021258680960163475
0.0213677955721505
0.02133640951360576
0.021148464052239434
0.021160686498042196
0.021410409917589277
0.0215493795031216
0.021680441646603866
0.021700272611342372
0.021737464097095652
0.022099700389662757
0.02254773980122991
0.022703084530076013
0.022666407150682064
0.022772615572903304
0.022855395302176475
0.022897035100031646
0.022864051382057368
0.022788965865038334
0.02280416099354625
0.022814605438616128
0.022785918376175687
0.022776899795280768
0.02277808020473458
0.022757575465366244
0.0227813426789362
0.022793228038353847
0.022798653123900295
0.022936089631402864
0.022958671202650292
0.02297984572709538
0.023093907441943885
0.023225496045779438
0.02329101468552835
0.02329763730871491
0.023275917891878634
0.02320503753609955
0.023075068716425447
0.02297266082605347
0.022992662471951916
0.02301052171504125
0.02301046378328465
0.02305848800926469
0.023113806881010533
0.023101746181491762
0.023155956420814618
0.023275329142343253
0.02338307392783463
0.02346697498229332
0.023515812042169272
0.02350288733257912
0.0234548238303978
0.02347751087276265
0.023584850827464834
0.023672589815687387
0.02368730547488667
0.02360062951920554
0.02348866341752
0.023425105368951336
0.023383088365662844
0.023294152843300255
0.023293636231683193
0.023207074376987293
0.023163094931514933
0.02313312852755189
0.02311282684095204
0.023105972956400364
0.023094218845944852
0.023049544988898562
0.02308014704613015
0.02302110398071818
0.022893228535540402
0.02281881375820376
0.02285807513166219
0.02291332736960612
0.022869914836483075
0.022764540462521837
0.022702830134658143
0.022681526659289374
0.02264374010148458
0.022618358288891614
0.02264416133519262
0.022671757228672505
0.022629079655744136
0.022542326976545155
0.02242247395333834
0.022359582929639146
0.022413796517066657
0.02251179947401397
0.0225224825181067
0.0226009048265405
0.022644799175905065
0.022611748117487878
0.022591235811123624
0.022603764419909567
0.022539882618002594
0.022382279691519215
0.022284866702975706
0.022325352779589594
0.022392293172888458
0.022408662954112514
0.022415477455360815
0.02241744874394499
0.022446188947651536
0.022458548195427284
0.02247253141948022
0.02261622417252511
0.022795107611455024
0.02301081776502542
0.023243422074010596
0.023418966743629425
0.02350322286831215
0.023612709338776766
0.023930972988018766
0.024220967665314674
0.024379407896194607
0.024449568666750566
0.024241518964990973
0.02427158378995955
0.02427095128688961
0.024216408676002176
0.024126774886390194
0.023943548761308192
0.023742589274188503
0.023707916224375368
0.023747666795970873
0.023709695918951182
0.023550289151025937
0.023543352651176973
0.023683746990282088
0.023772524734959007
0.02378902516211383
0.023665054067969322
0.023417478704359382
0.02319433039636351
0.023163300451124087
0.02331077946932055
0.023455449630273507
0.023613584596896543
0.023631954109296204
0.023493265360593797
0.023427107997704297
0.02331821421161294
0.023141033384017646
0.023040187543956564
0.0230076573160477
0.02296794866444543
0.022868055684957655
0.022764487725216897
0.022730089251417666
0.02272300214623101
0.022690769622568042
0.022688782991608605
0.0227792786329519
0.022930958174401894
0.023079589501721783
0.02320130949257873
0.023247441195417197
0.023159984563244508
0.023001418218482287
0.022830990486545487
0.022782813765807076
0.022927080444060267
0.022926070119719952
0.022791862465674058
0.022618316642474382
0.022359889578074218
0.021972477078670637
0.021512323778588326
0.021142823992995545
0.020988501057727264
0.02099581908201799
0.02102382860844955
0.021136251360876487
0.021268053863896057
0.021373269736068325
0.02146708676358685
0.021446114315185696
0.021316850836155934
0.021171440897742286
0.021127218124456705
0.021038743406534194
0.02091725239646621
0.020879499103175478
0.02087131444364786
0.020754180958028882
0.020513411862775683
0.020312619981123135
0.020278790049487724
0.020344573565525933
0.020418553831987082
0.020452992507489397
0.020462557779392227
0.020482968327123673
0.020487771444022654
0.020503706090385095
0.02056620001560077
0.0205886343808379
0.02052201367681846
0.02046978642931208
0.020486307565588505
0.020471661932533608
0.02034493071725592
0.0201302100205794
0.019859363198047503
0.01957425890956074
0.01935860118246637
0.01922428351594135
0.019183649852639064
0.01909695245558396
0.018773418235359714
0.018326108978362753
0.018067416407866403
0.01800718779093586
0.01784743443480693
0.017713917630026117
0.017610639240592717
0.0175839057052508
0.017602931776782498
0.017546928870724513
0.017525096960598605
0.017555949067464098
0.01757120606373064
0.01757662057876587
0.017602330576628446
0.01757076208712533
0.017498002568027006
0.017408024781616405
0.017299716606503354
0.017190551889361815
0.017109753860859202
0.017050275744404642
0.016996018351055683
0.01697492089937441
0.017024451431352644
0.017146219331771136
0.017301689012674613
0.01739477737690322
0.017368818611139432
0.01733587897499092
0.017292768904007973
0.01714536425191909
0.017198129401076585
0.017386561871971934
0.017534956412855535
0.01746665214654058
0.017391624110750854
0.017254340952495114
0.01722625581664033
0.01719818349578418
0.017089333082549275
0.01697898976504803
0.016978637012653054
0.017013237905921415
0.01705076369922608
0.017122129335766657
0.017246379462303594
0.01737959106103517
0.017468780557392163
0.017507594310445712
0.017525663967244327
0.017538788369856773
0.01757179405190982
0.01763558043865487
0.01769874389632605
0.017741295658051968
0.017796777163166553
0.017850666503654793
0.017918455223552884
0.017962631968548522
0.01795239686383866
0.017902493139263242
0.01782901116646826
0.017755572411697357
0.017705231432337314
0.017673639009008184
0.017635115368757396
0.01759283524006605
0.017573326361598446
0.01755488904658705
0.01749193649389781
0.01742681753472425
0.017407727506943048
0.017396222579991447
0.0174054809671361
0.017397830213885756
0.01730710431933403
0.01716629010392353
0.017081131046870722
0.017170051499269902
0.017146734796697274
0.01710440783528611
0.01708395915455185
0.01697523788432591
0.016778289831709117
0.016655270596966146
0.01663573952158913
0.016566537261242048
0.016405081456759944
0.016261959336698054
0.016162577513605357
0.016063405888853594
0.016031168184708802
0.01602115866378881
0.016035413765348495
0.01609105315292254
0.016037098986562342
0.015939194611273706
0.015794805564219132
0.01559638712904416
0.015408072513528168
0.015323045437689871
0.01523292921599932
0.014885544686112553
0.014446626561693847
0.014139809681801126
0.014032722964184358
0.014096875293180346
0.014091696188552305
0.013988381839590147
0.013837408798281103
0.013713586435187608
0.013645464935107156
0.013667314717313275
0.013668037441093475
0.013580153301591054
0.013533661833498627
0.013553000538377092
0.013490775843383745
0.013480919015128165
0.013508765045553445
0.013536401378223673
0.013547503753798082
0.01351474437280558
0.013442879685899243
0.01338142464752309
0.01333283122512512
0.013245148609858006
0.01311541824019514
0.012989181601442397
0.012915762184420601
0.01291185554699041
0.012927030911669135
0.012943077059462666
0.013027970405528323
0.013182176778791473
0.013352866653585807
0.013493708438472822
0.013581432498758659
0.01362456483882852
0.013638621523277834
0.013616199719253928
0.013555587821174412
0.013471151741687209
0.01337396327056922
0.013270810102112592
0.013161023808643223
0.013052256786031648
0.012997821297030896
0.012982737851561978
0.013006167883286252
0.012980000278912485
0.012861833134666085
0.012766986223869025
0.012748534183483571
0.012749154454795644
0.012747622595634311
0.012706942793447524
0.012681332293432206
0.012706286490429193
0.012738424820126966
0.01276555247604847
0.012753019344527274
0.012733731067273766
0.012693696074420587
0.012621290452079848
0.012547149916645139
0.012511272607371211
0.012518520529847593
0.012538883895613253
0.012545659266179428
0.012547313756076619
0.01258442458580248
0.012669134218012914
0.012738534198142588
0.012750459761591629
0.012767103855730965
0.01283536768751219
0.012887462839717045
0.012858285055262968
0.012795428943354637
0.0127721942064818
0.012771790066035465
0.01273260595742613
0.01264355263672769
0.01253233299124986
0.012434098011581227
0.012380249772686511
0.012344587869010866
0.012259650320047513
0.012122778677148744
0.012002421320648864
0.01192128044553101
0.011872095068683848
0.011868646908551455
0.011909735731314867
0.01196101731969975
0.012050934872822836
0.012168610724620521
0.012185913394205272
0.012100540433311834
0.012055606474168598
0.012113715519662947
0.012207930773729458
0.012262676263926551
0.012277878453023732
0.012273267586715519
0.012245950169162825
0.012195072593167424
0.012145688618766144
0.012117225208785385
0.012116561190923676
0.012145164086250588
0.012180775169981643
0.012203657503705471
0.012231665498111397
0.012279242071090267
0.012325856850948185
0.01234106681193225
0.012318075342336669
0.012286583669483661
0.012277804074110464
0.01227707793819718
0.012233317160280421
0.012098846276057885
0.011868727979017422
0.011697586550144478
0.01162379998830147
0.011610354258446023
0.011598898062948138
0.011559879090636969
0.011607616691617296
0.011500290355179459
0.011337456362089143
0.011303846774389968
0.011422462882474066
0.011440172212896869
0.011484683662420139
0.011457071511540563
0.011449626169633121
0.01149407957564108
0.011507202530046924
0.011406626658281311
0.011287048258818686
0.011189393723616376
0.011082709738984705
0.010937353755580262
0.010813461034558713
0.010793914938112721
0.010847097486257553
0.010889622300164775
0.010908524204278364
0.010927336723543703
0.010929329824866727
0.010870574886212125
0.010877212275518104
0.010863734575686977
0.010812271315371618
0.010783032827312126
0.010754983210936188
0.010732293614419177
0.010709823932265862
0.01066318788798526
0.01058326949365437
0.010509363784221933
0.01049910561996512
0.01053685216116719
0.01053371766814962
0.010474240290932357
0.010450243916129693
0.010496080127777531
0.010535245335195214
0.01057009692187421
0.010656298116082326
0.010735915196128189
0.010810862748185173
0.010884780717315152
0.01091354261036031
0.010892476384760812
0.010839027290930971
0.010801397474715486
0.01080504646874033
0.010823997104307637
0.010816284386673942
0.010826981432037428
0.010892012668773533
0.01092533247312531
0.01089798390166834
0.010875904444837943
0.010900402853731067
0.011018241534475236
0.01124624262098223
0.011479880289407447
0.011587279844097792
0.011567862933734432
0.011509897257201373
0.01145313411951065
0.011380576050141826
0.011289679001783952
0.011274003895232454
0.011253553677815943
0.011263795852428302
0.011284392954548821
0.0112727047491353
0.011254497228655964
0.011265596534358338
0.011278996716719121
0.011245314150582999
0.011180650618625805
0.011143680601380766
0.01114436939242296
0.011153200182598084
0.011178255677223206
0.011180872983532026
0.011174971065483987
0.011192599919158965
0.01118617367465049
0.01123041739454493
0.011294014748418704
0.011267239734297618
0.011170243497472256
0.011075938782887533
0.01103437899495475
0.011039792395895347
0.011040723221376537
0.010979726881487295
0.010892387019703164
0.01084334662067704
0.010811902469722554
0.01082844052813016
0.01086421827203594
0.01087606065790169
0.010880952706793323
0.010861811430659144
0.010814455786021426
0.010745791532099248
0.010660321952309459
0.010598290666239336
0.010582456731935964
0.010601726662134752
0.010649349420564249
0.0107069984881673
0.010732565545476974
0.01072086536558345
0.01071418724488467
0.010728058973327279
0.010749147549504415
0.01077789511415176
0.01078955084667541
0.010814060955308378
0.01080216964473948
0.010787323653930798
0.010841482146643102
0.0108894588239491
0.010908905812539161
0.010949975439580158
0.011025993881048635
0.011096215496072545
0.011113228634931147
0.01111649037222378
0.011169065333670005
0.011226967185502873
0.011209769571432843
0.011139522843295708
0.011093421042896807
0.011096693588187918
0.011116429676767438
0.011110272418009118
0.01107480083592236
0.011058986154384911
0.011095506860874594
0.011137284780852496
0.011112991499248891
0.01103317067376338
0.0109889980382286
0.01101701378589496
0.011046811359701678
0.0110417859966401
0.011068202862516046
0.011162496893666685
0.011264042654074729
0.011320315792690962
0.011348973220447079
0.011376875286223366
0.01138843794935383
0.011364532266743482
0.011323684591334314
0.011280318286735565
0.011249462384730577
0.011255760926287621
0.011264242279576137
0.011308974862331525
0.011406291257590056
0.011472344868816436
0.011487517697969452
0.011500009284354747
0.011536867812974378
0.011557475300505757
0.011519214146537705
0.01146556347841397
0.011472905144328251
0.011530589485773816
0.011561064030975104
0.011526861628517508
0.011466409818967804
0.011433456285158173
0.011431992796715348
0.011445809779688716
0.011472138222306966
0.01149147590971552
0.011500968250911682
0.011541702718241141
0.011610949133755639
0.011652350303484127
0.011665902326349169
0.011685440770816059
0.011688837913097813
0.011663590527605265
0.011667356212856249
0.011720929731382057
0.01176467903656885
0.011770771610317752
0.011759848820511253
0.01172160470392555
0.011685423178132624
0.011738772310782224
0.011750683325808496
0.011742189996875823
0.011751787667162717
0.011759684620192274
0.01176197343855165
0.011760940325912088
0.01174816133454442
0.011709429530892521
0.011643983779940754
0.011577531708171591
0.011547672997694462
0.011555559984408319
0.011552981772692874
0.011517831628443673
0.011495246803387999
0.011512810043059289
0.011531073650112376
0.011510316617786884
0.011464688178384676
0.011414009490981697
0.011399668576195836
0.011391514166025445
0.011341363543178886
0.011283208901295439
0.011264351680874824
0.011245362233603373
0.011189010412199423
0.011151527479523794
0.01120689170435071
0.011219306101556867
0.011253190315328539
0.011309120832011103
0.011316287383669988
0.011297621601261198
0.011258406370179727
0.011217350186780096
0.011208251053467393
0.011237125254701823
0.011281749127665535
0.011326252518920228
0.011368359938496725
0.011412659651832656
0.01145017858594656
0.011453155765775592
0.01142426414997317
0.011406272945459933
0.011413802589522674
0.011405269856331869
0.01134343569749035
0.011253843766171485
0.011190018663182855
0.01116635209764354
0.011162375460844486
0.011157221886096523
0.01113391938037239
0.011079744022572413
0.01102044249768369
0.011017662583617494
0.011025704387575387
0.010977169647812843
0.010954529672162608
0.010996877911966295
0.011014387607574463
0.010973628885112703
0.010831629865569993
0.010657896585762501
0.010527026292402297
0.010459999960148706
0.010416508610360324
0.01038869462441653
0.010395971232792362
0.010439351673703641
0.01052664527669549
0.010589627344161271
0.010683193979784846
0.010710140663431957
0.010667586514027789
0.010652078706771135
0.01069572699139826
0.010733487616525962
0.01072325962013565
0.010709187122993171
0.010722819155780598
0.010730315806576983
0.010743335171137005
0.010734653216786683
0.010717128223041073
0.010714901917381212
0.010739589150762185
0.010813794278074057
0.010911213440122082
0.010949375176569447
0.01089823332382366
0.010846005948260427
0.010867626648396253
0.010903222858905793
0.010886691180057823
0.010877498203190044
0.010837593035539612
0.01082517027738504
0.010835672164103017
0.010849474298302084
0.010870906331110746
0.010844271077075973
0.01079452082165517
0.010780858864309266
0.010850512724136934
0.010960078660864382
0.011020011273212732
0.011019009497249498
0.011006245817989112
0.010994001007638872
0.010974314811173827
0.010958804893307387
0.010940199597971514
0.010901660321978852
0.010853051390731706
0.010799082261510193
0.01074283528025262
0.010709187766769901
0.010699541653739288
0.010695545995840803
0.010715116346254945
0.010699187365826219
0.01067052049911581
0.010636558970436454
0.010587812869343906
0.010614741488825529
0.01070574731915258
0.01078162363730371
0.010826892654877155
0.01087059973855503
0.010896833717124537
0.010870726670837029
0.010815976142184809
0.010794800785370172
0.010808336491463707
0.010797057764139027
0.010757462884066626
0.010724327240604908
0.010690569283906371
0.010645674731349572
0.010623558664228767
0.01061579072382301
0.010599208127241582
0.010611521555110812
0.010679073403589428
0.010754621011437848
0.01078347017755732
0.010764113924233243
0.01072990066721104
0.010723797584651038
0.010766304261051119
0.010816472423030063
0.01081071469350718
0.010750376706710085
0.010704141905298456
0.010715713979443535
0.01074579487554729
0.010733292751247063
0.010731113738147542
0.01073704461217858
0.010772602671058848
0.010760992194991558
0.010745638465741648
0.010726679587969556
0.010687843728810549
0.01067560833063908
0.01068944881670177
0.010682912961347029
0.010634898295393214
0.01056676103384234
0.010522668670164421
0.010533437372650951
0.010573366524185985
0.010585851676296443
0.01055385876679793
0.010509008585941046
0.010477290516719221
0.010457115612225606
0.01045206921407953
0.010461121882544831
0.010481527283554897
0.010573391559300944
0.010818864558823407
0.011140146551188081
0.011326331393793226
0.01131036678678356
0.011247979485196992
0.01117978391586803
0.011224742431659251
0.011568187964148819
0.011990891457535326
0.012128021386452019
0.012094094102503733
0.012160970596596599
0.012206185463583097
0.012263108666520566
0.012335771382786333
0.01235212903819047
0.01236745650647208
0.01241899547399953
0.012487862093839794
0.01253073634696193
0.012549078904557974
0.01255841255770065
0.012591227568918839
0.012653793507488444
0.012720777593785896
0.01277678928920068
0.012820493937470019
0.012845653350232168
0.012854106443701312
0.012860274508129805
0.012864323938265443
0.01285254155169241
0.012827115803956986
0.01281210511806421
0.012808497106889263
0.012812934569083154
0.012798050085548312
0.012783567400183528
0.01278448735945858
0.01277771391090937
0.012760070875519886
0.012772539478028193
0.012828769790939987
0.012891857837093994
0.01293168461532332
0.012948337640846148
0.012950833106879145
0.012957019633613526
0.012999411855125799
0.013086427020607517
0.013156311212806032
0.013133288517128677
0.013109898209804668
0.013072658731834963
0.013060026169987395
0.012975920714670791
0.012969194089528173
0.012946344898082315
0.012942231296328828
0.013011977458372712
0.013073985581286252
0.013074030741117895
0.013032597337150946
0.01296108351671137
0.012961925830459221
0.013043961958028377
0.013112357382196934
0.013129443041980266
0.01313823829870671
0.013173706523375586
0.013232395115774126
0.013304760206956416
0.013380462116329
0.013431693451711907
0.013438732067588716
0.013422164594521746
0.013395064941141755
0.013383195563219487
0.013382307762512938
0.013388548428192735
0.013405231026699766
0.013363275941228494
0.013332527368329466
0.01336002602474764
0.013447008077055216
0.013528674624394625
0.013555438542971388
0.013553413747576997
0.0135615737689659
0.013559077654499561
0.013517078243894502
0.0134745257277973
0.013474222309887408
0.01346970006939955
0.013412484995787963
0.013353978847153485
0.013329797589685768
0.013319642450660467
0.013305249453987927
0.013307916326448321
0.013322723198216408
0.013370558484457434
0.013421187673229725
0.013464254476130009
0.013508812261279672
0.013515369973611087
0.013473338041221724
0.013448763443157076
0.01348307843087241
0.013507745483657345
0.013464361563092098
0.013422338782111182
0.013443336993223056
0.013454592226771638
0.013491037057247014
0.013511481725145132
0.01350649778265506
0.013483652912545949
0.0134727340657264
0.013490316959796474
0.01350966876023449
0.0134944350423757
0.013437164075439796
0.013370347794843838
0.013336375787621363
0.013334756606491282
0.013340317448601126
0.013348002980928869
0.013345407581655309
0.013312120845075697
0.013277062776032834
0.013277712271083146
0.013297231575706973
0.013312801120337099
0.013312851425725967
0.013280990631319583
0.01323698159889318
0.013214452965185046
0.013205045304493979
0.013204714654712006
0.013238245176617057
0.0132905591907911
0.01330977036850527
0.013283271109685302
0.013235291210003197
0.013177868890343234
0.01312353580375202
0.013102240955922752
0.013106860496336595
0.013092572796158492
0.01306411974481307
0.013064537930767983
0.013093848975840957
0.013123964886181056
0.01314521164400503
0.013170659971656277
0.013194790702546016
0.013194379155756907
0.013180757550289855
0.013143460681894793
0.013120452830335125
0.013087824553949759
0.013050900007365272
0.013047714931890369
0.013091273725731298
0.01316370212007314
0.013235491418745369
0.01325517195276916
0.013185495716752484
0.013074419426266104
0.01301443844800815
0.013022698117420078
0.013029307790566236
0.01298119408194907
0.012914864695630968
0.012918612915091216
0.01291261452715844
0.01293846835498698
0.012943111318163574
0.012971444305730984
0.013026168907526881
0.013081501787528396
0.01315068046678789
0.013238798020174726
0.01331380452378653
0.013343856860883534
0.013315051932586357
0.013271928312024102
0.013233892208663747
0.013213093794183806
0.01318332164431922
0.013139513427158817
0.013122295568464323
0.013161135690752416
0.013234238994773478
0.013281643384834752
0.013262032768689097
0.013221481706714257
0.013187889093533158
0.013147648235317319
0.012991802664473653
0.012727679840754718
0.012565834160195664
0.012635209906147794
0.012764216877985745
0.01284618883393705
0.012772440280532465
0.012398289201082663
0.011931055454770103
0.011724713209550828
0.011687171136727556
0.01154946809518151
0.011426844382658601
0.011314759773667901
0.011249153905082495
0.011207587453536689
0.011158874344546347
0.011095150604378433
0.011058261969592422
0.011061761660967022
0.011089425331447274
0.011092702681198717
0.011038708213018254
0.010940716627519578
0.010823258382733911
0.010723713443148881
0.01063098719343543
0.010599985782755538
0.010627730470150708
0.010658213043352589
0.010653027999214828
0.010632729883072898
0.010651937335496768
0.010729344551218673
0.010815576502354816
0.010851769709261135
0.010856702278833836
0.010863957522669807
0.010849615066545084
0.01088098750798963
0.010922583115752787
0.010923268226906657
0.010893191725481302
0.010879567539086565
0.01089387133019045
0.010907174851745367
0.010892820182489231
0.010847989349858835
0.01077932188520208
0.010700575842056423
0.010667960323626175
0.010732387530151755
0.010765128451166674
0.010771540970308706
0.010731986284954474
0.010742710727499797
0.010663217083783821
0.01062929125619121
0.010627797316992656
0.010588321761460975
0.010577501212246716
0.010629575978964568
0.010686929955845699
0.010737081473926081
0.010735835740342736
0.010697978541720658
0.01065941088483669
0.01061893010046333
0.010581191378878429
0.010566009724279866
0.010558582881931216
0.010516784689389169
0.010433810548856854
0.010358477358240635
0.010344665173906833
0.010377933084964753
0.01041576937190257
0.01042907773400657
0.010455591232748702
0.010480376658961177
0.010496377218514681
0.01050070915138349
0.01044711931142956
0.010371041198959574
0.010317478410433978
0.010312185044167563
0.01033916367101483
0.010350321560399606
0.010321258628973737
0.010282781828427687
0.01026890823035501
0.010268175308592618
0.010274974519852549
0.010278159675654024
0.010288338942918926
0.010298948159907013
0.010316861623432488
0.010342670895624906
0.010383730485336855
0.010454674512147903
0.010522305615013465
0.010546184035483748
0.010530818840488792
0.010509794862009585
0.010499756044009701
0.010485468173865229
0.01044910196447745
0.010397287687519565
0.010346605537924915
0.010307071965653449
0.010284944095183164
0.010275864630239084
0.010262870743172243
0.010232724595116451
0.010192948509939015
0.010163907860405743
0.010168642757926137
0.01021953094867058
0.010295403876807541
0.010369426815304904
0.010431073966901749
0.010476912605809048
0.01049989773775451
0.01050078947446309
0.010497505740495398
0.01050338801345788
0.010503306972095743
0.010467608300969005
0.0104151710588485
0.010407981420867145
0.010367095797555521
0.01036669705528766
0.010380026014754549
0.010382104607997463
0.01040066339308396
0.010467382175847887
0.010552893180865795
0.010599740638863295
0.010613415121333673
0.010645183987217024
0.010690092134755105
0.010696568437851965
0.010662967832759022
0.010640077874995768
0.010660189886111766
0.010706075467169285
0.010727673207875342
0.010688526874873787
0.010624810645822436
0.010613005596678705
0.010643305454868824
0.010631333922501653
0.010568304987391457
0.010519728320650757
0.010500045550288632
0.010483972540823743
0.010492935901274904
0.010551740438677371
0.010602058413205669
0.010648354071890935
0.01067771970294416
0.010715660697314888
0.010764178798999637
0.010795071622123942
0.010788249222096057
0.010768645096104592
0.010772490645758808
0.010797574027674273
0.010813229670748114
0.010791961540235206
0.0107372393948026
0.01075372775667347
0.010783769799163566
0.010773401014739647
0.010815230724401772
0.01086093436111696
0.010902961762622
0.010922703690594062
0.010940714067546651
0.01094532326911576
0.01093106841784902
0.010903079869458453
0.010843628701986746
0.010753935131942853
0.010697102347621694
0.010730908451369032
0.010809644581750035
0.010813403860665857
0.01084143525105901
0.010847243044991047
0.010896040772786364
0.010928828914184124
0.010927933184430003
0.010919222297379747
0.010930672083050012
0.010990820205770434
0.011099375311750918
0.011194948897464202
0.011256013632519171
0.011243832828477025
0.011166697724256665
0.011068550175987185
0.01098298974800855
0.010901105918455868
0.010803146304097027
0.010729167049285025
0.010710707624675707
0.010690162093378603
0.010721021568169817
0.010751424784539268
0.01074884500936605
0.010736492814030498
0.010743758620228618
0.010773864423390478
0.010782487493706867
0.010804932431783527
0.010846401534508913
0.010880844268249347
0.01088412654120475
0.010873143136268481
0.010847663265885786
0.010828954965109005
0.010854025097796694
0.010910196643089875
0.010962785679148511
0.010993131211725994
0.011042939295293763
0.011051130529958755
0.010989393834024667
0.010907772039063275
0.01087272229953669
0.010890577962854878
0.010906298733316363
0.010872876801295206
0.010811217764858156
0.010779206490842625
0.01078299110988155
0.010799253687728196
0.010835390794090927
0.010819803489139303
0.010802138311555609
0.01082154291914776
0.010841496096691116
0.010829863797407597
0.010806198357604444
0.010774503833381459
0.010719316377071663
0.010686723702820018
0.010686434257077054
0.010699860983295366
0.010686346672009676
0.010660353985149413
0.010657425448298454
0.010681939136702567
0.01069919400382787
0.010685958851827309
0.010680786239681765
0.010694896957138553
0.010716879998799413
0.0107226042507682
0.010720739417010919
0.010721045068930835
0.0107198533101473
0.010716730715939775
0.010720349414041265
0.010737212507519871
0.010768389666918666
0.010809360733255745
0.010839739023940637
0.010843344161985442
0.01083905359962955
0.010859937099739909
0.010903457863023505
0.010922753519844263
0.010896039793733507
0.01086394362617284
0.01085133787477389
0.010843244657153264
0.010856676172697916
0.010917370370589197
0.010993456481955946
0.011043742476031184
0.011063862820155918
0.01104370725573972
0.01100521749816835
0.010912923380965367
0.010846122370567172
0.010811429967870935
0.010797988867852836
0.010799987913342192
0.01081291702343151
0.010833963133627549
0.010849127611145377
0.010877372728427872
0.01089934578514658
0.010895656754728407
0.010895556678296997
0.010924392826855183
0.010944415035191923
0.01090422207955271
0.010833376236259937
0.010808133063837886
0.010829605587059633
0.010816825267393143
0.010744999451562763
0.010700251774396747
0.01073536416166462
0.010785560511285439
0.0107931473152712
0.010787007893668488
0.010797847530338913
0.010811090756906196
0.010820321496576071
0.010843739014817402
0.01088366967975162
0.010924813988385722
0.010953427163185552
0.01096754102036357
0.010975272295763717
0.010967539625708013
0.010941959460033103
0.010921605760231615
0.0109188895765692
0.010910443513421342
0.010874820501776412
0.010827297430951148
0.010796413652133196
0.010805999765871092
0.010846888808300719
0.010863748949486763
0.010913612791337074
0.010911572775803506
0.010908010739367455
0.010938189376611262
0.010957416710443795
0.010928467677440495
0.010884933104971423
0.010882696633925661
0.010918641737662256
0.010938997861230745
0.010933567048050463
0.010942273522960021
0.010958474399521946
0.01093678171047941
0.010886977015761658
0.0108560947177466
0.01085584647487849
0.010881315576843917
0.010939349301625044
0.011008670962182806
0.01103386547183618
0.010987060450715944
0.010994101639371366
0.0110478083929047
0.01109218450728804
0.01110522152041085
0.011062131864018738
0.011032607309753075
0.01103744852123782
0.011066133179701865
0.011139496032847092
0.011243625516071916
0.01127856022445485
0.011196885092649609
0.011107118157669902
0.011093147754436358
0.011118792651686818
0.011102061431156472
0.011035502054728568
0.01098176568862982
0.010972312417579814
0.010926572285825387
0.010895641004899516
0.010907282989937811
0.010864946828223764
0.01081670133396983
0.010816161319380626
0.010837131979642436
0.01084982677246444
0.01086607635137625
0.010884092662017793
0.01086976713500917
0.010835728200618178
0.010837753305677324
0.010856721774907784
0.010814036480151118
0.010733289059717209
0.010721874989103526
0.01071610244573094
0.010750436802627519
0.01073748990544118
0.010728846105048434
0.010740392953157424
0.010735837793909013
0.010685404915129766
0.010601056034211069
0.01053132620640099
0.010504806378157809
0.010494629436871038
0.010479204000439495
0.010475226612761616
0.010486712533747777
0.010485586141003296
0.010464298785664142
0.010469617685303093
0.010500810565426946
0.01051800517248921
0.010558596262708306
0.010563305417308584
0.010558609827421605
0.010542592261917888
0.010494931373978033
0.010464809518307448
0.010442298229318112
0.010435607776744292
0.010436188305029646
0.010423053160775454
0.01042857411201112
0.010481041499879211
0.010546130700968206
0.010582905466435477
0.01059970359201543
0.010613128771074115
0.010615702120121568
0.010607363799354062
0.010606633282732219
0.010614220225252212
0.010616077580489219
0.010625221097143367
0.01065011857659556
0.010642942978302017
0.010600162859773263
0.010588329198071733
0.010566664112266153
0.010550982966087759
0.01057229629950598
0.01062056295806542
0.010688623788300902
0.010752773793647065
0.010779028638498857
0.010771310701966286
0.010781851446954533
0.010834559198701754
0.010873755363281817
0.01084885788266547
0.010809866363415495
0.010834425331559032
0.010895815613912419
0.010952425537398084
0.010964947814354673
0.010954783126944676
0.010941654613707214
0.010918907127343119
0.010862290441291406
0.010850808111717925
0.010875240882160141
0.010896939692320301
0.010944334941450506
0.010972302572336048
0.010999120943015441
0.011021286349277943
0.011014185938984155
0.010983244072413072
0.010958969900384545
0.010954667157493532
0.010950812355149537
0.010913468289654702
0.010841811728896573
0.010815532063134015
0.010763332768110558
0.010715132695622742
0.010711929250974209
0.010717252364847808
0.010726836868561804
0.010769993457943201
0.010839521358720959
0.010902381552150474
0.010946918546687811
0.01095085047185421
0.010885897313710303
0.010788278977852315
0.010725174838444217
0.010709237615810708
0.010731456556823105
0.010758686840999872
0.010819131261669099
0.010829578309785575
0.010809352506184951
0.010795116076478735
0.01077967241522856
0.010757328952895478
0.010758540295064449
0.010800659524975345
0.01085391039145179
0.010887491962639615
0.010905346462968736
0.010920458354521543
0.010930532974889502
0.010929953027516603
0.010925580594921484
0.010924611870432272
0.010926673122448848
0.010939486157149077
0.010969173430930823
0.010990059161558747
0.01097068504197523
0.010929687699535862
0.010908379759639502
0.010901995949679985
0.01088876009453088
0.010894930505892263
0.010942259643925353
0.010985848141135648
0.010982367611723021
0.010945624101441353
0.01090711741708219
0.010879134370479732
0.010854326487751677
0.010830181220080703
0.010821799107361585
0.010833736390341074
0.010844545908039436
0.010846300041303039
0.010869726779637857
0.010921717080054804
0.010948601004201919
0.010913766798330471
0.010878689410164953
0.010825969564029947
0.010835032403701917
0.010903556883567945
0.010956392951775341
0.010937390732578933
0.010897115252446384
0.010900495250243693
0.010930048489244655
0.010943213211139663
0.010920212171040476
0.010855770254274831
0.010793972628889606
0.010733534768223762
0.010710664957296103
0.010742077375762165
0.010816606808220967
0.010861411574296653
0.010824549441458657
0.010750535763800145
0.010700951264007018
0.010663887549890205
0.010607262080302462
0.010559032913297415
0.010579193324083462
0.010582752907648683
0.010572182268369944
0.010572122161975131
0.010586497279582545
0.010638614719500766
0.010669167109299452
0.01066786665469408
0.010642827188130468
0.01056932914769277
0.010451796693960205
0.01037718150881119
0.010411084523657337
0.010472163489321246
0.010461717694997787
0.010385779342614114
0.010333463841816411
0.010350431283004582
0.010406251780223101
0.010457607355201617
0.010468214642023667
0.010454583207610994
0.010477273204596713
0.010554808337474242
0.01063776718103327
0.010672424774384126
0.010653781227301807
0.010612513986416161
0.010572682826314121
0.010551935420371592
0.010570711412001402
0.010602416337933391
0.010576722194673493
0.010484255276387557
0.010421192593639717
0.01041432746569626
0.010455256442073733
0.01047846008092165
0.010468616920989007
0.01045505072688684
0.010447569567477331
0.010438516164431349
0.01043251334107481
0.010435326014412567
0.01044762423262
0.010468037084210664
0.010484455166151747
0.010490355702349916
0.010500905243679881
0.010521640321239829
0.010531121325911955
0.010516904946416616
0.010494868627283722
0.010485409180400893
0.010493792083580047
0.010504320549080149
0.010491300468565896
0.010453594980062916
0.010420760340057313
0.010413333587348462
0.010422878169920295
0.01040474593755789
0.010416912538930774
0.010462836486985906
0.010497550518484786
0.010513572798809037
0.01050078762578778
0.010439610636094585
0.010362323533045129
0.010340550217079
0.010372105804271996
0.010377596457256005
0.010334348417818546
0.010300545493373647
0.010295247579924761
0.010278239829931408
0.01024096981738694
0.010214198663597927
0.010217978223226964
0.010268513496266679
0.01033752499264665
0.01035585044650361
0.010370979007566348
0.010383137422613799
0.010377793724182993
0.010360153212677687
0.0103213296236936
0.01028377958224155
0.010283368453383446
0.010304743030574173
0.01029907543794252
0.010253512940835208
0.010201138149714097
0.010177305563120171
0.010177214976865799
0.01016138686449267
0.010101783671416342
0.010022437024163082
0.0099764067446813
0.009966468018246815
0.009954112276900559
0.009954589571570978
0.010028366498881952
0.010101076308637857
0.010150151523994282
0.010162135026184842
0.010123829062795266
0.01011762220878154
0.010127872123848646
0.010109232049435377
0.010090129278833047
0.010100539977429435
0.010100265750661492
0.010059561999514698
0.010007390402024611
0.00997624138952233
0.009977096345974133
0.009951705995481461
0.009950933890650049
0.010014986183959991
0.010068892471026629
0.010103628513170405
0.010153439384885133
0.010218170251464471
0.010244738155743107
0.010220244961092249
0.010190106381196528
0.010189118087291718
0.010213743951171637
0.010237123649567366
0.010236921233590691
0.010225856371689587
0.010226864268770442
0.010231957451906056
0.010236989926779643
0.01025431151036173
0.01025281219976023
0.010223997767316178
0.010179084759438411
0.010193937888834626
0.010248569897376
0.010263091063825414
0.010225680633448064
0.010193293263437226
0.010205692207673565
0.010225307828513906
0.010207794355228544
0.01019346188637428
0.010227394363610073
0.01025455838884227
0.010206953863380476
0.010120390462689102
0.010080776998074725
0.010110557940788568
0.010152021046960726
0.01014994154102169
0.010120669803582132
0.010114511670544744
0.010136555422795936
0.01014573565684259
0.010123873978154735
0.01009996940381825
0.010106562186265364
0.010151336578419433
0.010220054902601987
0.010283423273358494
0.010314917666837573
0.01030881708371453
0.01027929849922657
0.010251549351960421
0.010247195662232115
0.010257666839752346
0.0102379503112752
0.010168298482894897
0.010109199655707925
0.01012373803765513
0.010145592619664967
0.010167641072766855
0.010124805595260113
0.010044354180572555
0.009987855746876448
0.009993345892289653
0.010028133478481322
0.010046812201617286
0.010049359798431396
0.01006262329290621
0.010122403427958488
0.010228117873193696
0.01028729218058288
0.010282747615128755
0.01023884657304734
0.010190191640285775
0.010135667716385797
0.010085206717485562
0.010085114546818659
0.010132739937398582
0.010170584247680381
0.01017454200075008
0.010164260113378986
0.010155608467757702
0.010158393657766282
0.01018231519148685
0.010220875589875505
0.010250812837621198
0.010251784940483049
0.010221958856564016
0.01018128827214241
0.01016163473832421
0.010178419646108524
0.010211364917922764
0.010232487370958552
0.010234340258175507
0.010216187050100417
0.010178933588322251
0.010137721006758511
0.010111582194222138
0.010106322177452966
0.010118602617876605
0.010144294439814985
0.010171968302456662
0.010180074698291719
0.010163130422588438
0.010148740452714265
0.010156263288808986
0.010160078316694125
0.01013914036564529
0.010124682359164581
0.010140996376285329
0.010166323512094096
0.010182049076538533
0.010178448895458133
0.010152311797719448
0.010149028819287196
0.010211723552783951
0.010268159032566473
0.010273110108682886
0.010232021169504151
0.010213858177885414
0.010207768701948226
0.010171599998138846
0.010132049155654386
0.010137773487949744
0.01016488651977852
0.0101530302898027
0.010112179592251778
0.010055424305610359
0.010025560825597494
0.010024486193433404
0.010031621801899746
0.01003557603689842
0.01005070814397186
0.010078808371908964
0.010096090519800783
0.010087463468080387
0.010066116000525654
0.010057261030888186
0.010068616857752203
0.010086789297638461
0.010102475212188438
0.01012297029956244
0.010159894926473498
0.010200493570882827
0.010207053107442333
0.010166918416507542
0.010135105542140081
0.010156615163432435
0.010201337761245668
0.010218181110685691
0.010201592473313212
0.010175660914974287
0.010159712489694358
0.01017465113545768
0.01023170595173724
0.01029503756086342
0.010316472357371822
0.010302536125527695
0.0102800054079853
0.010237121187383309
0.010169736249372363
0.010112767444225028
0.010082217673771083
0.010066282934276386
0.010063020999077708
0.010072005073307083
0.01008280016016215
0.010090586558217183
0.010102164587005974
0.010115892729954794
0.010113934152759612
0.010090677016414702
0.010063320548506454
0.010053737761918456
0.010063127105822786
0.010062007104279473
0.010040167027618736
0.010027999270241707
0.010036494011292234
0.010044566097203642
0.010044900012435392
0.010058653802843764
0.010103359459899366
0.010150837908731773
0.010158689450472594
0.01014527982682921
0.010166728015756235
0.01022938585956581
0.010277289897203445
0.010264849222730845
0.010213940386893227
0.010164472560863941
0.010120163658866659
0.010088289338164032
0.010059910437557846
0.010086386549519375
0.01011830092757009
0.010140307573601603
0.010163609717274084
0.010189563964959234
0.010232909764163196
0.010203799816081301
0.010135171068832279
0.01009456324740313
0.01008590730256401
0.010081917460775002
0.010082757659256458
0.01009122257702984
0.010097493042703718
0.01009818441583775
0.010094781926600262
0.010088332354789599
0.010085526226321235
0.010087229260243476
0.01008212583954446
0.010066281692124902
0.010044851282145828
0.010031707810703665
0.010057832539314405
0.010098920861491934
0.010147511678515003
0.010165957649005576
0.01015950138680637
0.010151523553067818
0.010157037891913205
0.010179886141559109
0.010195098901167512
0.010179392063291744
0.010141628426499665
0.010102141653187574
0.010079534195829182
0.010094459154643118
0.010144684943370522
0.010186492436332628
0.010174536475678906
0.010113517142599449
0.010052752840565518
0.010028873962583021
0.010035777444718405
0.010052071425598115
0.01005982764530927
0.010046175713650882
0.010020886001875624
0.010008683397900313
0.010015094497939572
0.010024013963993638
0.010016451471019537
0.009993412821786478
0.00998179599060677
0.009994231795426458
0.010011705468641593
0.010017201696755365
0.010012572718551382
0.010007729799253866
0.010013665275182574
0.010035241747973487
0.010056953236926347
0.010063659505685791
0.010072268629446626
0.010094145748298615
0.010101966807851567
0.010080515483859926
0.01005823303363286
0.010060224732151256
0.010072592120850458
0.010073949652723967
0.01006814136984758
0.010053589049493893
0.010008792044827715
0.009955008707474917
0.00996662792400457
0.010064245740650221
0.010157972435699776
0.010180343446554616
0.010151274215895683
0.010131555912084877
0.010123216090723872
0.010105437263846398
0.010092031414387748
0.010094807947752997
0.010100219415035099
0.0101037646306213
0.010104318723315374
0.010085966885089875
0.010049942367477343
0.010024984043557197
0.010031564345117658
0.010060821941588074
0.010083823448512703
0.010085249652620405
0.010077223951229826
0.01006888645584695
0.010058948614168912
0.010053423198405654
0.010051863301778213
0.010039506079629064
0.010043520800536498
0.010039718582993374
0.010007416795706376
0.009945188886485995
0.00987535269698128
0.009857872416032478
0.009908623390365391
0.009974150171037763
0.009983558395178989
0.009939121896168216
0.009916191647062079
0.00994763631839305
0.009980954688508063
0.009984261190984398
0.009991485086502508
0.010025695329532028
0.010078774609137326
0.01013328856904991
0.010154267844045535
0.010119104622863234
0.010056525482796133
0.010064509387593717
0.010092055569402873
0.010065019339090214
0.010051813115132972
0.010064005175372585
0.01009065454825759
0.010100722482893615
0.010085557056590914
0.010083890686510132
0.010105473531875759
0.010151303971651942
0.01019227678887546
0.010243034823797643
0.010295042289653793
0.010323456673650071
0.010343443519668654
0.010390309356153012
0.010445139305666089
0.010456624454818667
0.010425438050879166
0.010389918150613084
0.010365952491993085
0.010350313435774297
0.010340904432814569
0.010341334195109084
0.010357810342684388
0.010386755638755858
0.010416558383731171
0.010433767621871084
0.01041753608151339
0.010364748134743423
0.010322672576876357
0.01033983781351708
0.010386287820292637
0.010386183066293598
0.010325038373703138
0.010252811342943459
0.0101959172450006
0.0101448150514625
0.010106998749542982
0.010105370845412836
0.010142208671895787
0.010197284657042473
0.010238273782888427
0.010246719566639513
0.01025156605988741
0.010284179685404524
0.010317613685037941
0.010317750881658866
0.010312800377141685
0.010353773462120443
0.01043676221743226
0.010507681510644034
0.010532423381228
0.01052372675621882
0.010494654275244103
0.010468172708060592
0.01044788837665692
0.01045243687578477
0.01045650222338736
0.010515146765392273
0.010634571990231052
0.010753701917128638
0.010807018000632525
0.010784803153946997
0.010724549811566248
0.010666929828003048
0.010628245084080844
0.010597979659214616
0.010565829233964905
0.010538190106162802
0.010522686968324707
0.010520566845079883
0.010537165821297094
0.010581884837010875
0.010640618157340213
0.010684842610498891
0.010740772710414603
0.010742263176944107
0.010699778370326384
0.01066767918295227
0.010642283159540966
0.010626552675385028
0.010610167734557762
0.010591596129816026
0.010568933775648475
0.010548552421387285
0.010530475788982585
0.010500268469331785
0.010464186131721363
0.010439767219359054
0.01041996520711109
0.010401403084397316
0.010403021316742525
0.010424819180043414
0.010445741843432188
0.010465288447448984
0.010492420475929975
0.01051095469854772
0.010494745661271737
0.010442875737790019
0.010397588252089918
0.010404604963259772
0.010423297351226211
0.010366723829647526
0.010301508066477253
0.01024239324615337
0.010198952847858891
0.010157124949619173
0.0101262922573369
0.01014078919426538
0.01019468494108878
0.010247106271563097
0.010266593931009992
0.010258177843643352
0.010247164365136997
0.010245517429430038
0.010251447280170396
0.010268802015343682
0.010308460886590183
0.010364191965200007
0.010405572208110243
0.010422663477947935
0.010444065212504938
0.010480753460433334
0.010502542011672632
0.010491867231903597
0.010471124217147007
0.010468741448130458
0.010491595367202535
0.010520998798310756
0.01052119895000942
0.010479580896208063
0.01043652729364112
0.010431610870873555
0.01043755016871728
0.010407116852002218
0.010353851995896548
0.010320693161338568
0.010310283319558949
0.010301943060476333
0.010298072816804052
0.010312568478984757
0.010343867267947645
0.010384390404215082
0.010424665422178805
0.010442707054316998
0.010425253377761692
0.010388575479155407
0.01035635385895148
0.010339167925994843
0.010339705100050197
0.010348248573718593
0.010334785603918135
0.010281953193480148
0.01022176765021868
0.010206249052425847
0.010245098108425736
0.010300000983988866
0.010344755226979032
0.010383913763798774
0.010404092103708535
0.010377858629217371
0.010336594121763482
0.01031130477786064
0.010317387440009042
0.010297573772259056
0.010246200538240373
0.010188821852207184
0.010167549205943942
0.010185552765615285
0.010226843040436506
0.010246519544161857
0.01021955702221021
0.010204135325038806
0.010253205701010302
0.010321049265330657
0.0103641051647719
0.01040834390441887
0.010418173072393984
0.010431426021968946
0.010443986414466054
0.010492924421560018
0.0105788148206193
0.010610459697199986
0.01057097507524304
0.010515651850728319
0.010492344142403454
0.010493419215781613
0.010485205220757052
0.010463617705972865
0.010445956831099466
0.010423750466434284
0.010378899092320353
0.01032456778222695
0.010280136989895255
0.010247612140374259
0.010228654795791953
0.010225833422737196
0.010244751321151853
0.010236697577638551
0.010237425121013076
0.010276929658139124
0.010296672391705215
0.01031808953732252
0.010334158337209375
0.010334272148320452
0.010345869414741173
0.01039011116954498
0.010437818041536958
0.010442495197057724
0.010386247029528022
0.010292780054733157
0.010210587095934897
0.010168865019222722
0.010137899225810543
0.01007182665518485
0.009997766158776358
0.00997566155041568
0.00999500420410186
0.010010703732259572
0.010012273539323359
0.01001079534413293
0.010022027351660655
0.010046145510859788
0.01006291847792454
0.010076174075948074
0.010104055311530828
0.010131215397268533
0.010140513275982812
0.010145456593018026
0.01014046618831344
0.010089128876570612
0.010009169117547572
0.009982637609355152
0.010027929325588048
0.010077933488646522
0.01011194589547813
0.010166340112918988
0.010231696523260326
0.010264313709922136
0.010263460543937982
0.010259371375432237
0.01026625000173226
0.010277872573351488
0.010274663275340571
0.010250579287530854
0.010235634805867448
0.010258759162388742
0.010295749685028568
0.010269618465099484
0.010143648541998118
0.010001076471526175
0.009942582296207546
0.009954470349475742
0.00997574626468122
0.009965164921013639
0.009943136923247949
0.009931803153594956
0.009958905930398032
0.009931849660351872
0.009842380143236368
0.009775755434529855
0.009780685500008985
0.009828141741454601
0.009873551445780322
0.009901129788486287
0.009915049298433587
0.00992137825815007
0.009922773083671928
0.009920760423410684
0.009910658925073222
0.009884220361709595
0.009845263930037618
0.009807992110727354
0.009782751868478955
0.00977328948210925
0.009781851547304541
0.009810716200154274
0.009857485025422648
0.009903637828538195
0.009974497985094786
0.010041030790889636
0.010055857142433525
0.010015759540256113
0.010021056219702586
0.00999050161568448
0.009985982470680029
0.009977427509147674
0.009982062990311534
0.010012519357260316
0.010029816647293046
0.010003912897082046
0.009958527105627581
0.009913999426644296
0.009878234290517866
0.009835659761447459
0.009785696753533557
0.00977967973332852
0.009803790788864716
0.009850632575107739
0.009893469653325155
0.009890818542335183
0.009872224979335441
0.009906113183824346
0.009931912760948762
0.009962064927676692
0.00998876258265227
0.010003730179741979
0.00999923384282738
0.009980365545488893
0.009966000318527221
0.009943133817287161
0.009908349458128215
0.00990270298323594
0.009936610920121894
0.009963728096336126
0.009963338737143203
0.00995747921988368
0.009945805965689941
0.009914634153246879
0.009883493318920956
0.00986927239689976
0.009859574837610125
0.009861004647100345
0.009901460770051926
0.009968421672238038
0.010003474906552583
0.00997656849795021
0.009920191931305453
0.009878288379404694
0.009887882410548627
0.009969460249412804
0.010063357785111294
0.01008000254048966
0.010036845618160442
0.010011863490799442
0.010003896250855177
0.009995463809464127
0.009997597477631643
0.010051307319663465
0.01010708259884268
0.010129229105077684
0.010142774208215997
0.010159357715165242
0.010166776499245316
0.010182658580597491
0.010222885484108702
0.010264025526121259
0.010288017905550078
0.010304998160572723
0.010321535964030772
0.01032329595531337
0.010297817051177844
0.010261736375978216
0.010240239999257028
0.010228360176552088
0.01020467436988838
0.010165995283750817
0.010117940440541134
0.010055630655260757
0.00999026107834652
0.009967275934759528
0.009990779228974133
0.010029051731107757
0.010035976561484859
0.010063023124821484
0.010125165738863871
0.010183291202411055
0.010186008628224955
0.010155959697440266
0.01012619870249182
0.010109437893843278
0.010102369956439362
0.010078067657304927
0.010017602596199139
0.009948868936626241
0.00990531848045066
0.009894177769310772
0.009933610924053937
0.009978220006451011
0.010010932829463854
0.009998983521945774
0.009945742798736319
0.009891853330191224
0.009861716016894206
0.009871610174886882
0.009897274434333667
0.009893308498430998
0.009851048373384401
0.009809264979558065
0.009810396536486223
0.009852430807659402
0.009894388711545616
0.009904175339033826
0.009885435473406687
0.009866024471120909
0.009868986157234758
0.009889775261981412
0.00990957150585018
0.009924147005658596
0.009932125458726659
0.009919452720787376
0.009896347733447329
0.009897731129312888
0.009921313903760165
0.009935325648402795
0.009929365058196709
0.009905718783847987
0.009874270539730787
0.009863114178879187
0.009884489707183093
0.009923294613836333
0.009966119581367821
0.009999449478928
0.010015209850389511
0.010031943565700203
0.01006980807054788
0.010123049968387931
0.010173135364893823
0.010207780483178795
0.01023156318697147
0.010254228139529005
0.010264078547479585
0.010248312914045528
0.01021613455377519
0.010164527911692858
0.010090903112431987
0.010038804778596387
0.010041138365631924
0.010063613122329116
0.010071498996112496
0.01008124352316372
0.010107361410045996
0.010127564835129306
0.010130164133151993
0.01013283038744703
0.010136762337060646
0.010133496365742758
0.010132346976315603
0.01012594367028214
0.01009721374255605
0.010064042690210044
0.01004972635768354
0.010046815851237624
0.010044948179274798
0.010049396442482247
0.010058605681406334
0.010048189314547927
0.009999875368084759
0.009954399744747206
0.0099817063100636
0.010072328583337366
0.01014196379808709
0.01015857760910876
0.010170360247138887
0.010213918620720505
0.010269662173232063
0.010302826733095571
0.010312329726293683
0.010324326525442303
0.010346001865109429
0.010355009523918853
0.010347419345052913
0.010348428196739406
0.010354378971969709
0.010342295918380841
0.010324004912981764
0.010314783974317834
0.010304534522583708
0.010292204215656965
0.010295766599010676
0.010325918981106953
0.010371284359134734
0.010411066602682695
0.010427886008983478
0.010407969327643514
0.010360953058116138
0.010328596407780423
0.010332735379924997
0.010332776239374652
0.010281563978642225
0.010213833010056987
0.010220293353777379
0.010308499158127234
0.010350450145779178
0.010396423134952783
0.01038129011169076
0.01036712444620207
0.010358575258869678
0.010337307474110276
0.010333354395115749
0.010362610844895244
0.01038863003370352
0.010402352387318388
0.0104082701576408
0.010421368883689865
0.010452985737938434
0.010458526449510827
0.010444296351633965
0.010422627096995712
0.010405413373373449
0.010390928128035739
0.010378765129717067
0.010391742134233937
0.01044059866690077
0.01049849619390443
0.010534757220884785
0.010547088956227526
0.010554110530065372
0.010559236229164526
0.010553961411351337
0.010549074672162533
0.010541378675261512
0.010496716919587925
0.01042581268819049
0.010395451680524274
0.010424087978899479
0.010458660463336855
0.010464244965696708
0.010453362877015024
0.010448467240203173
0.010461338036693633
0.010477825553389266
0.01046723545063287
0.01042324839392677
0.010375344965141267
0.010362122467486188
0.010387977387290448
0.010418338351882994
0.01042458794079721
0.010384560317033902
0.010289630885235965
0.010196814159862698
0.010177497916156426
0.010218542799120768
0.010264122248627246
0.010304416090948508
0.010324869909090921
0.010309670743299647
0.010237253628438338
0.010185669555794448
0.010210962129058317
0.010257992362603545
0.010267170384759083
0.010262304077623413
0.010257997564040125
0.010223396990913897
0.010163931443821638
0.010118703619809821
0.010093025419628247
0.01006943105137907
0.010055375853553414
0.010066221470478922
0.010095605966635049
0.01013495675753802
0.010183149648364634
0.010232438346138224
0.010271275450941175
0.010289909617276861
0.010290596933336928
0.01029737360891886
0.010320809000404552
0.010334044086048379
0.010323157996172085
0.010313530581770465
0.010320392252178862
0.010334784730803221
0.010357809128472582
0.010379311247961596
0.010363043976249174
0.0103159940300975
0.01029563812771812
0.010322385594481603
0.01036183470278047
0.010379455391084775
0.01036876968224533
0.010347275885287673
0.01033167406450957
0.01031797333387658
0.010306967452634127
0.010312966608908028
0.010327783598331735
0.010339170428924262
0.010361105120973662
0.010387794864363968
0.01038947060587816
0.01038106060004793
0.01041117501212284
0.010474354655016213
0.010507428216515109
0.010485034044831991
0.010444003734737634
0.010402392159448937
0.01036133588757366
0.010320636148098855
0.01032381916884333
0.010354029223090038
0.010354428400751204
0.01034547014045529
0.010364950899966061
0.01039052102714777
0.010409165548626333
0.010440660734893754
0.01046167555381544
0.010431275540031492
0.010371447202051059
0.010340720034437255
0.010359596010530367
0.010387817061273381
0.01037949154037051
0.010341603345004842
0.010303260809741914
0.010274225680623203
0.010259117014938965
0.010268110849428922
0.010299193549435585
0.01032374610309489
0.010316138722700999
0.010289556682109832
0.010271247971104458
0.01026828607544303
0.010270686140283942
0.010268763618078082
0.010267118086339906
0.010271455843467265
0.010279720399994403
0.010292928580893203
0.010299307791283354
0.010287325794342906
0.010284236042061821
0.010315876061795279
0.010368560296483339
0.010419211608823389
0.01044733565300703
0.01044202917139046
0.010418245813343673
0.010393355997512116
0.010364333174657077
0.010336894642096013
0.010347092596348376
0.010403707312652841
0.010454002742189914
0.010462322097737342
0.010454667307203635
0.010449260517489165
0.010421065849950537
0.010364500448340551
0.010322428008075804
0.0103337106120307
0.010387076906627045
0.010418460011715069
0.010373653300339356
0.010278891903581097
0.010242322768317536
0.0102223283785861
0.010202740575186909
0.010201028469018637
0.010202816032106057
0.01019795802421868
0.010181825348408892
0.010150831337086856
0.01011572806746699
0.010089111702982337
0.010070187475066631
0.010071922265924514
0.01009405914810486
0.010092637969646602
0.010058706339914352
0.010035380893386901
0.010031542265787721
0.01001780247897841
0.009980105995200574
0.009934342531487346
0.0099141349515412
0.009940267220372334
0.009999178766738623
0.010059973108582199
0.010096551716560497
0.010096802574116737
0.010086482708575205
0.010106897143414244
0.01013686160906218
0.0101240392413456
0.01008270427933894
0.010062869802350178
0.010068492909194902
0.010067442776635288
0.010044300974113867
0.010012972641270608
0.009986929051810875
0.00996490407618694
0.009949973272159695
0.00994952256209217
0.009966255442705005
0.010000672899186611
0.010028365661855786
0.01001391812809743
0.009979844548506662
0.009988711858168244
0.010039020949043333
0.010062098444905132
0.01004747131606564
0.0100523626874201
0.010068205015268178
0.010036514485254883
0.009969847989268601
0.009932599195744842
0.009952000350458547
0.009995432368014008
0.010019107450498268
0.010019402861362324
0.010017995901871473
0.010030184929491951
0.010059206193545833
0.010086960467742757
0.010085064055165276
0.010056773888645693
0.010038308461662381
0.01004508049809374
0.010050751534290612
0.010035827917745337
0.01001875338726677
0.010014488857705147
0.010008369935676456
0.009998514136532322
0.010007974976906553
0.010029297417495399
0.010022234107600525
0.009977563145803288
0.009924368555657566
0.009896259233355522
0.009909336555283517
0.00993487155647017
0.009927034110296518
0.009890217126812786
0.009867675937712192
0.00988135851570405
0.009917932158568874
0.00996100745163858
0.010003685492556542
0.010012927368516103
0.009953869841992855
0.009872814547270537
0.009834907260956243
0.009811642236309126
0.009764539010357112
0.009740011868998408
0.009775717400480062
0.009822438529226929
0.009821674071718007
0.009778821197105571
0.009733637167373672
0.00970907810376957
0.009696954333921894
0.009680122378049417
0.009657716896617785
0.00963943282724358
0.009633254824439063
0.009647194587159902
0.009679383595939726
0.00970751074142754
0.009716449591796844
0.009719452637946234
0.00973455611616373
0.009762722486630081
0.009783493782160804
0.009771266471361742
0.009729734406573699
0.00969312799628824
0.00969283988000825
0.009724891926161945
0.009742877869866788
0.009705371205927803
0.00962876925827004
0.00956242395681329
0.009544232167536392
0.009567411459283904
0.00959420851082541
0.009601981063606218
0.009595354112097993
0.00958436647662893
0.009582270453684032
0.009602359576383605
0.009636379778385162
0.009660165323875845
0.009662783782696352
0.009645726459566503
0.009609051734441891
0.009570275546284392
0.009560230374336242
0.00957212975830771
0.009579870863817633
0.009598751238081604
0.009627081596991048
0.009643808995606377
0.009605123590445146
0.009536948899039999
0.009508601070847363
0.009517116224160418
0.009514529666630552
0.009497927171178162
0.009491857363609597
0.00948859657975845
0.009481465052813292
0.00950091035454534
0.009552662555361167
0.009587039217585698
0.009570879213279114
0.009535897760652006
0.009526913018198684
0.009539779344340787
0.009546731017762796
0.009550249808235094
0.009570850430754944
0.009600766508374364
0.009609497487545013
0.009596630820306018
0.00959243418299593
0.009594258419238031
0.00956870758207515
0.009526980784721672
0.009512798995710909
0.00951945672277361
0.009504986603278667
0.009471029432024807
0.009452476054430009
0.009454073294764385
0.009459452743176371
0.00946514603914693
0.009469035438960417
0.009468389336252585
0.00946182414656505
0.009438036682549864
0.009396058211568742
0.009361180069390684
0.009356527177151292
0.009374314261367544
0.009388896190794185
0.009390534247504547
0.009384216269245372
0.009366021294845268
0.009332448082277551
0.009302201983518898
0.009298622750211507
0.009321554184425622
0.00936056233709678
0.009410455365432426
0.009455756884999573
0.009468008206458762
0.00943637966294773
0.009391159393126146
0.009372412025695666
0.009394567038398235
0.009414310370339081
0.009474370470270515
0.009525366816669703
0.009515007331501693
0.009486010895343497
0.009476896479027346
0.00948990842094645
0.009518901718547568
0.009548853515880182
0.009554878774797543
0.009536982584977522
0.009523770500672981
0.009536252643447369
0.009578672451898456
0.009634459618246183
0.009663680219091475
0.00964678798802197
0.009609729791991413
0.009587419392773881
0.009579627806087955
0.009552319474751129
0.009495780009310693
0.009450068167643622
0.009450757829472422
0.00948879076517187
0.009529670192860067
0.009542559587862343
0.0095142477680929
0.009463927511824295
0.009435924281133339
0.00944500749814324
0.009452795770484954
0.009429985326714813
0.009405354413902388
0.00941757090156898
0.009452905834186821
0.009472936546662822
0.009473907346837222
0.009480078653432429
0.009500188593519851
0.009516220595687628
0.009515584018081426
0.009520296523114667
0.00955843262723647
0.009618777717696503
0.009664016555761918
0.009682702238205821
0.009708331843139604
0.009758865189505741
0.009797742300434039
0.009806384195107966
0.00980992290424183
0.009814528685528784
0.009803570144576952
0.009773465786129237
0.009741940174717457
0.009728250242769718
0.009728959038620815
0.009733100307639688
0.009734815260162576
0.00972313098027371
0.009700175760081038
0.009686014733742922
0.009690284414682537
0.009705585748888553
0.00972193866968155
0.00974220338393934
0.00976241881842725
0.00974906855961308
0.009699774336768314
0.009674765063682571
0.00970360383973457
0.00973471934790723
0.009723315205192193
0.009694201677339151
0.00968242465867661
0.009689951206091792
0.009710787809453905
0.009745643087662757
0.009802871362771838
0.009877167092636228
0.009934579242253676
0.00995901991496794
0.009965174313401803
0.009945849591167644
0.009889723918167875
0.009844124477822333
0.009818082082783803
0.00982805777573958
0.009832096182508394
0.009825249093119055
0.009851659854175522
0.009927121778018773
0.010000091899419203
0.010021906149340794
0.010000714886700734
0.009971821787767112
0.009964111716253683
0.009984319854993373
0.010007750848308206
0.010004875754239037
0.009983061922248453
0.009977916141506284
0.009995273646200075
0.009995864890515804
0.009961695410311222
0.009930845801718532
0.009933466693619266
0.009949382999911905
0.009953727935208007
0.009944775534095243
0.009923045707400888
0.009902024697512389
0.009907012714538723
0.009926501370500773
0.009933042927877977
0.009936753829242662
0.009956438920926302
0.009987307864939794
0.010015679179923609
0.010040247399592772
0.010082501948345453
0.010130620946874842
0.010132346872705967
0.010076339353108778
0.01002408919041045
0.010007289572386072
0.010035866698017345
0.010065408705268055
0.010039383327821269
0.009959736655000597
0.009900765806669369
0.009907475931104272
0.009939266826258973
0.009950799249345436
0.009954917614813895
0.009981072478694841
0.01001916745561175
0.0100326369155664
0.010019857914885506
0.010021009652409702
0.010059862099587917
0.010126337993424385
0.010200122391106561
0.010253683794289828
0.010266368495067582
0.010258005170617252
0.010270934522850439
0.010304613898042589
0.01031741449609399
0.010299303281353787
0.0102783620019909
0.010272784586995841
0.010287752531003207
0.010319508153479547
0.010350150907179341
0.010369465176481754
0.01038308922201395
0.010393210730981081
0.010387034313753247
0.010348871940514072
0.010287964320741593
0.01023193733068183
0.010192242857301607
0.010170010273577645
0.010183001949917525
0.01023863885202445
0.0102850867935922
0.010265329191461205
0.01022948750993237
0.010197725099278614
0.010206846564542502
0.010237024037633092
0.010267354642273858
0.010282446399796754
0.010286823700880632
0.010287473378702998
0.010263067914638668
0.010203733323141933
0.010148242986761034
0.01012917103478685
0.010158143240259961
0.010216423341771587
0.010265141311101615
0.010269068529596552
0.010239419842837378
0.010226395955542103
0.010257690564030782
0.010314598120748997
0.010362283176509663
0.010383877655258403
0.010388447082368657
0.01038932025199756
0.010386894852854312
0.010382585985353217
0.01039035410154611
0.01041543559753336
0.010442583095282317
0.010458467380376533
0.010454720730194822
0.010418689055368304
0.010363819478079676
0.010335702573647722
0.010349571745609864
0.010373105630278587
0.01038121237535961
0.010372767593944445
0.010353720366256312
0.010335134795168415
0.010326304786140099
0.010324385015992447
0.010318697944749147
0.010301368255168199
0.010264814895344898
0.010206970776198431
0.010152180670993403
0.01013558974955231
0.010166041379561648
0.010220984817715361
0.01026131302351132
0.010252955888863652
0.01024955761153251
0.010203273387160152
0.010176761070033536
0.01012715266784653
0.010055227259872481
0.010032586908200756
0.010095739386742934
0.01019238109467551
0.010248919436708092
0.010263168294914067
0.01029341246932745
0.010359930449631065
0.010411043411586433
0.01040190847706981
0.01036848637741059
0.010367142441682518
0.0103751103754621
0.010342029774328694
0.010285249162698164
0.010244101725984365
0.010211786532308906
0.010171150761889293
0.010133371182018892
0.010109010625164956
0.01008111059316434
0.010039272119756788
0.010005788501584902
0.009990135547704995
0.009964945007814094
0.009917288410943002
0.009879770157858729
0.00988362026051618
0.009915447834646329
0.009949508258141577
0.00997525948449038
0.009985192384338006
0.009982227639993653
0.009979359006974846
0.009988668841542677
0.010022137610940262
0.010073720887303352
0.010116331612225622
0.010128789568552747
0.010110662903171032
0.010085820246022194
0.010077686237636954
0.010083494787104429
0.010108828437514603
0.01017213155515492
0.010244722763309256
0.010272567326901481
0.010262146233581007
0.01026594070601277
0.010304435711586847
0.010355327058350667
0.010385311467107385
0.01036985972430557
0.010304843470221385
0.010208426996832713
0.010122534494148567
0.010090843274956568
0.010102137194480746
0.0101088248915039
0.010121629340574145
0.01018261891673319
0.010241862554103136
0.010252009727992117
0.010193712705513462
0.010152233022963628
0.010159344563726335
0.010164709951495751
0.01013659493299201
0.010096942844102159
0.010072802094509826
0.010085054842056707
0.010137630227254703
0.010187520560575649
0.010192607262870296
0.01017751544713974
0.01019136461080052
0.010228431303985416
0.010241858698427676
0.010226874215295539
0.010235238674795255
0.010290817327331751
0.010351659967564047
0.010373276731697842
0.010364041952416301
0.010365686506265775
0.010399142800597474
0.010446518280077725
0.010473819907056169
0.010465639957692474
0.01044557542540133
0.010441835621604697
0.010443718116730451
0.010423882827162743
0.010386145957745611
0.010360555875813589
0.010353625079151243
0.010343537941807882
0.01033416889840737
0.01036076306249015
0.010424929450964555
0.010462858385872097
0.010450703123351559
0.01041193312383257
0.010406858411151916
0.010451631486648693
0.0105101204267703
0.010542671967996284
0.01055865950183943
0.010588556551374495
0.010615688441321254
0.010598878742894158
0.010543377072317527
0.01050837967195548
0.010540624243440107
0.010609753811731935
0.010651958261150866
0.010655555257108063
0.010639898214722053
0.010607312776846812
0.010573348867474124
0.01057245503179729
0.01059572452912107
0.010594201564090326
0.010564699539681897
0.010553422609809786
0.010565112471813336
0.01055838290718384
0.01052051538717933
0.010469913760898635
0.010422397266374901
0.010384593992494046
0.01035173881915398
0.010326908156275749
0.01031500787474215
0.010302790048299357
0.010298020885093137
0.010324916298268363
0.010373659504111857
0.010416805254062638
0.010435906735947355
0.010421411652350799
0.010391655386192723
0.010396698724944144
0.010458401947980747
0.010512802717275917
0.010562651474028826
0.010589133945759386
0.01060252069728449
0.010599477216601372
0.010579299737000837
0.010542054924881085
0.010493656970793382
0.010461760765174404
0.010469529632246122
0.010506120595382527
0.010548383770510554
0.010549465540098026
0.010484581292839721
0.010400835877517238
0.010378872376168146
0.010420541166095063
0.010452156731626019
0.010441674913745374
0.010428080230485647
0.010437277021119372
0.010444986601360142
0.010423680255189537
0.010376521984580904
0.010334443468600511
0.010324930229689926
0.01033203254803084
0.010315881749847903
0.010275895524537192
0.010258654286153614
0.010294945054920391
0.010357154286466538
0.010392691052984446
0.010381369815440848
0.010344532279996202
0.010308484049746767
0.010283229111228137
0.01027521159267053
0.010295388625236228
0.010347582792164758
0.010415357663296163
0.010466786423930898
0.010480295427842066
0.01046728881308809
0.010464975376380607
0.01050020446185954
0.010557831218466162
0.01059699699631892
0.010597234739689156
0.01057602632441558
0.010577183208661155
0.01063451855792664
0.010669881848152728
0.010712552018230782
0.010711498437449335
0.010712618922116234
0.010722607001662254
0.010720599518390373
0.010698920724680648
0.010659406760241836
0.010611663260497152
0.01056721301516518
0.010532512164209038
0.010504795608576388
0.01047382191172801
0.010439627392916009
0.010407212233403698
0.010384826700901613
0.010397430108860135
0.010451123683014884
0.010516367855016142
0.010576808917103336
0.010630222145700828
0.01066652792855166
0.010678347538923844
0.010649779316736385
0.01059694093419239
0.010550583442673088
0.010508513015229254
0.010489945040317252
0.010478263954864816
0.010490254015894606
0.010520135695114731
0.01052988073672168
0.010519241273868829
0.0105198266915977
0.010534111484885216
0.01055298196268268
0.01058414751314558
0.010626876638270914
0.010661578788422048
0.010665465136989951
0.01063084940193221
0.010583498291671276
0.010571316597051919
0.010609300701180473
0.010655403308337554
0.010674179957713931
0.010681200633989647
0.010688811211148277
0.010670200767926873
0.010618766439147293
0.010579822397558019
0.010576518691377714
0.010568554017227142
0.010528664751909673
0.010493782779667527
0.010494641190161929
0.010501671526581048
0.010500703600700944
0.010499978160951287
0.010519180111587048
0.010514490872155875
0.010470816241577268
0.010437583090970292
0.010441415074747057
0.010451221038820221
0.01045994947780855
0.010505766242276877
0.010585856739198788
0.010641793140675872
0.010644687345484271
0.010618503688601778
0.01059221319272183
0.010578336061444133
0.010559937591897323
0.010519686902407557
0.010477626656647771
0.010438663878012448
0.010446029980666936
0.010439021210186184
0.010395291545428335
0.01035008906503208
0.01033463396714069
0.010350817800499498
0.010379918365506455
0.010399750270880758
0.010407051527872682
0.010422868261812254
0.010462605587672442
0.010504095167852938
0.010507368829566986
0.010464689648943022
0.01041372297797352
0.010390071717556565
0.010386602665530518
0.010384570058668031
0.010384013289585709
0.010387330276425927
0.01039736411650665
0.010416211171541363
0.010431246942607686
0.010433140496024862
0.01042156008654274
0.010385106744943187
0.010334881183225661
0.010324002599809319
0.01036512099672109
0.01039268888067454
0.010357156665995716
0.010291266354033723
0.010248854310484603
0.010231004589004443
0.01021480910363607
0.010201099023688584
0.010192422675900162
0.010185358910821379
0.010186024159193039
0.010181654437910765
0.010141712178010494
0.010069665056653321
0.009996476647211238
0.009937233906239271
0.009898286581737921
0.009886419615941121
0.00988513690768741
0.009874032248044387
0.00987403184408322
0.009908418086124584
0.009943780788453295
0.009938598177395761
0.009908961766632274
0.009892465858720244
0.009893007422797383
0.00990071840933524
0.009917363168206066
0.009939361677970738
0.009959669868694619
0.009986557874362915
0.010038213840452954
0.010110416718525812
0.010158021613024175
0.010147956556174904
0.010109204322798177
0.010086226117564365
0.01007858081255108
0.01006035333382897
0.01002252809354104
0.009969222908839583
0.009909589872695506
0.009862972085829824
0.00984289473388344
0.009837808655574917
0.009821669770171865
0.00979603213374503
0.009803260290063918
0.009863450988195837
0.00993807680439204
0.009991310478653759
0.010025495605077595
0.010042861076071859
0.010042316934559495
0.010046197235351429
0.010071586673147977
0.010100428361911327
0.01012156993849203
0.010141233567846939
0.010133844113443046
0.010078318833839148
0.010013593171024696
0.009977407967671752
0.009954080398892983
0.009930378089193255
0.009929705270333216
0.009955493683228268
0.009978638243628666
0.009990837932564318
0.010002898249076679
0.010012899874709547
0.010013372818939388
0.010005063199205324
0.009993976078694686
0.009987650646362454
0.009993799543008209
0.010020452942699194
0.010071535097667948
0.0101312108093407
0.010160024495562539
0.010125596809666603
0.010045197285944597
0.00997757843695581
0.009955327223287895
0.009952976152999327
0.009938946913462133
0.009918789410730823
0.009907340549398213
0.009904251936823129
0.009906717921840027
0.009912173140328377
0.009915045166853815
0.00990716330241412
0.009889485224848614
0.009890564761590212
0.009920926577178761
0.009936517655150965
0.009922922012628987
0.00991450590430759
0.009899557093158365
0.009854782827896997
0.009824981385609135
0.009844463146291673
0.009865065567428246
0.009841589760035276
0.009815782193327323
0.009846133902901783
0.009909888189285994
0.009948671631282196
0.009948727586306631
0.009921259206021205
0.009875279141124339
0.009826715466333553
0.009784669652581214
0.009748436232330277
0.009718534731073305
0.009701248025521636
0.00972563651856035
0.009785589987877756
0.009839401121716947
0.009874756580684334
0.009880778276128694
0.009888375943992287
0.009877071749651805
0.009838783391751349
0.009813185394741596
0.009815592269878834
0.009807465292979031
0.009779186149826273
0.009775241523748264
0.009804926358629017
0.009806085812160746
0.009740599369397387
0.009675686182454228
0.009676197119988501
0.009708709515398367
0.009699627347290516
0.009650739250937478
0.009613191997632385
0.009605124776717275
0.009603140045655892
0.009586029063211755
0.009562103921780363
0.00954600568395108
0.009528907811036333
0.009514219510601834
0.00952993838582188
0.00956701729213819
0.009581625896971672
0.009576577094849199
0.009602365783648566
0.009648202380631118
0.0096720255096443
0.009651535334996878
0.009644492655061185
0.009684589514508844
0.00974012689315714
0.009767245615366847
0.009760840005474164
0.009741129345493392
0.009717567341867834
0.009693644045619294
0.009677215470001102
0.009660630893195047
0.009633057616883888
0.009614311478799209
0.009626277006464078
0.00965678927139379
0.009671401566592977
0.009667953740572556
0.009708184995688499
0.009754538590786978
0.009803771298611536
0.009847523507196455
0.0098920731281396
0.009945929893292486
0.009979754504747688
0.009953102250583469
0.009883044926682487
0.00982646450982429
0.009799699592404067
0.009767676664050668
0.009706875423435122
0.009646737425355241
0.009631560693960636
0.00965477320482023
0.009677547179162502
0.009688282040879131
0.009687461322173477
0.009669238168280572
0.009640736384317278
0.009600109296152369
0.00956646271632053
0.009534126518992707
0.00954346367972903
0.009558225317159668
0.00957369749667123
0.009616938420804218
0.009662740469211712
0.009670609447639436
0.009657903071492911
0.009662578789284454
0.009692478406941518
0.009740202262764796
0.009794403488049283
0.009818137031979859
0.009786899577593431
0.009749397989362479
0.009753320191521198
0.009773669060086832
0.009791692533763125
0.009831010347697884
0.009896288053132593
0.009963883486343549
0.010012867577606811
0.010041926954872906
0.010075578880496323
0.010134861178230495
0.010193150112172589
0.01019367550034076
0.010126101471250877
0.010049033333780244
0.010016277327667921
0.010026279212906957
0.010059996827039867
0.010109844547696412
0.010154004920041189
0.010165332502219826
0.010155228161020205
0.01014954701764509
0.010137521229917184
0.010095685120904817
0.010036551775410772
0.009998683806043119
0.009993618089938537
0.00998649617889896
0.00995573450345546
0.009943559980019927
0.009993678401224315
0.010079417187953368
0.010145578072406352
0.010178580159554258
0.010202889156062156
0.010226385693531483
0.010225433118175715
0.01019363420084119
0.010171574875712394
0.01013578852522187
0.010099192252382636
0.010071914866566658
0.010065162652172149
0.010069151757052168
0.010066250420641154
0.010052392424549908
0.01004239782341756
0.01004876654362306
0.010055647450499236
0.010032199657289312
0.00997938253567554
0.009943389168474823
0.009950380604714155
0.009967231188202277
0.009961005565710366
0.009936942588537931
0.00992178616928868
0.009945403757737949
0.010000659766374155
0.010030782611574978
0.009998664141166956
0.009941673517460003
0.009918851518305018
0.00992843123502098
0.009925919577945023
0.009900228497572243
0.009879240576410667
0.00987919959006831
0.009884803425520658
0.00987635670346208
0.009862559634493664
0.009874017584370448
0.009912624846911057
0.009933092660503462
0.009907044814899563
0.009863163237459957
0.009846342926612123
0.00987421574187465
0.009923764327540994
0.009957017911365256
0.009964644880965353
0.009959829861763865
0.009946748403599485
0.009925156417302787
0.00990772102959454
0.009908327400917188
0.00991795743117109
0.009917916235281155
0.009912753861863166
0.009918293573427946
0.009937482730019837
0.009968519016401842
0.01000105735962279
0.010006807862082497
0.009981229442637414
0.009971388350240886
0.009996819332009181
0.010002647790824994
0.00996679174946621
0.009949636696837842
0.009980222657322884
0.010019631248433143
0.01005406805779785
0.010096577709773555
0.010126616633497178
0.010128050945932046
0.010126121039502323
0.010139588543679565
0.01016070183366537
0.010179524050327017
0.01017492449725978
0.01012844813754782
0.010077516876626759
0.010047164191491901
0.01005671696155332
0.010105678653344512
0.010178810026263817
0.010232516623800621
0.010238179727457464
0.0102173303544987
0.010202080403687433
0.01018225111765787
0.010133437336189672
0.010087425200035796
0.01009765752707608
0.010133669244823977
0.010136873596347868
0.01012226327555254
0.010144834039965644
0.010186734982999041
0.010199610276613385
0.01018564146826975
0.010166535498574375
0.010146689298562706
0.01012976982165128
0.010120504135265947
0.010115497714141384
0.010110410366905853
0.010115044871345163
0.010141776998061687
0.010169383671600371
0.010164365726523102
0.010135880295420065
0.010117320036515593
0.010122162966290489
0.01014620064292103
0.010172646818682551
0.010171316135674714
0.010126635360065847
0.01006445882259868
0.010023175133392214
0.010007764241890982
0.010005563100567088
0.010016805108170957
0.010042711775749922
0.010085006377194077
0.010144174514571204
0.010185527144931256
0.010174027202883735
0.010144851657096297
0.0101470137713477
0.01016450896859169
0.010159176628803834
0.010123330713249744
0.010078027353156358
0.010051671292167157
0.010039239021716639
0.010005000605015085
0.009951406008331104
0.009925083447014912
0.00993663133820519
0.009951536142034456
0.009956034361384808
0.009963912660023198
0.00998611337156035
0.010021078893914818
0.010047226602910086
0.010043389110360295
0.010025270355399699
0.010031535810558125
0.010076868438627571
0.010125914202071727
0.01013945697224699
0.010150687021669
0.010182980684330687
0.010233300912659615
0.010225859613856301
0.01019883509958163
0.01019538294407539
0.010189658658346161
0.010158753736177459
0.010127521057147532
0.010117877189768478
0.010121700264280662
0.010123045718064532
0.010114171141758561
0.010099310397636145
0.010094293681904674
0.010106366544496268
0.010117207382572815
0.010117273898795248
0.010126590831205248
0.010142215105006472
0.01012509481748566
0.010065702851861716
0.00999786157393828
0.00994387233396992
0.009897182130953298
0.009836386597016826
0.009779449017951265
0.009751507686451078
0.009757090223720297
0.00978499089833349
0.009823809383669868
0.009851724330801517
0.009843134671682493
0.009802569984458387
0.009758093631826342
0.009719775340054184
0.009692903095856308
0.009703516128938645
0.009750820536864921
0.009789784327149392
0.009802366321673616
0.009816509467782453
0.00983974222559482
0.009850204753456637
0.009853176475735382
0.009866414993302897
0.009864327403483912
0.009814409908140078
0.009739478916162624
0.00969211112591438
0.009695379831828176
0.009719132526079192
0.009717650032835081
0.009692781736375763
0.009679543144302442
0.009674713211134077
0.009705624850466847
0.009736291618319228
0.009740755021339283
0.009721854225499555
0.009709965141955762
0.009716739435680211
0.009727516351267696
0.009725364341866225
0.009707618699176237
0.00969026587670669
0.009689040575176477
0.009706702409312129
0.009741219922434539
0.009788561863824725
0.00984953653998673
0.009928095516515896
0.010003413485828788
0.01002761847921647
0.00998117491719313
0.009895905473968014
0.009846719697816298
0.009858945833984762
0.009896430777153
0.009905930736567824
0.009873404630925507
0.009838406856870279
0.00983096401556395
0.009825070283841341
0.009798927038209513
0.009782902905717492
0.009795507236849516
0.009805546848801895
0.009796498742653058
0.009804708492010832
0.009862927899230272
0.009941825810819864
0.009989649339113385
0.009995844587683678
0.009976421114988625
0.00994825201923959
0.009935420516412705
0.009949689854402095
0.009969103985931725
0.009974969822214916
0.009985264095012098
0.010019679910037667
0.010057239998131991
0.010056745485635475
0.010017983638681472
0.00998392928042449
0.009973322125151753
0.009970054677687586
0.009967313408851623
0.009975155896972865
0.010005788169801235
0.010041355728171766
0.010029253824613988
0.009969303619582206
0.00993601106107235
0.009953968621557579
0.00996621930738911
0.009956028939923272
0.009951032284880057
0.009923351276665927
0.009857442629290745
0.009807979472680018
0.009820931145222858
0.009867114720400423
0.009906328916549682
0.009920005797175691
0.00990455382852815
0.009901464522117749
0.009956541511928662
0.010027365159476175
0.01006186643964611
0.010037966785021127
0.009986177021637559
0.009928437244379893
0.009865925392368809
0.009814433996798471
0.009786817993735895
0.009791615611175076
0.009810157776810229
0.009839601200073957
0.009879899601219221
0.009908025607001037
0.009907552851364016
0.00990059906616807
0.009903330411762
0.009887467913795262
0.009840481091523544
0.009799171639606356
0.009790682728635147
0.00980302166310139
0.009809973237570374
0.009802762331673875
0.009806549890199676
0.009839829046977683
0.00987112613976933
0.009865001811413095
0.009837821797700598
0.00983660800033249
0.00988560526049696
0.009952723161550239
0.009987610244425014
0.009988347453763709
0.009977933551417663
0.009959451813483611
0.009943764865165577
0.009957691562594845
0.01000006027519703
0.010038572490448133
0.010050295547116547
0.010037125926464796
0.010012975017307326
0.009991853992687538
0.009980968609452247
0.009977741845650598
0.009978145097848027
0.00998270321986638
0.009990306422114372
0.009996213054982946
0.00998966976767406
0.009967352465027944
0.009961204337887466
0.010004118328215555
0.010069065119605512
0.010101236564805731
0.010090682347072288
0.01006559541914612
0.010042323594680056
0.010017636908451096
0.009987339420476929
0.009953476761002094
0.009926905649481342
0.009917904131580144
0.009919823752716184
0.009921429125824943
0.009922044751001523
0.009914943787734956
0.009881733451038599
0.00982311630039476
0.009779834875371308
0.009788179857423529
0.009819374652579427
0.009821374238235876
0.009798412177478894
0.009787318580783903
0.009800482074497267
0.009827194330282509
0.009848431445425377
0.00985129560227506
0.009849753066664562
0.009862485786434262
0.00987272906349972
0.009856855634134264
0.009836255684494971
0.009844904633937404
0.009866603682748974
0.009859400034183636
0.009830429182620719
0.009826367256464437
0.009849804661935196
0.009867435264168308
0.00988613918540068
0.009931643882300705
0.009992162968264892
0.010043707620352506
0.010081721222959458
0.010117455360013992
0.010130921450909228
0.010113512078532949
0.010085181125905365
0.010064300094963983
0.010049166225362569
0.010051791906589643
0.01010594013496302
0.010205161683261394
0.010279998880578204
0.010283077788772061
0.010271321292966604
0.01024653090396896
0.010164029707666486
0.01010996023309417
0.010078931531170383
0.010040182741358877
0.009985364441527055
0.009945290860487148
0.0099530612770468
0.010000261125387624
0.010051417795475573
