0.08115469662239776
0.0798121397336945
0.07743639952968806
0.07505619111470878
0.07282004537177272
0.07241406024782919
0.07286876254249364
0.07389675079961307
0.07589423820958473
0.07763208161457441
0.07842063096002676
0.07986775793717243
0.08283196429023519
0.08523970520240255
0.08732106571318582
0.08767682247096673
0.08700980950030499
0.08696998108527623
0.08832876135595143
0.0881095164839644
0.08722444377141074
0.08858111582230777
0.08958170913509093
0.08992748342105188
0.08968860302469693
0.09039092404418625
0.08993887498276308
0.08867456887033769
0.08951826434466056
0.08957828774349764
0.0889857121638488
0.08987904708483256
0.09046313805039972
0.09091621546656825
0.09237331023789011
0.09265579774044454
0.0929455440514721
0.09243292547645979
0.09322437504772096
0.09350566836656071
0.09273610853939317
0.09211652770172804
0.09190216741058975
0.09195216389372945
0.09138913668342866
0.09032101583201438
0.09017588461283595
0.09028528661699965
0.08951006527175195
0.0901385456789285
0.08946239595068618
0.0889055948681198
0.0877621560334228
0.08563986617140472
0.08476979180471972
0.0849875323730521
0.08515950640081428
0.08502383883227595
0.08496660745120607
0.08561334608122706
0.08721631453488954
0.08800746356137097
0.08803470409009606
0.08833187048207038
0.08915367283509112
0.09071952341939322
0.0922016972687561
0.09236390246776864
0.09218645291402935
0.09211785586667247
0.09138632211717777
0.09219599287956953
0.09348806419875473
0.09489610756980255
0.09579087688936852
0.09624025823432021
0.09717229219619185
0.0977622650784906
0.0969819906912744
0.0959611286513973
0.09514018994872459
0.09481913457624615
0.0957730135100428
0.09649612331297248
0.0963312681845855
0.09606174116604961
0.0964140595938079
0.09657654753071256
0.09596883478458039
0.09629193289089016
0.09570056966971606
0.09474286146345548
0.09474383989116177
0.09541595292743295
0.0957831606338732
0.09622207300388254
0.09663555012783036
0.09664972699480132
0.09709538736962714
0.09651798182050697
0.0960301431058906
0.09597367005888373
0.0956989632139448
0.0953773778444156
0.09562851007794962
0.09471397039713338
0.0930771315365564
0.09162838970893063
0.0905210444657132
0.08922383799916134
0.08839479374000803
0.08714552275137975
0.08396073876065202
0.08086935302941128
0.07881970084505156
0.07726201528217644
0.07630448042647914
0.0758248273783829
0.0741452299314551
0.07313289482612163
0.0728998998971656
0.07178869657684117
0.06974547598045319
0.06944167295587249
0.06989951277035289
0.06930283567286097
0.06817029604571871
0.06803482037968933
0.0673065504920669
0.06638029289082624
0.06582123592263088
0.06373068230110221
0.06223778839455917
0.06201363246538676
0.06069041463313624
0.06021537977270782
0.05967692496138625
0.06091922680730932
0.061704286690801385
0.061008728224551306
0.06282702828291803
0.06407197478460148
0.0641831909015309
0.06454694147687405
0.06445584888686426
0.06518985659815371
0.06507932083914056
0.06451644939836115
0.0648462529189419
0.06449610195937566
0.06385793151333928
0.06388421621057205
0.06422993666725234
0.06466530598583631
0.0647890353621915
0.06481397296884098
0.06488246598164552
0.06473467995179817
0.06435780120431446
0.0630047230666969
0.06185994890285656
0.06157610584050417
0.0612011187535245
0.059622820345684883
0.0578461630421225
0.05601370067568496
0.0544618650781922
0.05440159848891199
0.05487293307203799
0.05541548344772309
0.055493427189067
0.05542460014112294
0.054201367668574675
0.0523630951391533
0.05221495472942479
0.052287725288188085
0.051489076198777184
0.050779824067139996
0.05050931478035636
0.051171005538199095
0.05151946818223223
0.0516140090697445
0.05130398459848948
0.049894419650081547
0.048387479239609094
0.04758212967659347
0.04727103481651284
0.0473248359549325
0.047988888589898124
0.04852757642394863
0.048748333409894255
0.04811355634825304
0.04786945746396668
0.04739686819142662
0.04653357844916172
0.04585816676262766
0.04514781233621761
0.044603163660503924
0.0449836267682258
0.04610299058957026
0.04679056078311987
0.046838597430614755
0.046671290474478155
0.04687903148238547
0.046730892902705816
0.04734399397508241
0.04827680437359959
0.04789639541762881
0.04774355728994124
0.04755268496111967
0.0476874293666333
0.047334557151189074
0.04669168145628646
0.04736217115656473
0.04901234845165163
0.04993031532154418
0.050062216906808316
0.050086973735596986
0.050235704213846474
0.049853396005928516
0.049517187769524754
0.04883883415488526
0.049825749977026136
0.050457022270420565
0.05016695945174433
0.049973969731945546
0.05040387530811131
0.05131994659313932
0.05154497673735023
0.052027175488183273
0.0527511269133538
0.05308636087574996
0.05320263111032546
0.053236265459563586
0.05353982722852379
0.053980824162717905
0.054058455675840375
0.053194073754129934
0.05158925168449059
0.052463427529437466
0.05089283350389451
0.05036566442227922
0.051337144810240716
0.05145049870945513
0.05139810557710007
0.050634906071936714
0.050314853298477825
0.05033644429058768
0.05008064666064456
0.049897426089737566
0.04964432217180729
0.04930761466035619
0.04899730997392908
0.049148276956984774
0.049262525051599365
0.04892348535824567
0.04861547834589146
0.04874857395305298
0.04869221234577708
0.04872720498126
0.04837397738127038
0.04777300670510158
0.04753047111677006
0.0476248825492803
0.0475126963306684
0.04693766764015891
0.04690480684395879
0.04668958957423456
0.04597858672146685
0.045529648353112864
0.045767859604675325
0.04519056814024225
0.04449110131245106
0.044836021807277575
0.04425728079513647
0.043833626817213374
0.043932589901378376
0.043398209785809744
0.043577008122811095
0.0428292295394931
0.04344916273606941
0.04429988574818708
0.04376431736629456
0.044042327739298344
0.04397425549686886
0.04367952247266658
0.04288241918780841
0.042514065313152966
0.04285835361224599
0.042962404252029955
0.04248962950077839
0.04280478108790703
0.04300403818371706
0.04361491975956597
0.04451128973509185
0.04455845725839026
0.04506813879008405
0.04602989928098396
0.04630133620928973
0.04578408976318315
0.04520443911431357
0.045478156411554664
0.04620298651163466
0.04672815106809139
0.04764950759941712
0.047349399072118104
0.04660984775749966
0.047366407247027384
0.04675581955933012
0.04655219104839489
0.04641952207079157
0.04631571087054908
0.04655275568831712
0.0462508405384142
0.04478393982979469
0.044471437147585675
0.0455527890403755
0.04611119453446008
0.04612983427359722
0.04624479838763364
0.045716894533252346
0.04567281048279256
0.045005820349324495
0.04434081442072056
0.04444968289928511
0.04446157166617923
0.04421489227213897
0.04349114325013943
0.04326039401814342
0.042935076577123255
0.0421219371247571
0.0422514349874109
0.04280123007367365
0.042678458271548154
0.04197500910027884
0.04177854588138871
0.04210003732703626
0.04186194423702545
0.04159158170339652
0.04074613030883484
0.04055313767981716
0.03979214923689142
0.03878682836890221
0.038235236187465486
0.03823203352629207
0.038413004642352463
0.038446771709714084
0.03823470513569191
0.03832949513802305
0.03871474816696718
0.039311501821503045
0.03985391891561449
0.04017588594695553
0.039752547582611444
0.03917627202812582
0.03917125351028517
0.03929686752147973
0.03912901269970462
0.0390370713500306
0.03951983456034213
0.03999795045470819
0.04001825459068641
0.04081403275951743
0.04144871769938618
0.041458033639937636
0.04166705097304657
0.041960837284568696
0.042243966422975066
0.042398259879555554
0.04265953376889229
0.043141480989288536
0.04352345254737884
0.043698069243691864
0.04343876643804833
0.04328962181229144
0.043677129964344204
0.044993754951283334
0.047177071175538
0.048768182005733254
0.049278591447509824
0.048347980931866916
0.04762070353608579
0.047563912197947505
0.047157498619053516
0.0472951678885147
0.04748898305697367
0.04821404215414077
0.04890654139453545
0.048994383146055046
0.04905942285200581
0.049740490773692726
0.05008423784980551
0.04961542991455645
0.048760993303731084
0.048273501796647904
0.04869370173662901
0.04872966554714367
0.0478767618117854
0.04689608318498358
0.046371389378327875
0.04636874972144142
0.04668919939547777
0.04695508781587705
0.04648163320031017
0.04562156496103853
0.04555919459788129
0.04547909714514389
0.04488249799935147
0.04522729818476364
0.04532854656688869
0.04523174642818049
0.0456797968246974
0.04610766595695168
0.04585925546707585
0.0456030145753175
0.04568474769592285
0.045620173867791894
0.0458169200248085
0.04600691473810002
0.04602421444142237
0.04662159735802561
0.04723497227067128
0.047160395251121374
0.046662813576404005
0.04628203131491318
0.046150976384524256
0.04603653823724017
0.04581286285072565
0.04550679305102676
0.045575013717170806
0.045885913651436565
0.04551479702582583
0.04491096855374053
0.0446781704784371
0.04451982448343188
0.04434594204183668
0.044130901796743276
0.04421337634557858
0.04448434250196442
0.044753395130392164
0.04498548898147419
0.044995921493973585
0.045076230473350735
0.045168252408038824
0.04517920373938978
0.04540739401010797
0.045637378424871713
0.04606534767430276
0.04626237731194124
0.04618859541136772
0.045914914025925097
0.045608537101652476
0.04555171397747472
0.045895076249726115
0.04640854975907132
0.046775844644289466
0.046693502166308465
0.04773570327088237
0.04958486231742427
0.05088642733404413
0.05089890358969569
0.051524275103583934
0.05196560725569725
0.05178455650340766
0.05163058306556195
0.05184581230161712
0.05185038461815566
0.05150563433999196
0.051817744278814644
0.05197922366438434
0.05187830677255988
0.05190452131209895
0.051776150160003455
0.05219203997636214
0.053073691469617185
0.05340626900549978
0.05224381979322061
0.050145052245352414
0.04821598453912884
0.04758445614716038
0.04763211048906669
0.04760097230784595
0.047649108618497846
0.0481334072444588
0.049004417101386935
0.04958291966933757
0.04965972191886976
0.049229423915967345
0.04829967272467911
0.04737569471821189
0.046908070917706934
0.04688924371963367
0.047304550728295
0.04785843772813678
0.047931058236863465
0.047407165977638215
0.04734417996369302
0.047600552185904234
0.04800609904108569
0.048718692059628664
0.049474593673367054
0.049128528032451865
0.048337018210440875
0.047909498470835386
0.04767418841132894
0.04719583723694086
0.04696694160345942
0.04733012263430283
0.04772328469203785
0.04772231646347791
0.04783197896322235
0.04788305036025122
0.04776216325117275
0.04787193920928985
0.048349088649265466
0.04773891055956483
0.0468169650901109
0.04643715016776696
0.04662343960255384
0.04692576870322227
0.046568708936683835
0.04626878515584394
0.04653231172589585
0.04686763820704073
0.04680599769577384
0.04715434246463701
0.047552927799988536
0.04769156055524945
0.04777792072156444
0.047616730195004495
0.04727306486107409
0.04746796242659911
0.04787980747409165
0.04824879671214148
0.04875309894327074
0.04908349780831486
0.049421286527067426
0.04953126496402547
0.04943424919620156
0.04926056845812127
0.0497416554694064
0.050824122407939286
0.05055953605566174
0.05181245039217174
0.05385873086983338
0.05558788920985535
0.05664257012307644
0.05658480843761936
0.056651915966067466
0.05730610739905387
0.05817904636962339
0.05880196208367124
0.058990153768099844
0.058919510473497215
0.058425834947265685
0.058418755419552326
0.059135830760933455
0.058057897516991946
0.05708506450755522
0.056416692519560455
0.05645982458256185
0.056386098377406595
0.05565772669622675
0.05517999763367697
0.05506094502983615
0.054739828843157735
0.05434894876088947
0.05433144113281742
0.05408590961480513
0.05355464956955984
0.05316510877804831
0.052833332209847865
0.05281150929629803
0.05219561228295788
0.051419721064157785
0.051147816474549475
0.05154569456586614
0.052152280118316414
0.05222225361037999
0.05266511709894985
0.05307800552574918
0.05332783743040636
0.05393919568741694
0.054107263116165996
0.05373752263374627
0.05328804805176333
0.05280121284537018
0.05226815652800724
0.05208998354151845
0.05205811281688511
0.051614166360814125
0.051110223338473586
0.05066859755665064
0.05008728113025427
0.04962668159743771
0.04953796231886372
0.04906475446652621
0.04870142884552479
0.048320677916053684
0.047510409296955915
0.046751532219350335
0.04685256191296503
0.047058076797984544
0.047220732858404516
0.04755957410670817
0.04790898416657001
0.04819561648415402
0.047717141502071174
0.04737788771511987
0.047682697791606186
0.04816500646295026
0.04773731421679259
0.04734083174262196
0.0470478913304396
0.04675007187994197
0.04669168011285365
0.046461826718878003
0.04598457677057013
0.04564173239981756
0.04623965514358133
0.04720378004247323
0.04754369577160105
0.04706057321280241
0.04699980387231335
0.04760359789244831
0.0480426162853837
0.048222997419070456
0.0485260344017297
0.0490294159646146
0.049320321860723194
0.04943388640414923
0.04970249397214502
0.0497614316875115
0.04934517719084397
0.04904138596029952
0.04851121373008937
0.04834003601688892
0.048516218478325754
0.048790226518176494
0.04910782433347777
0.04881728778826073
0.04805067444220185
0.04808654921129346
0.047030139174312355
0.04541439776774496
0.043374088804703205
0.042847733956296
0.04336294031934813
0.04311148848617449
0.04204547622473911
0.040849192377645525
0.040087817434687166
0.039616624268237505
0.039109271636698396
0.03905540087493137
0.03856170435668901
0.03804341452429071
0.0384813892445527
0.03795105931116268
0.036897159924265
0.03665373021503911
0.03690780862933025
0.037197809116914865
0.03763278401922435
0.03787657645763829
0.03786126678111032
0.03797269396251068
0.03822086363099515
0.03882522791391239
0.039409666433930395
0.039109702408313754
0.03879428622312844
0.03923518664902076
0.03965402089525014
0.03974080616841093
0.04015163379721343
0.04016779283992946
0.03973356627626345
0.039672288801521065
0.03925809636944905
0.03867178117157891
0.03826730269007385
0.03845413647592068
0.03851773879025131
0.03802244251361117
0.03746528043644503
0.03730692472541705
0.03741846871795133
0.037461254161316904
0.037298844654578715
0.03732681760564446
0.037340726777911185
0.03756148854270577
0.03770029368577525
0.03771747871302068
0.03783529391279444
0.03790963219478726
0.03785530104069039
0.037853572219610214
0.03786368461558595
0.03787310779327527
0.03783457115991041
0.03757321552140638
0.03728242615936324
0.0371976910228841
0.03797860707854852
0.03969368827762082
0.041070663237478586
0.04079506411449984
0.041101287289056924
0.040992725864052774
0.04093570844270289
0.04083698804490268
0.04074307647766545
0.04104185847332701
0.041341571698430925
0.04138127187266946
0.0413791738729924
0.0412767295120284
0.04063667054288089
0.03982765034073964
0.03921149824280292
0.03957717800978571
0.039956293909344825
0.03989180442644283
0.039215154163539406
0.038776700759772215
0.03849491748027503
0.03818336686817929
0.038060286238323894
0.03801522910827771
0.03764013492269441
0.037628612243570385
0.03808289876673371
0.03808644895907491
0.038133786062244324
0.03769304816611111
0.0371381895779632
0.03667311785276979
0.03620213775197044
0.03569099927553907
0.03537220739526674
0.035727327920030805
0.036067868082318454
0.0362841744045727
0.036587756515946236
0.035669386577792464
0.03502718071686104
0.03518598197028041
0.035998557370621714
0.03713846946135163
0.037824399683158844
0.03763867003144696
0.03863161254208535
0.040261504629161206
0.041875545408111066
0.04240454727318138
0.0425281704030931
0.043496137398760765
0.04470272497972474
0.0448461950966157
0.044330085853580385
0.04385389604140073
0.04336808227468282
0.044203658995684236
0.04572470569051802
0.04671404706779867
0.0469142358074896
0.046264974644873294
0.04586854212684557
0.04598502012202516
0.04597843770403415
0.04583050482906401
0.04607962906593457
0.04639696498168632
0.04563216165173799
0.044763778268825265
0.04456482562469319
0.044569074655883015
0.044511386500671504
0.04470156055409461
0.04478634819155559
0.04399314237758517
0.04321904374519363
0.04329988437937573
0.04389194608433172
0.044551972984336316
0.045197928699199114
0.045741831448394804
0.046201863570604476
0.04651162423891947
0.04651310017798096
0.04657310487702489
0.047413216093555095
0.04821064139017835
0.048213478948455304
0.04802301697898656
0.04828270444180816
0.048543820411432535
0.04850779545959085
0.048635446154512464
0.04863489111186937
0.04894650232512504
0.04947426805039868
0.04956726229051128
0.04838537563569844
0.04652220128569752
0.045176853502634916
0.044922498101368544
0.04393645229516551
0.043623056020587685
0.043673223571386185
0.0443648408073932
0.04534907621098682
0.0458689050655812
0.0460496020084247
0.04622183470055461
0.046476417577359826
0.04725702825933695
0.047598089477978646
0.0471173727279529
0.047199981873855
0.04691514423582703
0.04636887224391103
0.046015524193644526
0.04591378860874101
0.04593476087553427
0.04596533641917631
0.045859957463108
0.04564808455528691
0.04563862790120766
0.045397341218777004
0.04514065784867853
0.04515960582531989
0.04562599290395156
0.046381572047248486
0.047316125156357886
0.0480481568351388
0.04830723094986752
0.04844422963215038
0.04872699564322829
0.049081836820114404
0.049433729769662024
0.049719416704028845
0.05000073770061135
0.0501435234141536
0.050471451806370166
0.05110893029021099
0.05149043564684689
0.05147960999282077
0.05134268905268982
0.051377617837861184
0.051943272515200076
0.05131243618670851
0.04973345701349899
0.04847304859897122
0.048736065118573604
0.0491883652843535
0.04782441139686853
0.04719599205302075
0.046940165900159626
0.0471440017526038
0.04779920453671366
0.04830102096777409
0.04718422246864065
0.046229980362113565
0.0460879179649055
0.04641116688260809
0.046447476868052034
0.04633510584710166
0.04657903890823945
0.04677479838486761
0.04670934975612909
0.04650489033898339
0.04594258910510689
0.046217548570130024
0.04636585714528337
0.04641242193290964
0.046607492303010076
0.04677188769215718
0.04666243757819757
0.04648371091578156
0.047401505287270995
0.04859560369281098
0.04877033032476902
0.04844681064831093
0.047764901607297364
0.047371217398904264
0.04742794180288911
0.047415658379904926
0.04701334256445989
0.047369007596280426
0.047544545766431835
0.04683329846709967
0.04604259899118915
0.046088983479421586
0.04620739242993295
0.04601705027744174
0.04601717679062858
0.046332372126635164
0.046026085030753165
0.045911510020960125
0.045428742815274745
0.045402104200329634
0.04579782546265051
0.046065362812951205
0.04633536599809304
0.0465876471879892
0.04722568318014964
0.04843815810279921
0.049029908503871414
0.049403790179640056
0.049924870352260765
0.049631021767854694
0.04855528072686866
0.048334876596927645
0.048212147855665535
0.04822080472484231
0.04798170309979469
0.04780744006857276
0.048180743905249984
0.049613674296997486
0.05120790436863899
0.05185197197133675
0.051940518370829525
0.052145036642905325
0.05198657102417201
0.05204900853103027
0.05202400875510648
0.05229877972044051
0.05288319665705785
0.05343937591882422
0.053153122272342444
0.05332727087661624
0.05393432792974636
0.05419766551814973
0.053592609954066575
0.0531125273834914
0.05328364891465753
0.053372353001032026
0.05323737832251936
0.05304710782831535
0.05234968098346144
0.051395336552523076
0.05079509060597047
0.05183659168658778
0.053447758357506245
0.05380083560477942
0.05295649772277102
0.053346338181290774
0.05401658463524654
0.05437705792719498
0.05466846865834668
0.05491970002418384
0.05494258761173114
0.05547846123576164
0.05533436180790886
0.054372220896184445
0.054709392196964475
0.054202720257453624
0.054161480497568845
0.054095741829369215
0.05325790176400915
0.052818942447192964
0.05315746618434787
0.052665045640897
0.05186074796598405
0.05186200669035315
0.052454318567179144
0.05250911069102585
0.052267659842036664
0.05235507599078119
0.053106813821941615
0.05366607923060655
0.05399429428623989
0.05371995879104361
0.054340564229059966
0.055116399810649454
0.05502421258483082
0.05613368802703917
0.05714194176020101
0.05721064677694812
0.05621000023093074
0.05557849709643051
0.05583179175388068
0.05561517159920186
0.05593140646116808
0.05607098708627745
0.055708024366758764
0.055350707964971664
0.05538448587525636
0.05492145629134029
0.054297840138897296
0.05393182291882113
0.05400288208387792
0.05385261847870424
0.05422973707551137
0.05534588520647958
0.05636434298940003
0.05662678031483665
0.056785439709201455
0.05692012774292379
0.057219859461765735
0.05692500614793971
0.05623700206633657
0.056321564007084816
0.05664407945470885
0.056701802518218755
0.056696333764120935
0.05701232205843553
0.058077577573712916
0.0585198191460222
0.057564940822776405
0.05774884512647986
0.0584341524541378
0.05820393119007349
0.058325275173410775
0.05871314755873755
0.05976108927745372
0.061029763624537735
0.0618223942629993
0.060720884129405024
0.05908160992199555
0.05890820127679035
0.05999292882159352
0.061142313035670665
0.061777480409946295
0.061643974022008476
0.061483440734446046
0.061392222836147994
0.061153514196630565
0.06121607281267643
0.062210717375855894
0.06251859515672549
0.06162512949900702
0.06082402181811631
0.06073408307973296
0.06067946454044432
0.061034559218678626
0.06180367844412103
0.06226821851683781
0.062107594022527336
0.06293775377329439
0.06449088014895096
0.06593912594486027
0.06536655898205936
0.06414820757927372
0.06466561469249427
0.065493390688207
0.06506876629777253
0.06419817230431363
0.06360186823876575
0.06407582034822554
0.06416942339856177
0.06413238187786191
0.06320482479874044
0.062402611018624154
0.06249332515290007
0.0621166185894981
0.06209773195907473
0.06227896141586825
0.06268858010647818
0.06346493157790974
0.06371119853807614
0.06344223943073303
0.06362790314946323
0.06423140808241441
0.06489428067347035
0.06519148119725288
0.06516676030121743
0.0661613279255107
0.06691021198173985
0.066365595695097
0.06531124009052292
0.0655171462520957
0.06621634629555047
0.06570412811357527
0.06548706578323618
0.06626289325300604
0.065221461544279
0.06418963750824332
0.06451997600961476
0.06512471896596253
0.06480974534293636
0.06424234798178077
0.06444490728899836
0.06441446405835449
0.06450580204371363
0.06470758044160903
0.06471344271209091
0.06538684194907546
0.06619234089273959
0.06685280682053417
0.0672970959218219
0.06722545236349106
0.06734939448535443
0.06689721645554528
0.06559786360710859
0.06442457624245435
0.06421208444982768
0.06432871182449162
0.06407973868539557
0.06453053500736132
0.06557489921804517
0.06669303300557658
0.0665721437614411
0.06658417847706005
0.06700184423243627
0.06642265184083954
0.0651894165109843
0.06387445229571313
0.06353372770128772
0.06360292447032406
0.062468099838588385
0.06221343729877844
0.06251766242086887
0.062396682403050366
0.06199874591082335
0.06061048045055941
0.05887030170997605
0.05836973402416334
0.05847326444229111
0.05842861741548404
0.05843228912446648
0.057828258068766444
0.056576865147799256
0.05647690970217809
0.05676935339346528
0.05681554047390819
0.0568833240121603
0.05677344971569255
0.05648172152694315
0.05572846800088883
0.05480783624108881
0.05462124779587611
0.054739954073447734
0.05512282245326787
0.05587644227547571
0.05614327457966283
0.05562093885149807
0.05531736813252792
0.05594324231846258
0.055806376624386755
0.05486135375453159
0.05366543463198468
0.05331960796378553
0.05279044329421595
0.05155355083756149
0.05140944907441735
0.05093931183684617
0.050351587946061045
0.05001121748005971
0.04885666957125068
0.04828177099814639
0.04871805445989594
0.049567758636549115
0.05030749380355701
0.050505851397756485
0.05079256302211434
0.05136885234154761
0.05125489137368277
0.05047857259633019
0.04994038429809734
0.050225560120306906
0.05063867749879137
0.05032817855710164
0.049976054730359466
0.04908625964773819
0.048353689785581085
0.04829556107288226
0.04733285599155351
0.04665973169263452
0.04636291135335341
0.04666742064524442
0.04702468836447224
0.04777896890416741
0.04942802873905748
0.049758607253897934
0.04892424552701414
0.04910299642011523
0.04974911047844216
0.05065805853111669
0.051577523306477815
0.05179145512869582
0.05258601168403402
0.05341449235565961
0.05327375925844535
0.052693817038089036
0.05255870674038306
0.05323324650293216
0.05342383229872212
0.053107190125156196
0.052755122135858985
0.05324161468772218
0.053829134083352985
0.05383535878732801
0.05375059399288148
0.053942596663255245
0.05417647792259231
0.05405022958759218
0.05414210274815559
0.054780535318423064
0.05444257026538253
0.0532803092431277
0.052300696955062446
0.05213676024228334
0.051707860794849694
0.051670288047753275
0.05248148852726445
0.052574397502467035
0.052183997703250495
0.051652042537461966
0.05135813157074153
0.05163165802601725
0.051487683111336086
0.0511809439631179
0.051130839737597855
0.05080079816048965
0.05053566279122606
0.05051864362787455
0.04997935386607424
0.04984641617862508
0.050240641725249585
0.04961951830657199
0.04908939204178751
0.049050633197184654
0.04849901831476018
0.04816478871041909
0.04881346827372909
0.049385301624424754
0.04958808704046533
0.049413538991939274
0.04994425563607365
0.05086755216820166
0.05147450051503256
0.051258793734014034
0.05100490130018443
0.05056102271890268
0.04997069230303168
0.050270765563473103
0.051002727437298744
0.05069340764777735
0.05043535703793168
0.04989367084344849
0.0503284935769625
0.05179356491658837
0.053562122012954204
0.054198031644336876
0.05360010477947071
0.054297433423344046
0.05579069609986618
0.05723505191272125
0.05873462507268414
0.06005986796692014
0.0604150268365629
0.05995923604350537
0.059437868110835554
0.05926436544163152
0.06013112389016897
0.06098842888372019
0.061513493217062204
0.061713381558656695
0.061542487835977225
0.06093643474625424
0.06075713533442467
0.0614585616113618
0.06137583875097334
0.0612293484271504
0.06172417648136616
0.06228355426574126
0.06244458698434755
0.06229933076305315
0.0622683789441362
0.06197614744305611
0.06113809076836332
0.05966266731731593
0.05786805158713833
0.056964450085069986
0.05747782995924353
0.057570690813008696
0.05685213161399588
0.05556353074498475
0.0543660754407756
0.054169531220104546
0.05331233369885013
0.05271827843505889
0.05308079895097762
0.05340535402996466
0.05309096072567627
0.052383137403521685
0.05150542449671775
0.05100451027275994
0.05073871332686394
0.049932222079951315
0.04961559014394879
0.049840838075615464
0.049927288913168014
0.0499783223005943
0.04962341012200341
0.049687317961361256
0.049791648956015705
0.049245759639889
0.048853356500621885
0.04889255833113566
0.048794638661202046
0.04878955586347729
0.048626582662109286
0.047939999862574044
0.047199889747425915
0.04695002236869186
0.04695596660254523
0.04694098100764677
0.04681775379227474
0.04668859315337613
0.04675152879441157
0.04714157042792067
0.04809560836059973
0.04928332189098
0.049951679992955175
0.0500518354633823
0.04996685594087467
0.0495535101252608
0.05008318152744323
0.05178310590563342
0.05319688328076154
0.05423520336160436
0.05476061728782952
0.05464317004894838
0.05497463257750496
0.055572149043437095
0.05597332726698369
0.0560482692043297
0.05600915416376665
0.05661856517894193
0.05655318251112476
0.057804348312783985
0.05932980657787994
0.059338321932591497
0.05905792848207057
0.058834287209901956
0.058927934733219445
0.05905635759467259
0.0588257413986139
0.05897786994231865
0.05825101027730852
0.05700306963641197
0.055827766456641253
0.05487998188938945
0.05490061985561624
0.05421058915788308
0.05257320664357394
0.05161551244091243
0.050260771822649986
0.05011709140380845
0.051260944046080115
0.05169203037628904
0.051736430330201984
0.05195282004307956
0.05077010442735627
0.04925165357301012
0.04850567083572969
0.048308862440753726
0.048084390982985496
0.048021342472638937
0.04793886290630325
0.047950103965122254
0.04900633643148467
0.05012187493499368
0.049860617604572326
0.049906067040283233
0.05102481643669307
0.051370545288082214
0.05185593471163884
0.05184699560049921
0.05379671677481383
0.05583160017617047
0.055856167054735124
0.056937679469119755
0.057333508413285016
0.057058043719735
0.057200114536099134
0.05756028583971783
0.05785109120886773
0.05809306724229828
0.05845584513386712
0.058274499780964106
0.05789441562257707
0.05782490225275978
0.057935753155034034
0.05807112956652418
0.058392630140297115
0.058370482767932115
0.05889738474972546
0.0594692994444631
0.059325914008077234
0.05913409953936934
0.05905033799353987
0.0591205572639592
0.05918940296862275
0.0591683292388916
0.05940214234869927
0.05992551008006558
0.06040488802595064
0.06050599168054759
0.06063402343541384
0.06057698809308931
0.060891409958712756
0.06143011109903455
0.06183884828351438
0.06231560273095965
0.06283622405026108
0.06298239290947094
0.06319798453245312
0.06393441280117258
0.06460662602912634
0.06434547616168856
0.06404373121913523
0.06421504242345691
0.06484583874931558
0.06541270533809439
0.06549579026410356
0.06593125141458586
0.06513624147046357
0.06347061601234599
0.06177250990411267
0.06072267188690603
0.060372881065122785
0.060375694571994244
0.05974120231578126
0.05892242430942133
0.05844017713796348
0.058269027501810344
0.057824981783051045
0.05617442480288446
0.05599405168555677
0.05586195015348494
0.05577974807471037
0.05650063883280382
0.05649148904019967
0.0566535186721012
0.0556143635045737
0.05522538859630004
0.055312645274680106
0.05569991809781641
0.05581771367229521
0.05501828037202358
0.05459411678370088
0.05493936854647472
0.05517813040409237
0.054976530638523396
0.05509020451689139
0.05450677698710933
0.054281505565159024
0.053030196824111045
0.05109961450565606
0.05023877002764493
0.05002076193224639
0.04962119923438877
0.04991449754219502
0.05032118498114869
0.050383033619727936
0.05038376145996153
0.05083653084700927
0.05172937662573531
0.05253636152716354
0.05241651460062712
0.05114873880986124
0.04959459799574688
0.04906075493665412
0.048601535563357175
0.04815286158118397
0.04987894083373248
0.05172202712623403
0.05243160214042291
0.051359446027781815
0.049963837917894126
0.04984266841085628
0.0488432335969992
0.04875711631961167
0.049417203825432805
0.04989029347430915
0.04993324231123552
0.04968094470677897
0.04920068983687088
0.04902809756109491
0.04884773242752999
0.048780102466698734
0.048977297241799535
0.049196107224561275
0.04901224922854453
0.04921779562020674
0.050118577494286
0.05012407874688506
0.049777524252422156
0.05083456773776561
0.05171217594994232
0.05189937772229314
0.05174339067423716
0.05188128192909062
0.05228470691014081
0.05163549531949684
0.05166574403643608
0.051641106258612124
0.051745152121875436
0.05195034516742453
0.05196312067331746
0.05152215663809329
0.051076896900776776
0.050592990964651106
0.0498474215879105
0.04921316388528794
0.04917402802966535
0.049025337223429236
0.04821347015211359
0.04731839268701151
0.04718534499872476
0.04663965985411778
0.045369130107574165
0.04408127786591649
0.043451070450246335
0.04339004744775593
0.042868707256857305
0.04271304164081812
0.042668168991804124
0.042665196880698204
0.042716621803119775
0.04262497892836109
0.04263538294006139
0.04233633862808347
0.041842669674661014
0.0416323935170658
0.041754222495947034
0.04149617209797725
0.04149309961358085
0.0409266962762922
0.039705842817202214
0.037938900936860594
0.036681050679180774
0.036535553014837206
0.03593248694203794
0.03596068259095773
0.03590023467084393
0.03558490166440606
0.03490158024709672
0.03443300414364785
0.03448518706252798
0.03428904263768345
0.03392205064883456
0.03375245040515438
0.03379202967742458
0.03374315337045118
0.03358894526492804
0.033547606896609065
0.033590630982071164
0.03360940671525896
0.03370662576984614
0.03367255818331614
0.03370807940606028
0.0333614933071658
0.032971053293440494
0.03291355587542057
0.032925496972166
0.032551737783942374
0.03173685078509152
0.030819260340649635
0.030156906582415103
0.029923461258877068
0.030042440195102244
0.030187565197702496
0.030124694895930587
0.029122177783865482
0.02675858634058386
0.024288037784863263
0.023682310115545988
0.022682571387849747
0.021807584397029133
0.02183327331673354
0.021741926816757767
0.020986823418643327
0.02005927306599915
0.019318655889946967
0.018747973991557955
0.018416407834738493
0.01845847629942
0.01837955133523792
0.01850662915036082
0.018591668468434363
0.018239177106879653
0.01790063185384497
0.017963092578575014
0.01739019206725061
0.016627691756002604
0.016258411284070462
0.01606442463118583
0.014842751738615333
0.013771582036279142
0.013681508207228035
0.013504606422502547
0.013266148834954947
0.012678973313886671
0.012757405871525407
0.012107023380231112
0.011703043093439192
0.011336625139229
0.01099741418613121
0.011218263735063374
0.01154679796891287
0.011630256036296487
0.011706059786956758
0.011891652503982187
0.012115191603079438
0.01212202496593818
0.012021798226051032
0.012005241673905402
0.012111046086065471
0.012230976677965372
0.012258179420605302
0.012187189892865718
0.012053481510374695
0.011887313972692937
0.011797254248522222
0.01176994392182678
0.011760350563563407
0.011788682381156832
0.011944774822331965
0.011973219357896596
0.011915737688541412
0.011884117929730565
0.011792441324796527
0.011661932840943336
0.011524193750228734
0.011454277930315584
0.011524731721729041
0.011681168475188314
0.011996027349960059
0.01234190461691469
0.012689077605027705
0.012985722990706564
0.013135842166375368
0.013139498524833471
0.013114358000457287
0.013105591516941786
0.013100150162354112
0.013190033624414354
0.013279841314069927
0.013239007066003979
0.013196851299144328
0.013358684044796974
0.013519848373252898
0.013585011074319482
0.013713047015480697
0.014018925947602838
0.014351702714338898
0.014546852579806
0.014644134612753988
0.01468910877360031
0.014665258000604808
0.014637658179271967
0.014689294293057174
0.014699224515352398
0.014622176317498087
0.01459417875856161
0.014597764336504043
0.014561578307766467
0.014580580529291183
0.014688376556150615
0.014703713804483414
0.01468405787134543
0.01456847763620317
0.014553626631386578
0.014786242197733373
0.015071340859867633
0.015199820464476942
0.015379123166203499
0.015837404171470552
0.0163007954810746
0.016470761918462813
0.016520676466170697
0.016701521596405654
0.016949088778346777
0.01705193726811558
0.016996776224114
0.01713484898209572
0.017365956383291633
0.01742404909338802
0.01724730049492791
0.0170839348109439
0.016936760514508934
0.017445267343427984
0.01846734784077853
0.0197131314012222
0.020542161350604146
0.020946192443370818
0.021047577417921275
0.02140637637116015
0.022446397126186637
0.02363840531790629
0.024644851319026204
0.025331120502669363
0.025861140838824213
0.026199645947199316
0.026327492997515946
0.02636684161843732
0.026437431424856186
0.026683830139227212
0.026907006038818508
0.026959695674013347
0.027034340864047407
0.02727681939955801
0.027507615748327226
0.027614849244710058
0.02779663821449503
0.028234946934971958
0.02884563719853759
0.02941724166739732
0.029826286230236292
0.030092174662277104
0.03028874538373202
0.030466503691859544
0.030643005615565926
0.030726172560825944
0.030746652991510928
0.030919623898807914
0.03109157474944368
0.031078185725491494
0.030997962555848062
0.03108439187053591
0.031111551488284022
0.031174594757612795
0.03126616157125681
0.03136466755764559
0.03152395332464948
0.03171575562795624
0.03176077512325719
0.031492170356214044
0.03147591419052333
0.031628940219525246
0.03171052904101088
0.031563179653603585
0.03157765320502222
0.03151860887883231
0.031774569416884335
0.032103772622067483
0.03217319251969457
0.03214086336782202
0.03232122399145737
0.032616529061924665
0.032646010140888394
0.03243698332225904
0.03225791346281767
0.03215344787575305
0.03200324339559302
0.031923050400801005
0.03200312465429306
0.032142481317277996
0.032183680683374405
0.03209135447395965
0.03228101393207908
0.03260272258659825
0.032942437243182215
0.0332646390190348
0.033561137306969614
0.03380169780459255
0.03392195694381371
0.03395490668015554
0.03409501679474488
0.0344103513029404
0.03451220934977755
0.03438798723975196
0.03428594524972141
0.034167341475840655
0.03404762945137918
0.03396984762279317
0.03372125703608617
0.03323218174511567
0.03277186401421204
0.03252258867491037
0.032400388338137416
0.032272609069477765
0.032169405929744245
0.03218221044866368
0.03228793201968074
0.03220152725698426
0.03200870025437325
0.03185587553540245
0.03178010412026197
0.03167370404582471
0.03171083002351224
0.03118730685673654
0.030068355184048413
0.02883337341947481
0.027848648575600238
0.027190376669168473
0.026960894663352518
0.02669174778740853
0.025818183585070074
0.02483606185298413
0.024223999101668597
0.023890721765346824
0.02356681484961882
0.02327078058384359
0.02314501555636525
0.023235662062652408
0.0234012405667454
0.023197067107539625
0.022768391403369604
0.02242590454639867
0.022223999814596027
0.021992890781257303
0.021696888289880006
0.021470958169084044
0.021276551340706648
0.02085640708450228
0.020247960907872765
0.019577238773927093
0.018956171360332518
0.018547427288722246
0.018335688926745208
0.018161076474934815
0.018157851647119968
0.018238197315949948
0.018310083125252275
0.018311020268592982
0.01843142891302705
0.018728629425168036
0.018985325742978603
0.018937967231031506
0.018932305111084135
0.01912835487164557
0.019431355933193117
0.01951167475664988
0.01944969781441614
0.019671421081293373
0.019999536611139776
0.020540939641650765
0.020799304239917545
0.020776354821864514
0.02058854767587036
0.020709914395119995
0.020915443422272802
0.021238619412761183
0.02130976033164188
0.02137661283602938
0.02154822352109477
0.021676183466333897
0.02163520713802427
0.02145585383987054
0.02127165558980778
0.02122304340591654
0.02119812327902764
0.02111468729097396
0.021055089151486753
0.020948698504362255
0.02069365290226415
0.020390231031924486
0.020289472581353038
0.02049428093014285
0.020578077151440083
0.02052457235287875
0.02035705400398001
0.020140422568656505
0.019948435358237475
0.01981836003717035
0.01969325206009671
0.019544667773880066
0.01941895085386932
0.01917189566185698
0.01895597674883902
0.018951326073147357
0.01891082204412669
0.01876349046593532
0.018635490883607417
0.018535340721718967
0.018505126319359987
0.01853571756510064
0.01864015484461561
0.018836634324397892
0.01902358069550246
0.01913541997782886
0.019189003626815974
0.01921437848592177
0.01921140696387738
0.019180421344935895
0.01917140242177993
0.019215628744568676
0.019230183409526945
0.019261325944680722
0.019340946301817895
0.01937839585589245
0.019398113456554712
0.01940750897396356
0.019427029353100807
0.019451549937948585
0.0194738061260432
0.019641575389541685
0.019932191311381756
0.02014243137324229
0.020128052602522074
0.019985315501689912
0.019907769234851002
0.019931186998728662
0.01990857142955065
0.019738893690519035
0.019518308364786206
0.019408780480735004
0.019422808180097492
0.019412517044693232
0.01927232240093872
0.019161718618124723
0.01906282767187804
0.018895144655834882
0.01873666754923761
0.018740938713308425
0.018761442699469624
0.018725664857774972
0.01872800400480628
0.018798156429547817
0.018939096874091774
0.01914030434563756
0.019141499311663212
0.019035178252961485
0.01894532036501914
0.018792518097907305
0.018511559814214706
0.018198560916353017
0.017999001713469624
0.01796411568066105
0.017948755137622355
0.017732397478539497
0.017330636840779335
0.017100341219920667
0.01694120792206377
0.016509117926470935
0.016156792014371604
0.015828494771849364
0.015387551435269415
0.015034341881982983
0.01504018738400191
0.015070391329936683
0.014862967166118323
0.014613335854373872
0.014375777856912464
0.014109481424093247
0.013833577437326312
0.013605181355960666
0.013420475290622562
0.013245528950355946
0.01309749842621386
0.013014154646079988
0.012983759285416454
0.012953587097581477
0.012871511413250119
0.01274684934411198
0.012666833552066237
0.012655118573457002
0.012610040574800222
0.012464120034128428
0.01227242523105815
0.0121265529980883
0.012050984748639167
0.011991642769426108
0.0119039468257688
0.01183416304877028
0.011885919456835837
0.011983358170837163
0.011924595921300352
0.011879791549872606
0.011883168239146471
0.011854355749674141
0.011816372291650622
0.01186843726085499
0.01195040122140199
0.012041841496247797
0.012077723520342261
0.012017198011744768
0.011919726787600666
0.011846292335540055
0.011757201235741376
0.011609067295212298
0.011460262946784497
0.011405167097691446
0.011466387840919197
0.011574899533297867
0.01164452038006857
0.011692441713530571
0.011810323547106236
0.011840589246712625
0.011763904432300479
0.011786421297583729
0.011797625075560062
0.011787383644841611
0.011780712485779077
0.01180904997047037
0.011869483271148056
0.011766938378568738
0.011460448529105634
0.011111932315398008
0.010892905301880092
0.010775592606514693
0.010667632250115276
0.01060717481886968
0.010650160685181619
0.010741595374420286
0.010808022329583764
0.010819497408811003
0.010772105583455413
0.010710977604612709
0.01070769373094663
0.010671306708827615
0.010654205556493252
0.010678071992006153
0.01070291998097673
0.010745558354537934
0.010838232340756804
0.010946772200986743
0.011041009011678397
0.011138348677195608
0.011245295207481831
0.011295279618352652
0.011228873650543392
0.011166404741816223
0.011169755186419933
0.011228314251638949
0.011211703976150601
0.011095582311972975
0.010982722050976008
0.01088471140479669
0.01086445787223056
0.010888010179623962
0.010890985461883248
0.010861092878039926
0.01082006270531565
0.010744488202035427
0.010605653794482351
0.010463418683502822
0.010406207947526128
0.010404939621221274
0.010386807271279394
0.010397292817942798
0.010492448969744146
0.010593767806421966
0.010593206831254065
0.010494188740849494
0.010387783087790012
0.010338846703525632
0.010329599021933972
0.01032877640798688
0.010366972147021442
0.010463425740599632
0.010542524273041635
0.010525721271988005
0.01045419234316796
0.010439904483500868
0.010509435008279978
0.010593709845561534
0.010665654218755663
0.010733820158056915
0.010762170592788606
0.010736395893618465
0.010704948564525694
0.010711946098599583
0.010745843953918666
0.010742023317143322
0.01067330534569919
0.010614614733494818
0.010639409127179533
0.010711942443158477
0.01075533950002864
0.01076367164729163
0.010764600350521505
0.010749497935175895
0.010723123957868666
0.010733757195994257
0.010804617188405245
0.010895936461165547
0.010951285206247122
0.010949307372793555
0.010908753867261112
0.010861951888073236
0.010821467896457762
0.010763674010522663
0.010645809376146644
0.010471696606837213
0.01031119995051995
0.01019225367344916
0.010101854423992336
0.01010222642449662
0.010145699249114841
0.010117181807290763
0.010147234448231757
0.01021226852433756
0.010237509293947369
0.010177556523121894
0.010065254343207925
0.009978877862449735
0.009902860820293426
0.009763965662568808
0.009587058392353355
0.009463916148524732
0.009428490186110139
0.0094643939496018
0.009540094377007336
0.009617214344907553
0.009729025824926794
0.009984583982732147
0.010362507586833089
0.010641471464186907
0.010678690783679485
0.010730408858507871
0.010692514365073293
0.010698672046419232
0.010668482799082994
0.010581079781986772
0.010466417483985423
0.010366708789952099
0.010299932884518057
0.01020927999401465
0.0100341193866916
0.009866320963483303
0.009861991452053189
0.009929296167101712
0.009938126280903816
0.00985508345765993
0.00983716690680012
0.009926043562591075
0.010010303198359907
0.01010000215144828
0.010137339897919446
0.010115071167238057
0.010124576457310469
0.010268671344965697
0.010513278937432915
0.010754643059335649
0.010941378539428115
0.01106613631825894
0.011124680708162487
0.011107168239541353
0.01098940122872591
0.010830867106560617
0.01070386229082942
0.010595278756227344
0.010506689390167594
0.010479082856327294
0.010585844963788987
0.010696431347168982
0.01077582323225215
0.010807055039331317
0.010739173928741366
0.01065960196312517
0.010607236337382347
0.010702249472960829
0.010840717398095875
0.01089983033016324
0.010908694425597786
0.010948782549239694
0.011007734471932054
0.01106074187438935
0.011130727310664952
0.011198990819975734
0.01121219526277855
0.011177693433128298
0.011141474086325615
0.011113200609106571
0.011077831732109189
0.011031069667078555
0.010967884650453926
0.010883825817145407
0.010809066265355795
0.010785860551986843
0.010811606396455318
0.01083593845134601
0.010805704575031995
0.010738849472254515
0.010729016077239067
0.01080963141983375
0.010882962157484143
0.010855450988747179
0.010770749368239194
0.010764686046168209
0.010901797085534782
0.011074337258469314
0.011147353369742631
0.011159321435261518
0.011225935544352979
0.01134826873196289
0.011440739368554205
0.011463269183877856
0.011495927341748029
0.011654679693747312
0.011900414349511265
0.012073002103716136
0.012144733178429306
0.01222597539657727
0.012321652472019195
0.012323947174008936
0.01223450158489868
0.012219832756090909
0.012267669716384261
0.01237736424896866
0.012455567554570734
0.01239064816152677
0.012189424699172377
0.012012300388887525
0.011922284844331443
0.011781258569099009
0.011543732567224652
0.011417172944638877
0.011557310207281261
0.011705580891575664
0.011945336491335183
0.012118054092861713
0.012216806737706065
0.012216340850573033
0.01224187912652269
0.012181720540393143
0.012126228518318384
0.012258191262371838
0.012533800413366407
0.012682483575772494
0.012573178419843315
0.012637913078069687
0.012834277339279651
0.013147813633549959
0.013433982182759792
0.013555966976564377
0.013559965055901558
0.013558421279303729
0.013598096929490567
0.013680708163883537
0.013751572095789016
0.01371732583269477
0.01358145116828382
0.013464713990688324
0.013429193862248213
0.013415598208084703
0.013395008321385831
0.013436513813212514
0.013596925158053637
0.013768184431828558
0.013838187961373477
0.013856172524392606
0.013908004509285093
0.014012632227968424
0.014042175665963441
0.013981754714623094
0.01389186806511134
0.01384346155449748
0.013861173160839825
0.013877024857793003
0.013866040888242424
0.013766969291027635
0.013728122289758176
0.013739794574212283
0.013748390909750014
0.013736552242189646
0.013728882747236638
0.013745971953030676
0.01378602762008086
0.013827099546324462
0.013836089437827468
0.013813153812661768
0.013806459465995432
0.013840037889312953
0.01386061767814681
0.01382466912502423
0.013810891881585121
0.013793930567335338
0.013809367949143052
0.01382103280397132
0.013785886946134269
0.013755218675360083
0.01375777406617999
0.013755185934714973
0.013734113802202045
0.01373959843069315
0.01381518411450088
0.013960762824863195
0.014117313162423671
0.014180816821753978
0.014107319815084339
0.013991585629992188
0.013954328254330904
0.013983014482073486
0.013964524150360376
0.013834924146067351
0.013679462161380797
0.013567407683003694
0.013463908191770315
0.013263272831682115
0.012968704868108034
0.012721354442182928
0.012601006857585162
0.012586046832147986
0.012665197362657636
0.01282941886689514
0.013030941295437515
0.013183909840881825
0.013338349987752735
0.013427425529807807
0.01347402340732515
0.013582220047246664
0.013778195497579873
0.01390492712147534
0.013834045184776187
0.013691962924785911
0.0135568232787773
0.01347022705944255
0.013325394517742097
0.013126784542109818
0.012887718924321234
0.012730253604240715
0.012730503859929741
0.012872239861171692
0.012976325543131679
0.013133013737387955
0.013201701901853085
0.013008503718301654
0.012725711124949158
0.012681833116803319
0.012915805298835039
0.012938234272878617
0.012843551037367434
0.012696617438923568
0.012616614671424031
0.012657579889055342
0.012698951005004346
0.012628939792048186
0.01270885294303298
0.01295073634479195
0.01322318879654631
0.013330971258692443
0.013222365269903093
0.013271674974821507
0.013380126955453306
0.013522051402833312
0.01362946160370484
0.01364676931174472
0.013600934215355664
0.013470423617400229
0.01338912159902975
0.013394769674632698
0.013311928373295813
0.013267672329675406
0.013317523477599024
0.013457648970652372
0.013561964924447239
0.013606519687455148
0.013683900244068355
0.01378795645199716
0.013929003635421395
0.014072025956120343
0.014116203307639807
0.014127290742471814
0.01415799259673804
0.014193830469157547
0.01419059770181775
0.014127219060901553
0.014038563994690776
0.013964471702929587
0.013893230569083244
0.013806965514086188
0.013713254036847502
0.013624828576575964
0.013582370027434081
0.013614320559427143
0.013630111287347972
0.013656055466271936
0.013666837562341242
0.013671372081153094
0.013708235160447658
0.013823018833063543
0.014037305118981748
0.014269241609144955
0.014403695785440505
0.014403284136205912
0.014297778313048183
0.014139092157129197
0.013989152733702213
0.0138888625591062
0.013829791704192757
0.013793405701871961
0.013775108670815826
0.013759128160309046
0.01374446260277182
0.013766191427130252
0.013796274913474918
0.013818608978763223
0.013846945718396455
0.013896847984287888
0.013953137609642
0.014016552774701268
0.01411150622414425
0.014179593457374722
0.014127420901786536
0.014002223541028798
0.013935155055951326
0.013921861569397152
0.013840789620298893
0.013683846520725637
0.013571852452587336
0.013527931978460401
0.013491972561459988
0.013502864954061807
0.013598130182363093
0.013655280468519777
0.013681969954632223
0.013648871395271272
0.013673658184707164
0.013821983656380326
0.01394773913314566
0.013936266319360584
0.01401110876351595
0.014010886205360293
0.013847467072773725
0.013662222665734589
0.013648536342661827
0.013771541526075452
0.01384344810852781
0.01380794633878395
0.013746360137593
0.013690338640008121
0.013614683928899467
0.01351753406226635
0.01341376649448648
0.013334515492897481
0.013326394106261432
0.013395947271492332
0.013276329648215323
0.01298297434579581
0.01263842464890331
0.012459181274753064
0.01253044871147722
0.012418978854548186
0.012187126744538545
0.011946191873867064
0.011785091143101454
0.0116721633519046
0.01155958728166297
0.011527573368512093
0.01150263668037951
0.011470581830944866
0.011547615355812012
0.011519647473469376
0.011369430241174996
0.011250420096330345
0.011249220434110611
0.011312803996261209
0.011343383265193551
0.011295492162462324
0.011195656477939337
0.011111858286894857
0.011063874457031489
0.011017369616311043
0.010960246622562408
0.010900299174245447
0.010857545642647893
0.010860577416606247
0.010878905532881617
0.010858340279664844
0.010826030671596527
0.010838233509566635
0.010887808131519705
0.010936546437442303
0.010967856340575963
0.010989930862560868
0.011027761902660131
0.011092817424796522
0.011178824917878956
0.011309838367160409
0.011484112488105894
0.011601377737242728
0.011597150813322514
0.011543146597687156
0.011513835394289344
0.011461046759504824
0.011330736989621074
0.011460758550092577
0.01169957325560972
0.011791484334971757
0.011699173229280858
0.011686711760703475
0.011727265655063093
0.011814232468605041
0.011929985443130136
0.012061245755758137
0.012207942854147405
0.012347929901443422
0.012428416116163134
0.012441684703808277
0.012439025619532912
0.01243828471750021
0.012406292192172258
0.012345401851926
0.0123016502475366
0.012280720418784767
0.012252411809749902
0.012237072593998165
0.012295476053841412
0.012387165396939964
0.012356551114935428
0.012177511109039188
0.012022003242745995
0.011982144217472523
0.011973425496835262
0.011932418197393418
0.011904500336386263
0.011982894130051136
0.012112639788538217
0.012123491654638201
0.012112579373642803
0.012152127174194902
0.012083097184076906
0.012064458022359758
0.01214464711258188
0.01222936503123492
0.012210639943368733
0.012072455557063221
0.011905816185753792
0.011752849090844392
0.01163355941651389
0.011659996865782887
0.011791577823460101
0.011920246549416334
0.011967907026410103
0.011954697996843606
0.011936570685356855
0.011931601145770401
0.011923256742302329
0.011886629089713097
0.011829902280587702
0.011793351953383536
0.01177751125069335
0.011756432408001274
0.011741286064498126
0.011731223997194319
0.011700958868023009
0.01168124936055392
0.01174572138581425
0.01191981194075197
0.012138653290458023
0.012321154300589115
0.01249841354554519
0.012751770198810845
0.012995408868882806
0.013035515723749995
0.0129329878767021
0.01289842501282692
0.013014347676653415
0.013294648020528257
0.013514289269223809
0.0135183211020194
0.013461420007515698
0.013433751589618624
0.013399967069271951
0.013604092577006668
0.01386433478211984
0.013978618567343802
0.013974925158545376
0.013995564854703844
0.014068966310005634
0.014119812038261443
0.014121286487206817
0.014130709085147828
0.014182905401103198
0.014235729502979666
0.014249284085817635
0.014241799130104482
0.014245656109414995
0.014263403806835414
0.014257242656312882
0.01417631445452571
0.014036502402741463
0.013918767964933068
0.013861077316105365
0.013875335389748215
0.01398246296448633
0.013871423341333866
0.013685287716798484
0.01359276125440374
0.013592455028556287
0.013526019386481493
0.013428931178059428
0.013422468828503042
0.013408134984783828
0.013336058203130961
0.013246663031168282
0.013183039741124957
0.013142871912568807
0.01310754919424653
0.013104777932167053
0.013177112306002527
0.013268719832412899
0.013280273240525275
0.013243291864637286
0.013284373469650746
0.013419007288757712
0.013501794086769223
0.013413265817798675
0.01324732057750225
0.013214669865556061
0.013335242732428015
0.013407943472266197
0.013339801304973663
0.013264262480661274
0.013287566690705717
0.013339779432862997
0.013317233810666948
0.013219684993382544
0.013121726631652564
0.01309546859236434
0.013151447987183928
0.013244202490895987
0.013343231675680727
0.013434390984475613
0.013489673952572048
0.013516904714051634
0.013584249299019574
0.01369816013611853
0.013834082349203526
0.0139149275328964
0.01379303173860535
0.013688913204241544
0.013562797373160719
0.013363237087614834
0.013275686104316264
0.01325625142082572
0.01324282982153818
0.013286052010953427
0.013498532129451632
0.013834590271580965
0.014085760861635209
0.014159081079997122
0.014172516260296107
0.014210950857959688
0.014216424997430295
0.014141906453296542
0.014088667833711953
0.014080980925355107
0.014000836904160678
0.013742520774248987
0.013618239618372172
0.013632725020870566
0.013627194196451455
0.013514469377696514
0.013420215675141662
0.013447146837133914
0.013364510165993125
0.013246690933592618
0.012982278938870877
0.01272073008818552
0.012631668411195278
0.012655211687088013
0.012739871013909578
0.01286624959204346
0.012725819798652083
0.012418521775398404
0.012205261215567588
0.012063475395552813
0.012011202243156731
0.012092690854333342
0.012216077074408532
0.012272307951934635
0.012244238907005638
0.01220755834132433
0.012223844795953483
0.01227593761170283
0.012306104884482921
0.012280337673146277
0.012186122816056013
0.012059190906584263
0.011988880969583988
0.011977776144631207
0.011934645387809724
0.011853148215450346
0.01180553637444973
0.01179522599093616
0.011767118831630796
0.011713081002235413
0.011692971060983836
0.011729974516201764
0.011755919740535319
0.011822815155610442
0.011815349068492652
0.011783198292832822
0.011769018380437046
0.011808565214741974
0.011900950795970857
0.01198255541967228
0.012026669967453926
0.012055639300961048
0.012054656581021846
0.012035965013783425
0.012065681447274983
0.012114384009037167
0.012061682639177888
0.011895189438946544
0.011742879319936037
0.011682322793640197
0.011656713599804788
0.011607991079799831
0.011578621522057802
0.011656135783996434
0.011853113372344523
0.012052900637499989
0.012134612412191928
0.012119220569729805
0.01207644941052422
0.011989745465107261
0.012012545741163195
0.012034017383120954
0.011901891834568232
0.011771987196989358
0.01173382087610662
0.011902979686856269
0.012287135382648558
0.012741169417276979
0.01310366266174242
0.013299348559230565
0.013343884956557304
0.013321485735941678
0.013333718834910541
0.013582729799672962
0.014244123506359755
0.015106819996144622
0.015481346189044416
0.015451021681074054
0.015625759849790484
0.01569714843761176
0.015584662524051964
0.015357325277291238
0.015173110007308423
0.015135518389288337
0.01519110606983304
0.01522664438933134
0.015203214844223111
0.015194111070595682
0.015225810818374158
0.015298893274739385
0.015419453305657953
0.015617443330120296
0.01563127830158919
0.015503394927363842
0.015374624403193593
0.015398262890521437
0.01558968047844246
0.015766212507151066
0.015955458304379135
0.016016783397644757
0.016085966140963137
0.016240893630310893
0.016408023927360772
0.016475113888736813
0.016423559358809143
0.016300645149312912
0.016183607946150005
0.016173701563384383
0.016184078671503812
0.016202079721260816
0.016128256253432484
0.015941089855041356
0.015775163697544486
0.015699842115864157
0.015671517131850124
0.01563248206395656
0.015608285060152412
0.01564355657901615
0.0157011958071962
0.015730579379014672
0.01575589147163555
0.015774862773250787
0.015714147465769202
0.01560190515127033
0.015578041062690317
0.015651621872093527
0.015673766951076685
0.015592999083455652
0.015526653481647373
0.015561726589221508
0.015654566620942206
0.0157324104080908
0.01576376552693546
0.015739314407110214
0.01568552277283743
0.015663468844722958
0.015693551555741578
0.015718224346637725
0.01568317648721859
0.015620489455759525
0.015590566918253898
0.015595659967511893
0.015604691992048175
0.015613477344159037
0.015647285382729022
0.01572307195747271
0.015819831250701098
0.015880680000409483
0.015875428174622355
0.015844772616401315
0.015838671904057265
0.015810660922434182
0.015734879330266266
0.015576146368402988
0.01533575620735064
0.015107083071488886
0.015006003349553794
0.015054045068100095
0.015202583579812199
0.015401506689377129
0.015411125058308243
0.015347941145300865
0.015432011322118341
0.015515812803059817
0.015472201574593782
0.015195754168089479
0.014712028396315873
0.014179033006075769
0.013785564289428294
0.013600132239516824
0.013516745667438955
0.013439982852432877
0.013408698600251227
0.013145169501658529
0.01255569608649239
0.011888894902076572
0.011658336992841214
0.011810111131053418
0.011728888240177184
0.011646821070462466
0.01159902936546132
0.011598469107411802
0.01161089402390644
0.011564215244725347
0.011477485338691622
0.01145423605805263
0.01154177899705246
0.011651207469403744
0.011644262266345322
0.011488071139901877
0.01127138917101547
0.011088098171167076
0.01097161996876821
0.010905664432793855
0.010850384295918048
0.010771741115022451
0.010658408992458134
0.010524408870842307
0.010395741735119373
0.010299985082820057
0.010256334012374281
0.010249030096456408
0.010228219272103161
0.010167162104044109
0.010119761424139142
0.010147910206578672
0.010193392774090171
0.010152958733960986
0.010138430448714644
0.010089687069412321
0.010137157822027803
0.010198468186426907
0.010176099801901728
0.010155199419241399
0.010159430305939167
0.010317204429302364
0.010491304215975106
0.010558249517343939
0.010582820167765022
0.010641254941001535
0.010681891369167716
0.01065404728287831
0.010615830200258643
0.010638750679790974
0.010700762162450701
0.010786049962043763
0.010954047427512706
0.011149276404175908
0.011160346728283912
0.011208284543827177
0.011267269623931497
0.011253400484565645
0.011250226164702327
0.011380551476031541
0.011488474698271602
0.01147761485306546
0.011664561638608574
0.011764243422076106
0.011762961074709892
0.011845665439032017
0.012024730672128498
0.01214230245212093
0.012130032570566981
0.012074165921658277
0.012050365714821964
0.012031187256798147
0.01198154065059498
0.011943055444862693
0.011971725455950946
0.012053795752581208
0.012122339489869773
0.01219253527931869
0.01229888799134642
0.012463271643500775
0.012632603126112371
0.012755897173192352
0.01283906384371221
0.012868574822787195
0.012799319040495902
0.012682899651117623
0.012654428463429212
0.01271255822852254
0.012712233520578592
0.012618901431560517
0.012522360042203218
0.012449858651962131
0.012400582297705114
0.012404870006721467
0.012392236164305358
0.012303228799719363
0.012189606423489749
0.012271056789904833
0.012489093036856502
0.012721722892019898
0.012883286925498396
0.012903924111742526
0.012786173687782138
0.012664330943953245
0.012659434909000993
0.012732260604389012
0.01276434856466949
0.012718232416082173
0.012659004505258054
0.012631939419079571
0.012591878739185632
0.012498897688928992
0.012393549482803792
0.012328201225027442
0.012301953844726085
0.012288889517076313
0.012285343911498785
0.0122796515468508
0.012218575559090823
0.0121127409953624
0.012072097056079655
0.012122954912483693
0.012164319709409028
0.012163967625238001
0.012198676869738847
0.012273749660234898
0.012291196796577425
0.012230443684384227
0.012188720870763064
0.012210287812631577
0.012223606968764216
0.012181940726004542
0.012165377237834037
0.012272410299628974
0.01237114632036537
0.012491636502090842
0.012471294577699155
0.012398268287070096
0.012422859494108707
0.012484082623850555
0.012521357373334468
0.0123711321153678
0.012167285324539989
0.012060132627375424
0.012041386337950826
0.012051383752841503
0.012087517203763127
0.012171794883906841
0.012266820387449116
0.012285223745275289
0.012203576159663498
0.012062461453024299
0.011919443011283875
0.01190016278065741
0.012088470221497118
0.012061425580177455
0.011865760569926352
0.01179539859527722
0.011826106358785182
0.01170136314118281
0.011521530381869524
0.011460553219076247
0.011238340840209275
0.0111187002225779
0.01113941557938233
0.011143312309868633
0.011076142566744239
0.011024589007720352
0.011005943096242844
0.010932715237140655
0.010834037763997913
0.01069599128793925
0.010563337178900838
0.010467617569956929
0.010397242908366024
0.010429272390902043
0.010540121751837432
0.01063233174616471
0.010632578793447464
0.0105619577341713
0.01049160671653226
0.010464713380206376
0.010472728325985371
0.010505287339910865
0.01058331093750894
0.010676513179205357
0.010700718795415015
0.010668341694399714
0.010667608277872205
0.010698455257806928
0.010706355525180698
0.010710987076163293
0.010750560695305467
0.010794193453621119
0.010829258516896517
0.010861829514615238
0.010936616386752576
0.010917789039667695
0.010779504755046219
0.010560007754247636
0.01038221296388656
0.010334558456670494
0.010381572798360139
0.010433276877738535
0.010446788801345974
0.01041661978000775
0.010350059904158115
0.01029306268086657
0.010300481060985476
0.010374517163727432
0.010475795166566968
0.010561497875023633
0.01059819718124345
0.010578952881041914
0.01054148365277797
0.010544637818820774
0.01061363740125671
0.010732069509103895
0.01087798842927441
0.011022789280395955
0.011125019129831343
0.011190434161107987
0.011296417450066655
0.011484115975908935
0.011665057493373751
0.0116568188322708
0.0116749980696477
0.011965683167800308
0.012121074870228767
0.012063782101031394
0.012189065518323333
0.012284302981570364
0.012299604394938797
0.012271554286126047
0.01222443489357829
0.01217211242299527
0.012124699768610298
0.01209043285343796
0.012071702787652612
0.012038168802391738
0.011972960263956339
0.011953100282698869
0.012044421436730773
0.01216816959902644
0.01222066966816783
0.012224439377896489
0.012239406614098699
0.012240158966742456
0.012201815468724817
0.012187955772969872
0.012247934357728809
0.012323815550189465
0.012309604999609291
0.01217582031385973
0.012037524140905588
0.012033179635182023
0.012118093159515411
0.012141267396509647
0.012111772019416094
0.012148815994150937
0.01224419592646882
0.012299977522343398
0.012293353618588299
0.012270197102334351
0.012260745670646429
0.012257316135801374
0.012227575955912472
0.012171775717288256
0.012175617062021048
0.012293884449172765
0.012396165966056288
0.012489728541113436
0.01259009591070935
0.012676237183623016
0.012731772689148784
0.012678105081431568
0.012577228960581124
0.012548099055420607
0.012612309087999166
0.012685339560266583
0.012711078815627844
0.012690398569684475
0.012607251571025699
0.012447144179604947
0.01227321548620239
0.012184485679026693
0.012184298641514033
0.01218719272641465
0.0121699710492976
0.012196637876331805
0.012315421532839536
0.012494881765451282
0.012616298119537532
0.01258812308544293
0.012490305183455348
0.012467239471152424
0.012516479941550642
0.012548686321824789
0.012565980274230242
0.012598307812586427
0.01258801250020042
0.012527110658120365
0.012519073146395386
0.012560951244086026
0.012537667551077903
0.01246839011553675
0.012466324537526816
0.012518776773940771
0.012535947039723397
0.012503791893832385
0.012453760963398963
0.012421413601841777
0.012492577824741603
0.012723015253432095
0.012971414146013558
0.012993485403712838
0.012997599488589912
0.0129058883828111
0.01288136058486998
0.012923921630717814
0.01285171637777239
0.012692557787522674
0.012565999736543744
0.012448002167511732
0.0123010721988976
0.012297395875211805
0.012273533958941698
0.0119566404633224
0.011742471302859485
0.011768632335588336
0.01164481210988015
0.011492458546999842
0.011455275153275579
0.011493508517742158
0.011541497772559523
0.011518457217607646
0.011538563785143197
0.011603017651941628
0.011632014764472842
0.011709992471151055
0.011961611739825457
0.012291736684273928
0.012536103702150286
0.01274718989385292
0.013036724992562086
0.013328116689808666
0.013450454021804035
0.013298027201090008
0.013582023859489709
0.014098900242242963
0.014441528753377498
0.014505643679294735
0.014486411984544248
0.014441536273807287
0.014435794369783253
0.014544410679955036
0.014690800837706774
0.014804874693509192
0.01486467257142067
0.014910048863384873
0.014982611227314918
0.01506444126367569
0.015145641712006181
0.01524730126839131
0.015341058699414134
0.015390418632887305
0.015420093932189047
0.015439711611252278
0.015419139342848212
0.015385974464006722
0.015414027387741953
0.015506631764583289
0.015591260120272636
0.015613929394166916
0.015594422395806759
0.015591658251360059
0.015601069736294448
0.015542850536294282
0.015402706223540008
0.015269901177380234
0.015184741301927715
0.015110526031348855
0.015080751774366945
0.015160889197140932
0.015301040187478066
0.015413436882663518
0.015488063716329634
0.015543536823242903
0.015562767935916781
0.01551753172185272
0.015422069886699318
0.015330143771134317
0.015294794482178986
0.015316101282369345
0.015323488337453455
0.015272623284254223
0.015218374447431415
0.01522718505235389
0.015274929113220424
0.015292078945785761
0.015255693921353668
0.01515598786296323
0.01502306351903826
0.014882154949009418
0.014888966926373542
0.015001139829400927
0.01509421986527741
0.01514484486542642
0.01520142934517935
0.01525562024442479
0.015243344807531685
0.015163565569091588
0.01497541117016226
0.014741205153986811
0.014589041853323579
0.014654160211794078
0.014666830971837044
0.014725479832850396
0.014710153269115836
0.01461444782325998
0.014564963476732373
0.01451471721753478
0.014391918240580708
0.014283484821207821
0.014299005144275725
0.014385861458722502
0.014448970218654721
0.014503810564056039
0.014584987943526357
0.014636365605983883
0.014607195509597659
0.014598896680399775
0.014601356068160385
0.014609473564196378
0.014559637519996614
0.014522852443624288
0.014466115408577025
0.014446587627753615
0.01449853507336229
0.01452136856270954
0.014405369695741682
0.014133442044258118
0.013776350526604801
0.013393978404346854
0.013010552113410085
0.01266603647498414
0.012453248053789138
0.012537511975970118
0.012310456964187325
0.011937414654530585
0.011705654815305024
0.011685866639018059
0.011708238876890391
0.0117069551628083
0.011637792061083018
0.011523481369949877
0.01149050378240645
0.011506316321901976
0.011461492502130568
0.011347757678013295
0.011253681262023746
0.011216954826377332
0.01116269053891301
0.011017093483824283
0.010813562965486198
0.010618080047424882
0.010456181068439036
0.010376618434675038
0.010426751151680947
0.01052254282636568
0.01051347253844142
0.01039143963251263
0.010280174436047673
0.010247240473981947
0.010258188117295503
0.010258727374020964
0.010229380670934915
0.010208850735798478
0.010250194396357984
0.010335836869198829
0.010428336297627539
0.0105533734918572
0.010713778946083038
0.010863180379383266
0.010964575388934463
0.01094578320859
0.010802597503643483
0.010723786891903729
0.010848739426583051
0.011008231244049966
0.010902577431406825
0.010999778588302433
0.010981466276571155
0.01096553549170494
0.010955343041568994
0.011068640078883618
0.011052423499058932
0.010967936920933426
0.01086047318065539
0.010737180574797094
0.010746306532528251
0.010935864432249219
0.011142834152560682
0.011311546943616121
0.011373568628914654
0.011358917683828622
0.011341265903320163
0.01138313957490027
0.011463568191975354
0.01155146784381941
0.011676983828656375
0.011795432886574418
0.011883697882294654
0.011918454526457935
0.011942011639475822
0.011950543150305748
0.011904112133197486
0.01181370394770056
0.011735718965064734
0.011718572329264133
0.011774027463980019
0.011863791735377162
0.011920133642852306
0.011919196541421116
0.011879030093550682
0.011803079706151038
0.011715674949809908
0.0116721763741225
0.011689651317428797
0.011763987776357681
0.01190201229415834
0.012042573289945721
0.012080971377436071
0.012038450287654996
0.012045050840824842
0.012120403435546904
0.012187006410676986
0.012152150785550476
0.012037573789712042
0.011880009579472243
0.011799955102615058
0.011816464376170187
0.011851022280752658
0.011857012540567667
0.01185114034684375
0.011837729658000172
0.011810016520321369
0.011784933081362397
0.011764360920060425
0.01170881174504757
0.011593471488449723
0.011480309953913092
0.011480250679887831
0.01159518896136433
0.011679272947367281
0.011625823897775263
0.011504390514455736
0.011440151860006154
0.011440666059497744
0.011425481461919844
0.011360851668287068
0.011291209950577467
0.011281622450333088
0.011358061383944004
0.011475064367987215
0.011564629478380084
0.011604886041022838
0.011593928996007889
0.011528017290402204
0.011440493492409587
0.011376932270359248
0.01134575303643942
0.011345683664549142
0.011375605494249612
0.011406578137539328
0.011435921664815395
0.011530394728761167
0.011704675548244267
0.011834138825070112
0.011798596321605147
0.011664495351724327
0.011561239995062351
0.01144239307846874
0.011374983584973962
0.011285115752834828
0.011173063376918434
0.011139828676823527
0.011188639779575169
0.01114744103513658
0.010992737845517695
0.011025308335665613
0.010911465133540332
0.010988816826138646
0.011094917391892523
0.011202705812174828
0.01113742871209979
0.011109847591724247
0.011110491042491049
0.01116545831086114
0.011274718241766095
0.011260953571181745
0.011062119707930832
0.01086986878188327
0.010685678976587952
0.010630809331778436
0.010687356221023948
0.010760712311603129
0.010770823559723794
0.010729328712914139
0.010671876915730537
0.010613674691412597
0.010593595660757273
0.010644846560899169
0.010715255760587752
0.010723956867586822
0.010696094813756645
0.010728523181751371
0.0108203816274181
0.010868306627962739
0.010823698290623724
0.010728143986780196
0.010641944368835539
0.010600414825603366
0.01057893484365195
0.010536259871441871
0.010495022754184902
0.0105087591544725
0.01058272757800296
0.010653883202467114
0.010649721657391637
0.010584280898328871
0.010557559237349778
0.010616290788166225
0.01067462450126186
0.010652146460488439
0.010598046653904021
0.01057969121960923
0.010578267991077155
0.010580500543583185
0.010600634778384119
0.010643931578379125
0.010670278726611287
0.010660326157230884
0.01061521854950115
0.010578736388124526
0.01060174375306815
0.010648202504962683
0.010647526662796735
0.010623440737836063
0.010648509860038758
0.010710432529449462
0.010727923780214041
0.010683763432316482
0.010653619705699384
0.010683402305003255
0.010728917603846639
0.010732704573310912
0.010703396589960903
0.01072380020050332
0.010842533973045647
0.010987473237328231
0.011076152955647558
0.011090867999009789
0.011015846885275096
0.010871112826280296
0.01076219683745876
0.01076398381497711
0.010812396330293269
0.01080807960126549
0.010793162027839571
0.010882813860662281
0.011035358982626349
0.011108392926398664
0.011102497389074414
0.01111310517648235
0.011142735576722771
0.011136123640462757
0.0110950934025459
0.011078139112796634
0.011132541142869741
0.011187886148691177
0.011185371519532054
0.011256414521485568
0.01120183034101501
0.011028866420965643
0.011108707818202675
0.011267761704511941
0.011288399992045015
0.011241888504009694
0.011311153094284236
0.011420553817879408
0.011408865773119033
0.011337689869105817
0.011303155235946178
0.011269699265249074
0.01124850332736969
0.01131091234041378
0.011405437018256635
0.01139291875064373
0.011322422055527567
0.011322669258806855
0.01132805121364072
0.011418924448080361
0.011534560231957584
0.011489419187419116
0.011352740377187729
0.011228793039917946
0.011134606152772904
0.011070832493714988
0.01106168598169461
0.01108581357402727
0.0110886351717636
0.01105489764129743
0.01101353913778439
0.011000772146508098
0.011014053013641388
0.011007283527869732
0.01097409708192572
0.010976706319488584
0.011040955111384391
0.011112877684645354
0.011160301687195897
0.011235903175547719
0.0113667525886558
0.011461576020810754
0.01145040655042976
0.011386566378641874
0.011319406523834914
0.011238561514765023
0.011156484563834966
0.011106920153833926
0.011072388836182653
0.011005009564105422
0.010923552745953202
0.010890827644616366
0.010901413748506457
0.010916281011886894
0.010972076384350658
0.011070567262358964
0.011181198789272458
0.011198450778611004
0.011203631232492626
0.011271081822924316
0.011341371654998511
0.011345609438139946
0.011310681463219225
0.011299649451393634
0.011323890162166207
0.011347094702068716
0.011333705659490078
0.011281368222553283
0.011231951285153627
0.011215457590296865
0.011203773813322186
0.011185622371267528
0.01119857952464372
0.01123576078331098
0.011225357321090996
0.011115247749257833
0.010965072461403906
0.010798742019105703
0.01071474727243185
0.010782329856883734
0.010975136938504874
0.011177637269720436
0.011271933615207673
0.011254639169201254
0.011223903754726053
0.01123180632479489
0.011210087731014937
0.011096414355561137
0.010983351257164032
0.010996333023067564
0.011073113328311592
0.011079555118922144
0.011027306714095176
0.010972835663706064
0.010875636397395283
0.010702461167238653
0.01053975596325472
0.010524527279194444
0.010634259306825697
0.010685623551253229
0.01070558666717261
0.010779468340333552
0.0107097627222538
0.010694768377579749
0.010779198515228927
0.010820883675478399
0.010758550008758902
0.010677737421356142
0.010640319983940572
0.010628288723528384
0.010634226046968252
0.010671136849559844
0.010708269469905645
0.010713114913087338
0.010738401834387332
0.010875663459300995
0.011058101109229028
0.011175873749889433
0.011278080591000616
0.011165380615275354
0.011037405880633741
0.010933885101694614
0.01083823699504137
0.010810441244393587
0.01087717935210094
0.010945933505427092
0.010920675050001591
0.010827934823464603
0.010744879245758057
0.010707167719956487
0.010703209701459855
0.010705217418726534
0.01069514118367806
0.010671200721990317
0.010649104870390147
0.010656042965129018
0.010708588815759867
0.010796018859837204
0.010879834035877138
0.010904707573354244
0.010856585467699915
0.0108079655142501
0.010815223732497542
0.01082510199630633
0.010787384284194559
0.010745240470860153
0.010745898473542183
0.010767368844244628
0.010750949189532549
0.010690698213875294
0.010673338442575186
0.010751291867345572
0.010850271687377244
0.010903794690966606
0.010936834691092372
0.010963436993770302
0.010952200063038618
0.010885375693906098
0.01077699705492705
0.010682486311998219
0.01067870894446969
0.010769354456569999
0.010875155029352754
0.010946549973450601
0.010983804892748594
0.010974718481302262
0.010930653698742389
0.010917314509861172
0.01095018814317882
0.010965843417216093
0.010950736540835351
0.010962541666813194
0.011005745548754931
0.011014602086506784
0.010975193181075156
0.010956767718307675
0.010977766518481076
0.011033139526844024
0.01102775679435581
0.010864720575045794
0.010718293336685747
0.01064581508981064
0.010673713798169046
0.01077489829622209
0.010886837916914374
0.010971109881065786
0.011037570689804852
0.011112240045331418
0.011174384881742298
0.011179566725622862
0.01116040808847174
0.011172995583619923
0.011188286843243987
0.011173191727139056
0.011182960239239037
0.011270953230559827
0.011375882681459188
0.01138138587353751
0.011278642646502704
0.011203032452613115
0.011269468709360807
0.01141488244989887
0.011473370315507055
0.01139050432946533
0.011277678345795721
0.011244915425777435
0.011288375016301871
0.011355462388601155
0.011401521740481257
0.011392233192455024
0.011327912344131618
0.011243273611180485
0.011170792654156684
0.011120060754474253
0.011078275232575834
0.01102268389891833
0.010950256243813784
0.010902597703970968
0.010917411299888045
0.010964308455586434
0.010970106585882605
0.011051007937639952
0.01121085639577359
0.011290332209318877
0.011237427848391235
0.01117309779394418
0.011192376154940575
0.01125530972611159
0.011284182211384178
0.01123251122655347
0.011126998937688768
0.011065392014570534
0.011096539485733956
0.01117590223904699
0.011246402636170388
0.011270271763205528
0.01122483705636114
0.011129941558465362
0.011048194859176875
0.01101923168869689
0.01102447669254616
0.011032076545525342
0.011029757487121969
0.011008747671730816
0.010942687289789319
0.010851122802123428
0.010739851088728755
0.010713254848960787
0.010789008680731058
0.010894145399797708
0.01090765838045627
0.010817804331891239
0.01076728722313419
0.0108204182703048
0.010868809274397791
0.010857623463962227
0.010865008872933686
0.010943631215486676
0.01106763316784054
0.011180508688557893
0.01121633819071576
0.011147467789705844
0.011012619764078408
0.010884159174747766
0.010825779945589602
0.01084791383240372
0.01090884445933625
0.010965259370859713
0.011004072607029229
0.011025930324103683
0.01101346145151183
0.010949177970178425
0.010859500931110233
0.010821509500965476
0.010901176475454123
0.01106528342468664
0.011210933062247932
0.011325598377734423
0.011418929069768637
0.01150641273939982
0.011431695900391788
0.011289503171574324
0.01121301143663004
0.011093409392051399
0.01094980224967003
0.010783778063487261
0.01063786759506911
0.010628816077951343
0.010694345121737569
0.010716905570589005
0.010697401117067785
0.010703841175418347
0.01073040571762249
0.010725588230416179
0.010682403822429479
0.010635186887811869
0.010635956840123981
0.010708421126473695
0.010792845129035413
0.010795684582553804
0.010712986458092927
0.010648357535246759
0.010654691138770432
0.010650264446157963
0.010586186230648309
0.010540938773192465
0.01054918099893257
0.010539333513006567
0.010493578833993523
0.010467849590349942
0.010486263656057418
0.010537271131761372
0.01058897871291265
0.010598259782418608
0.010557398737873883
0.010503402040340006
0.010459295371547342
0.010399832560215145
0.01034123590681702
0.010350444589275866
0.010386737261433155
0.010344695465173573
0.010244269983377307
0.010177264616359025
0.010154516943730414
0.010143412759061903
0.010174684720113873
0.01028957801638171
0.010448746988549829
0.010601551153231413
0.010728059478569776
0.010779734805691988
0.010726641467772424
0.010629866574890911
0.010572374367620796
0.010560525485780091
0.010563670985866337
0.01059909007512033
0.01068542275344953
0.010787536578718573
0.01085160895017907
0.010845675878226758
0.010794504932127892
0.010776378195732832
0.010848709575366228
0.010939939618110657
0.010992412122432143
0.010938598632346839
0.010842423578724265
0.010783446882851423
0.010788048873655498
0.010814230050891637
0.010803149917628617
0.010765838285442442
0.010754892260301858
0.010761567037552594
0.010732684759423137
0.010633237219881266
0.010482863823417574
0.010344666296150535
0.010345850209705531
0.010444502064492553
0.010517098528798669
0.01054209254682064
0.010564317223615944
0.010586125957779587
0.01058311815140769
0.010572474224027247
0.010575685512740164
0.010538295025471598
0.010479669861961156
0.01046913255006075
0.010443689245730638
0.010524702151305973
0.010590206503402443
0.010561610008589923
0.01049555417150259
0.010468506440520286
0.010476609976030886
0.010503637546207756
0.010615410171449185
0.010796832933556289
0.010831190266180783
0.010905139832757413
0.010998924593441189
0.011042006716597825
0.011265603948850185
0.01140660114120692
0.011404287896584719
0.011361465007066727
0.011273664645850659
0.011204045896884054
0.01122272143838927
0.011166993658989668
0.0112570532085374
0.011373974136076867
0.011401843952480704
0.011389250729698687
0.011394752773921936
0.011371298064477741
0.011269057577010244
0.011159303225576877
0.011165527915582061
0.011285284706391395
0.011370016788132488
0.011339462592732162
0.011301112759392709
0.011358501729555428
0.011459322641603648
0.011519675217568874
0.011541318183299154
0.011571077418047936
0.011649931310676038
0.011771691383328288
0.011866369862109422
0.01188916940242052
0.011894802260212601
0.011958474875427783
0.012047744395677
0.012085064828861505
0.012108058107551188
0.012180701899342238
0.012249988538678735
0.012262589973397553
0.012259831256233155
0.01226517305476591
0.01221830585040152
0.012086319113150239
0.011938983930740506
0.011848966791294515
0.0118218427663669
0.01184910859214142
0.011930873608216644
0.01203228787984699
0.012089852900244296
0.012104890139307828
0.012117813804652542
0.012073881181422622
0.011919179107062519
0.011730903703719377
0.01163748397026211
0.011616843699011952
0.011557682144921273
0.011576075749471783
0.011511615521740168
0.011555729289539159
0.011656703320331871
0.011729054048191755
0.011750216446816921
0.011775082317180932
0.011835117586888372
0.011879835561849177
0.011871781558729708
0.011856318023055791
0.011879831852857023
0.011931317006237806
0.011995443063788115
0.012085292271804065
0.012186365162488073
0.012264900512527675
0.012235905283596367
0.012146029570139945
0.01210140215465799
0.012115241934079677
0.012122690232936294
0.012094936759676784
0.012044582560192793
0.011960412140469999
0.011837274520657956
0.011777265092823654
0.011748404740355909
0.01174183508148417
0.011792928690556436
0.011713939807377756
0.011616067041177302
0.011590635906904935
0.011584313067141921
0.011545997587963939
0.01151224248111248
0.011497284336946904
0.011450377264991403
0.011402816872578114
0.01151397187029943
0.011640240089036524
0.011699119342956692
0.011773304610978813
0.011638472790364176
0.011430450051557272
0.011234002378769219
0.011088741200510413
0.01103728964459151
0.011032393937930464
0.011008439958095551
0.011121621052734555
0.0111221735435538
0.011093995089177043
0.011116165078710764
0.011114076715894044
0.011052186312153935
0.011040484632831067
0.011145224180072546
0.01124814554816112
0.01121756584616378
0.011103773061186074
0.011042251430917532
0.011034490605816245
0.010976395742036403
0.010852985004894435
0.010727119380608201
0.010621995134279132
0.010545880848076195
0.010506429194938391
0.010459834497887642
0.010375082939863205
0.010317311256658286
0.010343981836922467
0.010391480836551637
0.01038234741659835
0.010355199845507741
0.010396004407666623
0.010495562662836164
0.010546999534126371
0.010515170462895185
0.010493045013863594
0.010504141382407397
0.010465482301078737
0.01041042611701414
0.010459670710843057
0.010574258933775126
0.010607702448032797
0.010532257247250527
0.010434732513967902
0.010387187290471047
0.010413065571337938
0.01049228583695367
0.01054864578647539
0.010531305032782257
0.010522810237016528
0.01059386538574472
0.010634916634298861
0.010544236227869987
0.010415599409025162
0.01049995439592749
0.010551201468333602
0.010563958608545363
0.0104326689732261
0.010287213639821857
0.01022792366798967
0.010158879477530717
0.010163512555882335
0.010229080661665647
0.01029246046440676
0.0103304051165469
0.010341999109368772
0.010296664088964463
0.010181593326851725
0.010059235082007945
0.010034323453437537
0.010118995171505957
0.01018269767286256
0.010139738230500371
0.010078810972627252
0.01009430827340111
0.010136549447197466
0.010117860268801451
0.010048190923407673
0.010014554504305124
0.010075923157855868
0.010211498448625208
0.010327411210164427
0.010426929937675595
0.010498768074903637
0.01059636210789904
0.010726326496805995
0.010811947628390044
0.010835795986931771
0.010862990205641836
0.01088177972007543
0.01082420874852687
0.010740845825057476
0.010728104573208838
0.010742647002916782
0.010682393009774386
0.010564141725189984
0.010472280394751579
0.010408168840222061
0.010331083971541375
0.010279926948715
0.010312065174803138
0.010387783420737833
0.010483739641495049
0.010562725150957703
0.010605515090283006
0.010602373238652945
0.010549313332885503
0.010443462126422673
0.010343730619642883
0.010353440616745502
0.01046544129261747
0.010545197413302959
0.010520419413223863
0.010458007792476565
0.010437845657579601
0.010446748971007764
0.01043012305861339
0.010398734286427498
0.01039935694541782
0.010424666299950331
0.01045017525786534
0.010486591539811343
0.01054443489992991
0.010631298164371401
0.01076385696651414
0.010917192525230348
0.011021188932936639
0.011036869194358588
0.010983109802473336
0.010891227158717811
0.01077877101721242
0.010655422506388276
0.010539977436419577
0.010471891991328449
0.010450415106024593
0.010417374738026411
0.010381258544512093
0.01041319576324895
0.010479036804754286
0.010465278385672717
0.010374504870269448
0.010324501385912298
0.010368085547816009
0.010441410997882485
0.010460495515726507
0.010400219955481588
0.010319543539080768
0.0103133005509153
0.010407368536107242
0.01052443118300289
0.010580881778150798
0.010623426968231797
0.010737573488149792
0.010915373580064624
0.010906042328570039
0.010860240443143994
0.010940301343798637
0.010934486549813301
0.01100391827756539
0.011090415767394007
0.011210575622972101
0.011223183602560312
0.011165590120945125
0.011135797065217048
0.011107175559736789
0.010996360504068435
0.010876328824087978
0.010881797797046601
0.010955353453755378
0.010944200241938233
0.01086020125541836
0.010800417908467353
0.010757943999487906
0.01071555476402864
0.010733862707857042
0.010825922328513116
0.010925772974733263
0.010994022493250669
0.01102777101797983
0.011009306865744292
0.010940858512185514
0.010885640014894307
0.010867737021762879
0.010810258290730417
0.010685491538606585
0.010582004587631673
0.010543898181058466
0.010508703654631973
0.010446571439970284
0.010422821175307035
0.010464118542149663
0.010482656355015933
0.010422170469537377
0.010354031575843692
0.010359779498539865
0.01042735371971503
0.010510228106286377
0.010602713462430984
0.010694542892742902
0.01075190553907305
0.010787306290585547
0.010822927802801132
0.010820906115695835
0.010769581294152886
0.010719272522255779
0.010688019962981344
0.010690903728827835
0.010781723109539598
0.010931550739333034
0.011009822285268455
0.01094841118901968
0.010801412807777524
0.010742700402624905
0.010647753437515348
0.010617728109937162
0.010676452668849378
0.01080380892381072
0.010928536814171821
0.010990498026367278
0.01100528557319194
0.010999856796115638
0.01096435635117814
0.010902794431895018
0.010824553384445608
0.010709100670646876
0.010555379507131875
0.010419284354429691
0.010368227460421622
0.010401368262246252
0.010452986864838748
0.01049516249448061
0.010543517181649803
0.010583242941647768
0.0106111407908611
0.010688260940369218
0.010847191822249443
0.011007730499841273
0.011070752905216068
0.011051899949088693
0.01104563202476129
0.011087510054931044
0.011118013542145491
0.011088313171640038
0.011056548149790615
0.011113930344581604
0.011221029765438288
0.011219027335755527
0.011071917894296348
0.010961794324684889
0.010853763273917138
0.010756921423599124
0.010742922849021851
0.010800910724792629
0.010841430260334163
0.010916448526550084
0.0109589988226071
0.01096380567876622
0.01110201109899208
0.011189188410062343
0.011249266511294992
0.011316544946748764
0.011366924997419118
0.011361747169867159
0.011316478520166129
0.011284654890187085
0.011293380837887525
0.0112823706981726
0.011219774794299156
0.011123578299302607
0.011092973286285996
0.011045525083318353
0.010997969743330031
0.011107124665286391
0.011301883074920624
0.011305467986967415
0.011086540864780545
0.010945851658470928
0.010879482331220061
0.010905447704717517
0.010957230045460165
0.011044566815253348
0.011162328436039388
0.011283767444547265
0.011378603391349315
0.011407106770202518
0.011379156704060733
0.011369107791688293
0.011415104288607836
0.011474588927812874
0.011521342198830099
0.011606432064436376
0.011749739991500974
0.01186118254205212
0.011877793392632157
0.01185093518346548
0.011793656996451319
0.011632738481275738
0.011625267909839749
0.01168840964557603
0.01169127440545708
0.011656077911611646
0.011645004271995276
0.011630003089085222
0.01156561001436785
0.011467742316890508
0.011453751558437943
0.011541845330502837
0.011596289866138249
0.011529448733199388
0.011404341177549213
0.011361130811274052
0.011484925202094019
0.011631454415619373
0.011854686557780951
0.011996182629372925
0.012011893054004758
0.011932520866394044
0.011857414385303855
0.01185130479047075
0.011890378787647933
0.011955165814142674
0.012031604521907865
0.012051843870431185
0.01198978436877951
0.011925922143273055
0.01193189155543223
0.011983667297754437
0.012021479159593583
0.012032890238333493
0.012038424373604356
0.012034372286871075
0.012003450330812484
0.011954636191949248
0.011907336057629437
0.011848727173637599
0.011759363033343106
0.011673435911070555
0.01163147080456838
0.011607282166369259
0.011570034017786383
0.011551044515799731
0.011589698798488826
0.011668127146549523
0.011694398284889758
0.011575527095701546
0.011388065214268862
0.011352243372239173
0.011493511341977864
0.011550313134212047
0.011561969402246177
0.011628952918108552
0.011686313957907259
0.011589675368741155
0.011384391812607647
0.01121559830615297
0.011154480711556971
0.011152448379434646
0.011132724212948232
0.011084956356789917
0.011035294998437166
0.010971795879304408
0.010884111574850976
0.01081599158467725
0.010818108841776848
0.01087199813919142
0.010915675947908312
0.010950885233469307
0.01099213840207085
0.01108264978043735
0.011150215642992407
0.011202605965081602
0.011235524527728557
0.011207668411079794
0.011148835415951908
0.011174624545965343
0.011311609635595233
0.011405816210899502
0.011543534565716981
0.011642156429588794
0.011669449324253947
0.011595780518837273
0.01146685734624043
0.01135654618497938
0.01130400266032666
0.01129399755736813
0.011264121057465673
0.011174687831662596
0.011060269377194345
0.010945480088703335
0.010792086590081454
0.010603948384523392
0.01048481629230082
0.010508404031861573
0.010599598651751876
0.010633212423417717
0.010646675922907889
0.010779217013623565
0.010783594211097806
0.01074639955535531
0.010793452786747365
0.010852179396897555
0.01084532481385395
0.010846238213125615
0.010911061586812138
0.011000442360527813
0.010982345181982964
0.010815918205771595
0.010642679261509328
0.010611293613910675
0.010703999013639987
0.01077735238475725
0.010739755760878324
0.0106384616647847
0.010543974719475956
0.010459114746190608
0.010399908595718443
0.010416667575482279
0.010484713593032212
0.010512412858661264
0.010463770308997483
0.010399870183318853
0.01040021723601967
0.010447753265034408
0.010462543764151632
0.010433558616787195
0.010409143271390349
0.010408663453999907
0.010401450695935637
0.010364218796603382
0.010330721698701383
0.010340369096957147
0.010383204345125706
0.010428663061466068
0.010463524730876089
0.010488640561234205
0.010509196014609187
0.010540496734902262
0.0105889299698174
0.010629456811584533
0.010636605331674218
0.010615197629667818
0.010576879817526787
0.01051111396867782
0.010432812755461783
0.010427101985551418
0.010539033736567944
0.010665560092311352
0.010677039825823157
0.010585373230278493
0.0104921072605066
0.010451609422452747
0.01046576444990933
0.010528794748242944
0.010619676790665835
0.0107005591574125
0.010739334656391293
0.010731613282114267
0.01069868243765086
0.010650656293146312
0.010599604984745383
0.010585337823722512
0.010616036569699646
0.010641971623990686
0.010629357672296464
0.010613441448658705
0.01063858854584396
0.010688370377756655
0.01072497182060033
0.010732636081520468
0.010730329032521696
0.010773879534099251
0.010867459401488304
0.010937759487424046
0.010947638433426618
0.010913226972334086
0.010840290270280092
0.010712884999811649
0.01053527917014435
0.010312643095385283
0.010178383565507829
0.010171771377790718
0.010215404625050724
0.010226836483925581
0.010203655704390257
0.010195124773308634
0.010240124429110438
0.010349814470391721
0.01050409340299666
0.010665122747886925
0.01080882606562227
0.010914588500745594
0.010948343412019312
0.010923741303849965
0.010912183439359069
0.010919824773445726
0.010863891574554146
0.010758865715470165
0.010723790638148784
0.010762015068903565
0.010757723450660705
0.010655235787853599
0.010613159991335124
0.01057415657909587
0.010479893372394144
0.010460498111788183
0.010536657341290265
0.010681397547014058
0.01080351796001196
0.010833999451715499
0.01080238149035722
0.010799980990123003
0.010865995574276895
0.010937161191832275
0.010946891619823873
0.010920521875377745
0.010916708295699209
0.01093209378188476
0.01091978686163202
0.010875948537141085
0.01084189377957955
0.010815012236125767
0.010783474785275757
0.010812033398542554
0.010924643143080176
0.011025831897277384
0.011036168162245303
0.010981565425172448
0.010934412733186037
0.010914495841134339
0.010893682807218284
0.010878203427419067
0.010909289964474737
0.011004033363424242
0.011120829032734036
0.011192089607939125
0.011181342704221607
0.011105200496967883
0.011028105884324759
0.010963328273501247
0.01089683924568817
0.010910315196961165
0.010841407154221088
0.010895495307631791
0.01103594174142927
0.011113060011994094
0.011062922419514508
0.010949605943169445
0.010922087871003896
0.011042248953599483
0.011196173115167766
0.011245736894197762
0.01118476303992793
0.01111365505727008
0.011109720785170793
0.011151414420455695
0.01117277258541435
0.011162352326791733
0.011170791476033629
0.011218615325633436
0.011255428330041468
0.011244472439866513
0.011218550228513778
0.011220905832014978
0.01123976543545723
0.01121683836914599
0.011127615186851472
0.011037983926944434
0.011018928561825306
0.011097467262297869
0.011201536473818123
0.011210197990294546
0.011099172527901829
0.010981487894896417
0.010944010007660836
0.010977321814280003
0.011053253288846463
0.01113102855393663
0.011144303670153021
0.011149427378550172
0.011176609101239592
0.01124331411672756
0.011309434166178108
0.011338807062711566
0.011353549410123377
0.011373274743091315
0.011365171300712972
0.011306123968679457
0.011222815974615514
0.011143996394239367
0.011068705364596098
0.010999384778551757
0.010958127828780561
0.010938347403425723
0.010907019453588873
0.01090493846917525
0.011012696863617747
0.011176254509482533
0.0112563566560857
0.011244149885606021
0.01124548661755398
0.011290289340540766
0.011270093047060073
0.011290944314096123
0.011297452340368181
0.011357862190343439
0.011383372577838599
0.011306222730781882
0.011195314046926797
0.011151450630277395
0.011152278427034616
0.011104529718868434
0.010994859230704606
0.010908156405203045
0.010911624350119381
0.010965944312047213
0.01098069217056036
0.010939728922676296
0.01091725151753053
0.01096799061866477
0.011068059632088989
0.011172769209370017
0.011248439007904381
0.0112533571687527
0.011174611940514296
0.01107293193694204
0.01102565840817988
0.011026902806479484
0.011021476581227034
0.011011736965738237
0.011010118750855327
0.010965340768452734
0.010863886210136115
0.010702971883583814
0.01059751986991614
0.010611153689678758
0.010712887255940585
0.010807410459965467
0.010860013272613288
0.010958068238105625
0.0111027274816297
0.01110465158475563
0.011126347449608148
0.01108203227398917
0.011047433512285352
0.011062387190759183
0.01107661928748712
0.011042114284355193
0.010936708804219961
0.010791845116764308
0.010686683093663305
0.010655251424759626
0.010651720946189016
0.0106342289946042
0.010610135681927204
0.010591693243477494
0.010579866669140757
0.010573206876870245
0.010556586310267449
0.010537486004177482
0.010564436186105013
0.01064048376865685
0.010700960089452564
0.010713278588373214
0.01072195649612695
0.010793944117613136
0.010937801839318126
0.01106161942705512
0.011062671842519195
0.010914742974564432
0.01071385205956176
0.010574787249788642
0.010540405989158898
0.010554111886303872
0.010529365895781666
0.010456753128673882
0.010399506813846528
0.010426190763246268
0.010548375779762864
0.010685135773383082
0.010731648427899927
0.01067220616620034
0.010603956298436969
0.010619724898133428
0.010687371182721108
0.010732918176800013
0.010776112708263098
0.01085669020190835
0.010927880434319377
0.010944766141474247
0.010937568123918027
0.010917122529353946
0.01085039926227182
0.010744875760283322
0.01067169407615438
0.010620625005103648
0.010509965245146304
0.010334486605133862
0.010189489237964153
0.010127284436021
0.010108309648931026
0.010142520524095745
0.010236980936024338
0.010350175234489143
0.010526068597100676
0.010533501275349409
0.010485078499186784
0.010503119479399175
0.010552946028765291
0.010542689843568952
0.010498428414575756
0.010488125123083591
0.010483581558801233
0.010424554646015168
0.010335742216557264
0.01029809158295393
0.010320663605816661
0.01033306220313534
0.010301882596686483
0.010254495048429816
0.010218056587036698
0.010186824891716241
0.010142405009828508
0.010116007465403526
0.01016796590294689
0.010287057056557388
0.010409394649323077
0.01050148405134678
0.010546014467254282
0.010538462435360997
0.010535575768444687
0.01059671841096133
0.010650268739555031
0.01064576039556414
0.010544235936831682
0.010398260580841453
0.01026805552886799
0.010201120174024254
0.010177720142528414
0.010126952263526619
0.010050968672148884
0.010035907912533731
0.010107857729308308
0.010167036282364279
0.010121209174394607
0.010028339542914181
0.01001448369352147
0.01009496413404122
0.010188188960310072
0.01024969033896923
0.010282242544926703
0.010297811226919293
0.010331884811166673
0.010378317108843476
0.010356542195659131
0.010255535368341952
0.010174453137442469
0.010178311807103456
0.01023667470784858
0.010272659845650196
0.010230343346484006
0.01013746552169323
0.010083546286914498
0.010112389321438969
0.010170347280800343
0.010184848988428712
0.010156343767885118
0.010143111436627805
0.010173083068802952
0.010211051569785922
0.010241328962147236
0.010286349332891404
0.01032514485763386
0.010342009603045882
0.010371231466997415
0.01040047124028206
0.010385443046689034
0.01032646363368258
0.010241525990422815
0.01015706402482465
0.010110738989897072
0.010110519037116319
0.010125701606739312
0.010135047629009932
0.010164999219123274
0.0102256710967049
0.010242056597489864
0.010157334161922335
0.010044226669706405
0.009995198838878424
0.009997915814165027
0.010015602107159793
0.010045883222483098
0.01006908253300935
0.010032108107116073
0.009965775676537305
0.009961351554375142
0.010031916631851346
0.010089831140358002
0.010104001513682306
0.010136352744884789
0.010174531417433172
0.01013037100667134
0.010024690174032003
0.00996449547354132
0.00997623079456389
0.010007277890108525
0.01002724959049374
0.01005857399199158
0.01011934976093471
0.01017216166947037
0.01018043584190309
0.01017479674424976
0.010204732718411833
0.01026051451684907
0.010293836179189384
0.010304794374387711
0.010332860630005597
0.010366561599075794
0.01035265790298581
0.01028061460936442
0.010206200790125877
0.010182442606892437
0.010187267395667731
0.01017152143176645
0.010137793922331184
0.010122853242792188
0.010149287125095725
0.01019975851289928
0.010242292669136076
0.010270190101582557
0.01027254962362349
0.010246849854011088
0.0102475779899396
0.010302424954716116
0.010354942425619811
0.010366534350905567
0.010355253666639329
0.01032381723402068
0.010263609811663627
0.01021958525525406
0.010247316423337906
0.010307501840870828
0.010332016728352756
0.010350809267256409
0.01039854323491454
0.010417672360781581
0.010369690284132958
0.010307339634746313
0.010297014606185257
0.010337029504589736
0.010357803790830076
0.010311272914987058
0.010244599885772913
0.01023470152867958
0.010281525880564003
0.010334449985530228
0.010370286863762885
0.010388700494077056
0.010401933321263641
0.010431688851676882
0.01046605250565335
0.010460528347175568
0.010398074588738381
0.010315454648807645
0.010265898031648249
0.01027303152019158
0.01031406071735546
0.010347990135196597
0.010372471283189952
0.010412149066105485
0.010467422641813755
0.010519211827777326
0.010540363998152315
0.010514366293791681
0.010468136526178569
0.010439399608876555
0.01044531499268487
0.01049371260451153
0.010562421595677733
0.010621144592296333
0.01067760821664706
0.010718359115999191
0.01068270776886493
0.010556957048829646
0.010409957179799676
0.010323927893768996
0.01032699357252568
0.010379694618750364
0.01042897017672658
0.010468313512392342
0.010504060396924616
0.010511637809686362
0.010492363267112524
0.010494567637797445
0.010533113074488938
0.010572315459139645
0.010591874271631241
0.010590991680510342
0.01056035793852061
0.010520466482266783
0.010528977322392165
0.010589831247925759
0.010628900523297489
0.01059825688134879
0.01052782241255045
0.010479130737949163
0.010487253193277866
0.010510934824123979
0.010468956467229873
0.01036013408564031
0.010282685984857381
0.010308328620158135
0.010389857161790132
0.010427409610711038
0.010394162880256772
0.010339949147310108
0.01029124140739441
0.01023983105784282
0.010219365200027824
0.010286528770811855
0.010427395878359676
0.01055899586295709
0.010625576735474169
0.010637514952104538
0.010605428924318403
0.010507048736326397
0.01036174280801788
0.010260244377423077
0.010250867779832333
0.01027981003979221
0.010308873462490738
0.01037201846949756
0.010461602895520627
0.010510934325866401
0.010514370948076248
0.010513549118768424
0.010508437773678452
0.010500659283716232
0.010517020467668772
0.010535018278751522
0.010514664342626929
0.010480544799938797
0.01046423139050603
0.01045389372156933
0.010455302456393837
0.01049533993937075
0.010561911596450955
0.010605005398392677
0.010585949129890651
0.010523365051485599
0.010468116870615631
0.0104330575466156
0.010425524262245744
0.010477709772530944
0.010565761134494096
0.010611877024639399
0.010580914833117277
0.010507883795071393
0.010448673341888934
0.010427857502363622
0.010431695799343287
0.010429525419604034
0.010415161054115742
0.010423463452607393
0.010462690715212376
0.010478544041980058
0.01043575036805123
0.010376304173842072
0.010350775646511465
0.010327282082289457
0.010236003114841878
0.010114193898625673
0.010013462929055094
0.009995916930492968
0.010020637477282435
0.010029767686501146
0.010026756911538542
0.010040929103270172
0.010067597918678076
0.010091133415699005
0.010090819459874183
0.010070943627506495
0.01008442186517641
0.01014706703601405
0.01021490663057193
0.010252693470101803
0.010253607130143791
0.010228954209014773
0.010191226741299034
0.01014387535629794
0.010108824905473738
0.010128213262651115
0.010197303572203964
0.01026490073185414
0.010315080971922725
0.010349087552167475
0.010353131741285325
0.01034970378037542
0.010355893580708653
0.010324234531726689
0.010250175457913428
0.010212133845780045
0.010223619099706411
0.010223464225418866
0.010213009633589535
0.010216533506754786
0.010198428370058537
0.010158396158367396
0.010167836861219257
0.010253226477652788
0.010349737936630845
0.010385108834598214
0.010365723925642669
0.0103535847668536
0.010375384050421417
0.010406141702551394
0.010439005200751125
0.010502721569500863
0.0105839785002172
0.010604445203207434
0.010518035783898086
0.010379059810657055
0.010282011646777391
0.010270910614635795
0.010332778461743146
0.0104165541077964
0.010440722226630896
0.010376762326341122
0.010303191696293653
0.010293236270081252
0.01031150680501014
0.010271274771075695
0.010154003009665758
0.01003957716980949
0.01000090454472229
0.010040663208346814
0.010162283377721905
0.010368272699415683
0.01058322045719251
0.010695571801625193
0.010666766967624426
0.010576402468141169
0.010542145087383688
0.010573298286180944
0.010579854208044708
0.010520418763626367
0.01045188084244728
0.0104452489875257
0.010487500836607069
0.010503615783527494
0.010494639589451253
0.01053727427031845
0.010597624715883285
0.010550790715496987
0.010415300354361534
0.01032929842825979
0.010334346517920494
0.010366434254683555
0.010387572748586536
0.010399985502008349
0.010391814447939397
0.010376895188819617
0.010408603050746024
0.010472516810987145
0.010491487404797226
0.01046559683047235
0.010462465956807136
0.010498404398094862
0.010533820551354439
0.010546598811633884
0.010559045285917818
0.01057403358630836
0.010611452427692711
0.010623246666509658
0.010630634317640214
0.010668491141404956
0.010700609418563545
0.010678066543769092
0.010614201214630158
0.010537578805815429
0.010466740373522044
0.010412941968534142
0.010374992014840245
0.010358523759059608
0.010370075509417803
0.010404547792859375
0.010447631387505681
0.010479263553861529
0.010506197542417795
0.010550085981376469
0.010584469677414745
0.010565004227682948
0.010513348139356822
0.010484554269351066
0.010481395507231355
0.010482797969598324
0.010496246377006174
0.010524039440788328
0.010557831951882691
0.010610326495952904
0.01067494340473786
0.010715622052084655
0.010740285813808441
0.010773722282610834
0.010784060491714627
0.010756151741370559
0.010748904175125062
0.010806117127649485
0.010906304225791245
0.01099218821618706
0.01099569772137329
0.010896243024617433
0.010811327835544943
0.010712358895689248
0.010626503368839621
0.0105292823119089
0.010461494729388504
0.010441035877447576
0.010426042713224887
0.010393513047602028
0.010381082624662667
0.010426677409559488
0.010496368608437478
0.010520708612166346
0.010490256908815354
0.0104676646576263
0.010507046433631331
0.010583347564097494
0.010617530003655703
0.010589179859962314
0.010574063914828003
0.010628845382016153
0.010731976074166595
0.010847484513651579
0.010933673970866949
0.010927370018325746
0.01080006460659206
0.010601932192221284
0.010428814215119929
0.010344633725471794
0.010347483172081411
0.010393807857763022
0.010421964880079031
0.010389809377957136
0.010325975113082676
0.010322169724386186
0.01041426436509937
0.010507880481891335
0.01052317388355732
0.010502197211608291
0.010482507508713752
0.010446368237026035
0.010444407367613167
0.010556010464206338
0.010709500424563884
0.010756390357855708
0.010701595565769821
0.010661351107992233
0.01066136104054749
0.010649542359169572
0.010616680074017495
0.010584124641027301
0.010545200721826404
0.010488920269999653
0.01044573868624866
0.01045260717626661
0.010498386472463608
0.010532118394039572
0.010502114978153258
0.010426747610326857
0.010404341910034419
0.010465977629646659
0.010524329794570804
0.010536531566176564
0.010562245340552182
0.01063617960549891
0.010700315381400287
0.010695530001539737
0.010660469785798342
0.010664205311331897
0.010701217998284846
0.010716444628778845
0.010671356366947294
0.010577511750161648
0.010489218609873206
0.010453069317154586
0.010465606637299061
0.010473722042515874
0.010436344337649643
0.010393511350266636
0.010408294184599072
0.010462577829603106
0.010495959878899157
0.010483585859183221
0.010432922295294703
0.0103659018012695
0.010298820647876709
0.010240292688831688
0.010210991592612118
0.010212739538401365
0.010206881184130908
0.010164428420830518
0.010097547506447882
0.010045068336185068
0.010049010317306966
0.01011289207264781
0.010173496704082937
0.010142747468780727
0.00999931572470814
0.009841702552512288
0.00980630751233548
0.009909318475984037
0.009997939642053097
0.010107734007760882
0.010214803346898407
0.010312053142115474
0.01033879114780575
0.010285645311232655
0.010220466530881822
0.010188825984951109
0.01015720629831776
0.010097266666125506
0.010048818315844983
0.010053224845323712
0.010104468907229602
0.010180163064505905
0.010260702844243496
0.010323958739172667
0.010354966206941754
0.010343727213330567
0.010290021058171988
0.010248477701097727
0.010282541057094932
0.01035419777734205
0.010385770301800221
0.010381612852215767
0.010382937139365823
0.010387212925124914
0.010377792741637677
0.01037288704654202
0.010383447082713246
0.01037530372152105
0.010346459632273763
0.010359875608701259
0.010423181734513492
0.010442706502508371
0.010376126333139836
0.010302239819429815
0.010280404791701584
0.010290840056259186
0.01032547969603911
0.010387208277825266
0.010419142651371657
0.010369509304873646
0.010301260696724057
0.010310211314354091
0.010369613969232886
0.010385304905939847
0.010350220317486674
0.010322914379648863
0.010320426521357149
0.010324609177187085
0.010334420602302998
0.010355292705353349
0.010367226114030927
0.01034383620833978
0.010299065981525928
0.010280739255249501
0.01032460123533383
0.010415718373842538
0.010486883514095097
0.010501578529365362
0.010502305831760168
0.010514768613502383
0.010487466442864388
0.010384878115728498
0.010283188140019774
0.010298665980808436
0.010411769442725927
0.01048446110682562
0.010481904440093786
0.010507395379245282
0.010609520894940943
0.010727952176239341
0.0108138621551916
0.010851774709299206
0.010830831530038268
0.010808974402025343
0.01085191719001159
0.0108907883008942
0.010846295005176216
0.01077749606454745
0.010753534222021698
0.010767956904601306
0.01079765408532694
0.010824242022354156
0.010859733652323485
0.010919918697327375
0.0109527063020505
0.010913114100694656
0.01085694627603516
0.010850865098182111
0.010870703014079481
0.010863826230634003
0.010821183433290572
0.010759976329281926
0.010725631485693157
0.010756103727035225
0.010799452064093202
0.010785148325376213
0.010746391890570521
0.01074450186220929
0.010746753308922052
0.010696192344184965
0.010622170087881386
0.01058807022869587
0.010605690428055823
0.010637004238087683
0.010636398866772652
0.010614739439915866
0.010622362198773772
0.01065516313770786
0.010697347598616035
0.010771571295335888
0.01083581623621285
0.010820818536449223
0.010778214149177075
0.010792840293142945
0.010844114627689123
0.010873691749293358
0.010869858432561158
0.010837791960220784
0.010762219340540469
0.01064231272554025
0.010538635896518827
0.010515521911438555
0.010553436421323567
0.010591944500338285
0.010615823164116592
0.010635355308186262
0.010627127005718648
0.01056039984105155
0.010469661494717002
0.010415178227704018
0.010383974383585156
0.010330704650841653
0.01026316879549995
0.010217385557480156
0.01021092218812555
0.010231391524430365
0.010246307437773794
0.010240306295454502
0.010236966738011688
0.010269599764142186
0.010325066721998155
0.010343639287166298
0.010315526297781617
0.010313470945693553
0.010363863084930926
0.010415160653647035
0.010469572942238301
0.010541438534855842
0.010553333526477218
0.01048008352983743
0.010427164216525852
0.010451331378426403
0.010489717023447157
0.01047963511897251
0.010408542866352946
0.010302517036907375
0.010224159508943557
0.010198985051829368
0.010181769342161716
0.010157580852974206
0.010172593276947736
0.010231376376468688
0.01027931554010138
0.010286567253060638
0.010273799237329512
0.010271960136014969
0.01026436043670401
0.010206095832400024
0.010111858337186277
0.010018987602088601
0.009924834831617773
0.00985230851219967
0.009833960880059748
0.009827122194692492
0.009800164299085735
0.009812317735049874
0.009896474971901626
0.009996523174922913
0.010048382459208369
0.010024164384230972
0.009951171386055647
0.009896225626580418
0.009876820794306695
0.009874622307252138
0.009915483156219125
0.009995836846064777
0.010019878305029125
0.00995060300687328
0.009905298664234579
0.00997765181120485
0.010098699179943651
0.010151260138954968
0.010096549938898533
0.010005873821210116
0.010004405889194459
0.010096213610377163
0.010149088706821203
0.010119864013977348
0.010100166527554393
0.010142844575457275
0.010217437965329736
0.010275723580271005
0.010270334754604846
0.010193884947802871
0.010123161650262773
0.010127106378786267
0.010156176327727735
0.010133566800504923
0.01007073984714225
0.01000295014353469
0.009941352435853333
0.009895515539683401
0.009846424106508494
0.009785519058350473
0.009778122056741268
0.00986558415228501
0.009976884976495057
0.010032535621430725
0.01004981089849025
0.010082045427989215
0.010121879682410509
0.01013632063055411
0.01014729717746377
0.010176354001741857
0.010180453860666603
0.010136765553615987
0.010111294905655085
0.010170685560442507
0.010262184352613985
0.010283905898686498
0.010259672133252025
0.01028099874034524
0.010327585532795638
0.010319868167862296
0.010260771315079182
0.01021357893012464
0.010216717079747467
0.010253247739747166
0.010279909390956164
0.010290005435235798
0.010310197793878616
0.010347316493280231
0.010391553996596485
0.010421015848405659
0.010402562946546822
0.010326795587316156
0.010207498876843602
0.010089818867854775
0.010040836255066098
0.010051383902318776
0.010046824752353132
0.010013191713951528
0.00998712714528665
0.009990124879404903
0.010053154900670052
0.010181126391980797
0.010304344221949577
0.010376696675084531
0.010421150552574546
0.010441102639306336
0.010434873544145375
0.010461727823130786
0.010534295071847737
0.010554796897340566
0.0104773506289348
0.010379104530438782
0.010340349581092596
0.010357820894569159
0.010372072441969067
0.010358247125986963
0.010338591923937202
0.010325566043611616
0.010332842310890555
0.010384277754928917
0.01046185052022338
0.010506660195533186
0.010493508840445429
0.010450276366900652
0.01042083035223186
0.010450784689746797
0.010546579367946833
0.010640172678977251
0.010664067659527064
0.010622882668394595
0.01055680672172457
0.01051550752716139
0.010547597906552256
0.0106387462397106
0.010702901384793222
0.010677336873486638
0.010595254644285887
0.010524735166691244
0.010475852726958692
0.01041780185420066
0.010344076848123223
0.010291842580772936
0.010300392683129758
0.010357978898100554
0.010420032541733236
0.010451217661611736
0.010440277608577162
0.010417592423036694
0.010428400847595186
0.010485300475265831
0.010567515101283788
0.01063590770587325
0.01067831032909453
0.010714158155024052
0.010713748733978718
0.010644637339282781
0.010570246423594654
0.01055563598871231
0.010570791496429593
0.010548608941026032
0.010456924948375673
0.010324825942516326
0.010224467508960515
0.010189463219139725
0.010180748556740582
0.010169801039155572
0.010176157439127564
0.010189299362245947
0.010149045439902693
0.010055894441902637
0.010014679103624075
0.010091674560680986
0.010199819940607995
0.010221245882567018
0.010180655515287072
0.010173120074905456
0.010184916022699326
0.010141805738676339
0.010075899763032794
0.010084549956955015
0.010185259475838393
0.010314077916555107
0.010390826053917408
0.010372783991042524
0.010309089054353536
0.010298119236249476
0.010356298258993774
0.010395657143089921
0.010349482512101531
0.010268665279727428
0.010263695677276701
