10.151012732982636
10.261922268867492
10.386517460346221
10.375955004692077
10.257892565727234
10.227604641914368
10.367758774757386
10.528306505680085
10.56765417098999
10.520183410644531
10.462262098789216
10.431888835430145
10.42644036769867
10.399066362380982
10.378790094852448
10.437138144969941
10.496996290683747
10.463115222454071
10.422498424053192
10.462278714179993
10.502590899467469
10.455415179729462
10.350631325244903
10.234103665351867
10.129955830574035
10.110736572742463
10.200066740512847
10.299804189205169
10.35087815284729
10.395377976894379
10.430364985466003
10.376749231815339
10.236206257343293
10.122586665153504
10.106056303977967
10.143758130073547
10.147564656734467
10.074590358734131
9.987285952568055
10.013560280799865
10.20654657125473
10.469786157608032
10.648231868743897
10.675921671390533
10.62676142692566
10.605517797470092
10.628489644527436
10.653200087547303
10.665234532356262
10.687670006752015
10.700151052474975
10.620157544612885
10.445177459716797
10.309827859401702
10.30715838909149
10.353348331451416
10.339981186389924
10.323899891376495
10.392963845729827
10.478892776966095
10.487409636974334
10.439227573871612
10.393315548896789
10.389239814281463
10.42885490655899
10.462376883029938
10.460322005748749
10.43948030948639
10.422152814865113
10.41286872625351
10.399415781497956
10.400397164821625
10.481144962310792
10.66331089258194
10.823530867099763
10.824308319091797
10.745434191226959
10.740958456993104
10.776886987686158
10.763664796352387
10.745361180305482
10.805202634334565
10.92924341917038
11.003804285526275
10.945219252109528
10.812194635868073
10.727948064804076
10.746185367107392
10.8040651512146
10.778277709484101
10.650584969520569
10.541556601524354
10.522230534553527
10.562546610832214
10.62705318927765
10.654088854789734
10.586642866134644
10.492423284053803
10.464535205364227
10.456580896377563
10.39333793401718
10.332059562206268
10.360360624790191
10.428669757843018
10.420077197551727
10.324812889099121
10.219483726024627
10.135075528621673
10.056019871234893
9.982738144397736
9.919106829166413
9.849839491844177
9.76898774623871
9.700295555591584
9.668554394245147
9.66896359205246
9.687766253948212
9.710300853252411
9.724395449161529
9.772456285953522
9.886902256011963
9.997041213512421
10.009147112369538
9.909394631385803
9.80938366651535
9.843162133693696
9.963296823501587
10.019574010372162
9.989255437850952
9.950995423793792
9.958661596775055
10.016603765487671
10.091088299751283
10.16172917842865
10.23680405139923
10.279786162376404
10.24735517501831
10.20682464838028
10.233971416950226
10.260785849094392
10.193582155704497
10.063553709983825
9.971800706386567
9.945329155921936
9.897333817481995
9.793293089866639
9.729118025302887
9.726393823623658
9.700732872486114
9.682972347736358
9.773490500450134
9.932245440483094
10.059286918640137
10.158985764980317
10.263615779876709
10.35862599849701
10.424179294109344
10.42152095079422
10.33607697725296
10.259224729537964
10.289893887043
10.399373984336853
10.47836531162262
10.488468554019928
10.512632246017455
10.60921618938446
10.696944921016692
10.691027669906616
10.615754399299622
10.512657935619353
10.417720794677734
10.368404097557068
10.331927134990693
10.29424700498581
10.311890876293182
10.36419584274292
10.390716047286988
10.424394145011902
10.499735882282257
10.551727385520936
10.506983151435852
10.39669716835022
10.307418060302734
10.269991221427917
10.29126455783844
10.427344284057618
10.666295478343963
10.828144350051879
10.809675796031952
10.773189821243285
10.874771699905395
11.024229431152344
11.073531851768493
11.073127229213714
11.183686933517457
11.392539539337157
11.509608428478241
11.467632319927215
11.387061879634857
11.313345985412598
11.186160581111908
11.036929774284364
10.928490540981294
10.824403059482574
10.716138665676118
10.67527693271637
10.734008378982544
10.87863382101059
11.05773780822754
11.180465271472931
11.222247304916381
11.23956116914749
11.284734299182892
11.381250648498535
11.463253407478332
11.403840408325195
11.2319744682312
11.120250449180602
11.136721670627594
11.212988409996033
11.275919377803802
11.3104913854599
11.343372750282288
11.358817286491394
11.289622905254364
11.142755024433136
11.028559346199035
11.01248795747757
11.038118755817413
11.045665915012359
11.061484124660492
11.118389258384704
11.185565969944001
11.204759984016418
11.118646450042725
10.913262841701508
10.68932783126831
10.586002933979035
10.608464949131012
10.641422860622406
10.605906133651734
10.529607226848603
10.49186351299286
10.491105649471283
10.445698983669281
10.374384231567383
10.399127173423768
10.533400809764862
10.65046215057373
10.68125658750534
10.671468460559845
10.651737277507783
10.631029982566833
10.669650115966796
10.76542547225952
10.782487275600433
10.671793005466462
10.562386331558228
10.549683661460877
10.591677904129028
10.59318459033966
10.524790263175964
10.457791275978089
10.42605152606964
10.389517023563386
10.368595383167268
10.398655745983124
10.429990022182464
10.420470223426818
10.394780349731445
10.365669629573823
10.303051748275756
10.217560698986054
10.182192912101746
10.236130373477936
10.344052033424378
10.432714302539825
10.45581060886383
10.43599892616272
10.420311424732208
10.421193363666534
10.417075972557068
10.383177177906036
10.301004955768585
10.2078227186203
10.230765900611878
10.40117656469345
10.509986362457276
10.392287547588348
10.197312498092652
10.14459805727005
10.236446104049683
10.356777637004852
10.434855084419251
10.44505800485611
10.40137223482132
10.350430314540864
10.315842218399048
10.304684574604034
10.328560366630555
10.381899993419648
10.451297917366027
10.520154099464417
10.5456533908844
10.513133039474488
10.496467218399047
10.538841907978059
10.551678957939147
10.466400971412659
10.37077395439148
10.3923050904274
10.514169535636903
10.594558157920837
10.57597615480423
10.55141609430313
10.583308730125427
10.632907726764678
10.694511539936066
10.786971199512482
10.83717063188553
10.788386814594269
10.72860467195511
10.719429438114167
10.68549560546875
10.61462263584137
10.595107672214509
10.589961466789246
10.487561082839965
10.364741768836975
10.380404336452484
10.48823284626007
10.518210442066193
10.473641982078552
10.534009275436402
10.713999021053315
10.774203448295593
10.606735107898713
10.437886323928833
10.480130834579468
10.617059643268584
10.64597920179367
10.600723083019256
10.594865970611572
10.591643133163451
10.542176187038422
10.514476718902587
10.548893458843231
10.56803920507431
10.5052357172966
10.416845376491546
10.38130187034607
10.363543424606323
10.30207169532776
10.242780411243439
10.253298466205598
10.28878012895584
10.258979814052582
10.190189476013183
10.185316345691682
10.214765832424163
10.153990547657013
10.023478486537932
9.952573466300965
9.952516396045684
9.947229118347169
9.95837274312973
10.036101524829865
10.083851838111878
9.998093330860138
9.889861187934876
9.926503245830537
10.083313574790955
10.256998944282532
10.413137726783752
10.47342401266098
10.391755945682526
10.330885443687439
10.398097281455994
10.452189724445343
10.383645384311675
10.254771447181701
10.148409061431884
10.078227565288543
10.039790213108063
10.080387589931489
10.223582909107208
10.393029048442841
10.4989981675148
10.518906366825103
10.49338201522827
10.461840488910674
10.387391402721406
10.239578437805175
10.141554856300354
10.22531128168106
10.377336111068725
10.424463064670563
10.460218980312348
10.63457913160324
10.830364861488341
10.879185791015624
10.844536166191102
10.846439986228942
10.844037289619445
10.789053626060486
10.776047387123107
10.851358208656311
10.88373286008835
10.79523006916046
10.70418612241745
10.709460370540619
10.759271042346954
10.824013924598693
10.954736261367797
11.080548963546754
11.048565714359283
10.9277015209198
10.93645625114441
11.08888242483139
11.185940129756927
11.107039821147918
10.949975666999817
10.845937044620515
10.765320608615875
10.669053704738618
10.62433652162552
10.638784511089325
10.662601945400239
10.687343707084656
10.692677664756776
10.67863634109497
10.695706255435944
10.722108013629914
10.670121593475342
10.548116507530212
10.461929371356964
10.448163406848908
10.455247650146484
10.469403042793274
10.50371604681015
10.539839413166046
10.59245974779129
10.697058098316193
10.781744582653046
10.734647483825684
10.608745119571687
10.526325116157532
10.443935678005218
10.28957771539688
10.181704785823822
10.251450011730194
10.426502771377564
10.567095003128053
10.640248534679413
10.659959988594055
10.619230487346648
10.547939779758453
10.52705726146698
10.606592268943787
10.762329530715942
10.907813470363617
10.930638329982758
10.78163388490677
10.533754014968872
10.343358287811279
10.29931363105774
10.303378405570983
10.235521821975707
10.134864168167114
10.088332850933075
10.106390085220337
10.132495412826538
10.127373909950256
10.171216650009155
10.327657554149628
10.456775231361389
10.42094108581543
10.323258039951325
10.327537405490876
10.419319996833801
10.482340960502624
10.491151497364044
10.51707855463028
10.585750222206116
10.661361129283906
10.742361924648286
10.819599661827088
10.832419650554657
10.793728322982789
10.809169108867644
10.897725489139557
10.96233808040619
10.952806358337403
10.902159836292267
10.850834729671478
10.820981438159942
10.810854640007019
10.812297675609589
10.828259851932525
10.833584334850311
10.7908873295784
10.726826376914978
10.685943083763123
10.662515699863434
10.630781853199005
10.573157584667205
10.53129540681839
10.574961898326874
10.633677570819854
10.563894279003144
10.41427553653717
10.358863229751586
10.438719217777253
10.585862770080567
10.739402515888214
10.851121509075165
10.914745578765869
10.963042268753052
11.016779727935791
11.085857970714569
11.17915150642395
11.282872548103333
11.348617508411408
11.331891965866088
11.268717820644378
11.251617131233216
11.279725856781006
11.258419098854064
11.161960716247558
11.066195764541625
11.04196177482605
11.067158467769623
11.066729097366332
11.036553628444672
10.996177158355714
10.891206037998199
10.757241680622101
10.751952669620515
10.856944499015809
10.894787092208862
10.85523730993271
10.848558127880096
10.863978714942933
10.858931925296783
10.88356692314148
10.97124255657196
11.087960791587829
11.17576637029648
11.17528720855713
11.101938753128051
11.050895924568175
11.056840808391572
11.068082315921783
11.066137886047363
11.073394620418549
11.07715001821518
11.071819610595703
11.093573644161225
11.166759281158447
11.298713419437409
11.444649729728699
11.52664082288742
11.544316482543945
11.503709695339204
11.365361297130585
11.189150002002716
11.132541120052338
11.218383061885834
11.269044148921967
11.205727059841156
11.175727264881134
11.243883554935456
11.289211204051972
11.245226397514344
11.154780173301697
11.086408767700195
11.124494485855102
11.268244502544404
11.403543663024902
11.479294815063476
11.528761358261109
11.554612908363342
11.53175182580948
11.442637951374055
11.334370293617248
11.312168083190919
11.34874897480011
11.293251440525054
11.14285383939743
11.026412107944488
10.96986603975296
10.922350330352783
10.90033890724182
10.933588397502898
10.963278131484985
10.924927988052367
10.850112950801849
10.803305783271789
10.82675518989563
10.92908421278
11.011939053535462
10.963182945251464
10.853205726146697
10.806941356658935
10.850573263168336
11.0098402261734
11.255438466072082
11.435008680820465
11.437265238761903
11.288221094608307
11.12273842573166
11.035621337890625
10.960813961029054
10.885328872203827
10.941445319652557
11.109453127384185
11.180503697395325
11.105020806789398
11.08329679965973
11.192808175086975
11.220196001529693
11.062779049873352
10.91343644618988
10.914000382423401
11.003059904575348
11.054391391277314
10.997475073337554
10.905548293590545
10.87350338459015
10.853391487598419
10.788031585216523
10.734773471355439
10.779836330413819
10.932575047016144
11.049825098514557
10.982693738937378
10.84866418838501
10.852426519393921
10.938331873416901
10.944861974716186
10.872241344451904
10.803411943912506
10.77895030260086
10.793736143112183
10.822507379055024
10.85400856733322
10.87550654411316
10.853992431163787
10.776768367290497
10.685106253623962
10.660871212482453
10.712753882408142
10.724944925308227
10.64524180650711
10.536499838829041
10.412445087432861
10.253047297000885
10.094823026657105
10.007473311424256
10.013113553524017
10.032075159549713
10.02427983045578
10.09563863992691
10.26475182056427
10.378164052963257
10.38735772371292
10.366171610355376
10.30054960489273
10.160780446529388
10.062736303806306
10.131490983963012
10.274158539772033
10.316111781597137
10.280007977485656
10.29078222990036
10.355720052719116
10.40423478603363
10.414267673492432
10.428263738155366
10.464208447933197
10.467104744911193
10.407901842594146
10.316169900894165
10.211675305366516
10.179463868141175
10.334641387462616
10.583244001865387
10.737079741954803
10.806091363430022
10.895645494461059
11.009354412555695
11.072081308364869
11.028265142440796
10.926956145763397
10.856111986637115
10.814579439163207
10.80907850265503
10.907515244483948
11.052804682254791
11.087679748535157
11.007414031028748
10.966459703445434
11.048435535430908
11.169250507354736
11.231526346206666
11.231712601184846
11.187355856895447
11.132902944087983
11.135836050510406
11.205800020694733
11.280790438652039
11.30304348707199
11.242170898914337
11.12034744501114
11.012401962280274
10.944581360816956
10.894958395957946
10.880307502746582
10.89591655254364
10.864003601074218
10.764683299064636
10.703321568965912
10.74657494544983
10.815965883731842
10.827807953357697
10.8189484333992
10.855078921318054
10.88745050430298
10.820875039100647
10.70538126707077
10.684307367801667
10.771935451030732
10.886579866409301
11.006809246540069
11.101620318889617
11.085000472068787
10.954235067367554
10.809155189990998
10.730944652557373
10.697558057308196
10.620298142433166
10.514203860759736
10.50211021900177
10.592016668319703
10.688229250907899
10.760084102153778
10.78646549463272
10.744024846553803
10.715736865997314
10.783418061733245
10.904782817363738
10.990716664791107
10.985158731937409
10.902926783561707
10.820442895889283
10.793960616588592
10.818551940917969
10.840441789627075
10.794845881462097
10.684558820724487
10.589395072460174
10.560745487213135
10.571909577846528
10.572905535697936
10.544898009300232
10.524952850341798
10.543858704566956
10.566317536830901
10.56603636264801
10.555759041309356
10.52633753299713
10.450924112796784
10.356698882579803
10.328601560592652
10.3759370470047
10.406683506965637
10.385564846992493
10.373415534496308
10.420438480377197
10.493674609661102
10.52276906490326
10.518560934066773
10.532895243167877
10.52003710269928
10.41579611301422
10.280190486907959
10.213141746520996
10.21330628156662
10.223311524391175
10.256966199874878
10.364543647766114
10.505102989673615
10.58281540632248
10.568509192466736
10.487799861431121
10.36842013835907
10.250632026195525
10.161103539466858
10.076329879760742
9.947855370044708
9.763897848129272
9.612862949371339
9.631050088405608
9.82662897825241
10.022599854469298
10.051401398181916
9.952873632907867
9.888454790115356
9.925653808116913
10.023512208461762
10.151822366714477
10.296096768379211
10.420680887699127
10.509169888496398
10.565903191566468
10.564627692699432
10.499360373020172
10.4600408244133
10.51600902557373
10.577941365242005
10.544434344768524
10.5056840801239
10.587256968021393
10.692178416252137
10.659034929275514
10.553653213977814
10.542085692882537
10.619949061870575
10.679979937076569
10.71628042936325
10.80365920305252
10.904760046005249
10.884860427379609
10.780448877811432
10.765424489974976
10.850427808761596
10.91472510099411
10.898690438270568
10.81121217727661
10.70720793247223
10.654194703102112
10.649222357273102
10.622508335113526
10.543560638427735
10.46983847141266
10.453567934036254
10.47374742269516
10.494632732868194
10.525079267024994
10.591547882556915
10.656621448993683
10.657421205043793
10.614927945137024
10.557361640930175
10.450687460899353
10.308685920238496
10.218690991401672
10.239822609424591
10.336303827762604
10.388897018432617
10.331379961967468
10.23803617477417
10.17035710811615
10.106973793506622
10.10150970697403
10.247314705848694
10.45820466041565
10.549843525886535
10.51810473203659
10.5079855966568
10.565075161457061
10.609214642047881
10.5807883477211
10.499514997005463
10.41975509405136
10.34905479669571
10.264748075008391
10.201205480098725
10.208460633754731
10.255411076545716
10.255995783805847
10.19887348651886
10.157731640338898
10.141069004535675
10.120730221271515
10.141367926597596
10.201401624679566
10.24405511379242
10.286124079227447
10.336836161613464
10.360580122470855
10.367347192764282
10.398818051815033
10.475433020591735
10.563148655891418
10.620777277946472
10.663169138431549
10.693336267471313
10.685339295864106
10.676417984962463
10.750090923309326
10.89801655292511
10.998693060874938
11.00385950565338
11.02986212015152
11.172119154930115
11.339050612449647
11.363583583831787
11.256531341075897
11.213644862174988
11.304050378799438
11.378704645633697
11.372662634849549
11.384813182353973
11.394000000953675
11.272169077396393
11.112661364078521
11.124637825489044
11.255715193748474
11.317609565258026
11.303251540660858
11.309138219356537
11.366561527252196
11.446787431240082
11.503270230293275
11.512947874069214
11.484942109584809
11.429361219406127
11.343124339580536
11.21961837053299
11.069612700939178
10.902896838188171
10.753971273899078
10.725393362045288
10.81079229593277
10.82086502313614
10.694771296977997
10.593357462882995
10.613073101043701
10.67724660873413
10.665531311035156
10.57420531988144
10.518586928844451
10.543014352321626
10.592188663482666
10.614989845752715
10.591271395683288
10.556503582000733
10.543741974830628
10.525838723182678
10.494628946781159
10.467975335121155
10.437399487495423
10.400915081501006
10.377235457897186
10.384472107887268
10.43574919462204
10.519854509830475
10.598637969493867
10.62586466550827
10.56164196252823
10.436482603549956
10.34250742673874
10.306284675598144
10.317368967533112
10.391602220535278
10.470351445674897
10.466188232898713
10.41173449754715
10.389930384159088
10.410428066253662
10.405052211284637
10.300990574359894
10.148227927684784
10.092564034461976
10.152128427028655
10.197156686782836
10.175899679660796
10.161267013549805
10.179134993553161
10.198489792346955
10.303550605773927
10.567584877014161
10.79141734600067
10.778472366333007
10.668533427715301
10.673013362884522
10.77993281364441
10.84913786649704
10.837978405952454
10.863229360580444
10.973031401634216
11.056165401935578
11.06942492723465
11.086987192630767
11.15927785873413
11.239757726192474
11.247213320732117
11.22903869152069
11.280810492038727
11.330369131565094
11.260780489444732
11.12800852060318
11.061269466876984
11.058861255645752
11.023162939548492
10.937633671760558
10.87526843070984
10.8425643992424
10.782696180343628
10.740066101551056
10.79606060028076
10.895169477462769
10.924962067604065
10.84769647359848
10.725853166580201
10.650579521656036
10.586692616939544
10.453214898109437
10.310410215854645
10.241771364212036
10.237262754440307
10.294309647083283
10.408700518608093
10.522545647621154
10.632026562690735
10.779912030696869
10.917585873603821
10.960915369987488
10.933030660152435
10.91270145893097
10.896604242324829
10.847145082950592
10.807952778339386
10.798177120685578
10.725845034122466
10.570887084007262
10.459387786388398
10.46869334936142
10.502729692459106
10.419500296115876
10.262621996402741
10.180411961078644
10.14910305738449
10.06753258228302
9.95106597661972
9.873582026958466
9.882973818778991
9.934503154754639
9.939885506629944
9.94086159467697
10.031043589115143
10.149508757591247
10.195008478164674
10.211189370155335
10.265020804405212
10.309005637168884
10.305055930614472
10.31853581905365
10.381130864620209
10.435802974700927
10.456015763282776
10.461635036468506
10.47215436220169
10.50548130273819
10.53214123725891
10.505126349925995
10.491545286178589
10.592236533164979
10.734894945621491
10.780844209194184
10.759222557544708
10.758749940395354
10.744962210655212
10.660551006793975
10.526139438152313
10.405582659244537
10.37579283952713
10.450516867637635
10.540186007022857
10.576497220993042
10.577380068302155
10.539539721012115
10.451090943813323
10.427785139083863
10.600389037132263
10.85407948255539
10.932517399787903
10.814505090713501
10.730596880912781
10.803044543266296
10.911000559329986
10.95412512779236
10.9806698679924
10.96756912946701
10.830195844173431
10.653521001338959
10.566025319099426
10.5567289853096
10.5875675201416
10.635945360660553
10.653949193954467
10.636785571575166
10.629184987545013
10.636515567302704
10.606883974075318
10.526087210178375
10.44015102148056
10.342392811775207
10.208201150894165
10.095572896003723
10.045204155445099
10.022042672634125
10.003573727607726
10.00427750825882
10.04015091896057
10.103834624290466
10.12955528497696
10.0508931183815
9.950052990913392
9.964439253807068
10.033425498008729
10.003840067386626
9.915950632095337
9.911143426895142
9.973038094043732
9.973914997577667
9.884132614135742
9.811666562557221
9.851739029884339
9.948367092609406
9.969985690116882
9.91982944726944
9.931772239208222
10.013512630462646
10.010756735801698
9.904419350624085
9.847889139652253
9.886395542621612
9.927396538257598
9.919403424263
9.880818734169006
9.80861917257309
9.710570349693299
9.712987191677094
9.906654269695283
10.164207651615143
10.330923111438752
10.394144291877746
10.357229034900666
10.218035843372345
10.07790290594101
10.0363227891922
10.071317059993744
10.148987474441528
10.266087520122529
10.367101747989654
10.405897946357728
10.458662748336792
10.60087760925293
10.734275257587433
10.74405200958252
10.704089570045472
10.735707530975342
10.827140357494354
10.900172445774079
10.905451877117157
10.851807494163513
10.814745070934295
10.835703492164612
10.86075790643692
10.872138867378235
10.942120654582977
11.072059321403504
11.144961037635802
11.1175714635849
11.087818307876587
11.10661128282547
11.116459305286407
11.10774985551834
11.137702343463898
11.2070374584198
11.229476006031037
11.112061274051666
10.925549936294555
10.894228971004486
11.03716718673706
11.115724911689759
11.042440097332001
10.973811886310578
11.01727735042572
11.092985577583313
11.112931706905364
11.124279658794404
11.14568614244461
11.105509340763092
11.021699736118316
10.969722554683685
10.955458633899688
10.981047048568726
11.048505344390868
11.107007429599761
11.13289044380188
11.107482068538665
10.973013019561767
10.807157628536224
10.790110695362092
10.913386499881744
10.996650648117065
10.94278090953827
10.830473520755767
10.810793035030365
10.907888152599334
10.975891869068146
10.927272098064423
10.836398258209229
10.784178338050843
10.78097162246704
10.821090545654297
10.888870494365692
10.921377415657043
10.84729620695114
10.673823521137237
10.487046434879304
10.376459698677063
10.373127076625824
10.4264981508255
10.451255900859833
10.402536861896515
10.301466450691223
10.219357633590699
10.201188223361969
10.235861561298371
10.34350613117218
10.510884058475494
10.583423810005188
10.489617931842805
10.386388120651246
10.375807876586913
10.360722980499268
10.28119090795517
10.227390403747558
10.252668664455413
10.289030420780183
10.304649515151977
10.337190153598785
10.357172436714173
10.295297009944916
10.162971706390381
10.03530940771103
9.985962088108062
10.023878180980683
10.077406802177428
10.107521178722381
10.142351775169372
10.173265945911407
10.160634496212005
10.111001188755035
10.049185993671417
10.000067961215972
9.993533689975738
9.985283553600311
9.910875182151795
9.846114630699157
9.895583627223969
10.010962629318238
10.11374004840851
10.212739617824555
10.277874028682708
10.261812887191773
10.257911751270294
10.361806557178497
10.514574038982392
10.639466655254363
10.726553273200988
10.756511332988739
10.72276993751526
10.70650562286377
10.783040931224823
10.891756391525268
10.911938471794128
10.843885221481322
10.800081236362457
10.799600763320923
10.745976338386535
10.65220463514328
10.662419052124024
10.800634360313415
10.89707023382187
10.832134160995484
10.717980921268463
10.711895341873168
10.773945603370667
10.765591504573822
10.65975233078003
10.54838604927063
10.532655770778655
10.6416215467453
10.80685226917267
10.924450294971466
10.96337461233139
10.960618801116944
10.917446117401123
10.834443261623383
10.821677742004395
10.95458698272705
11.09146670103073
11.069730875492096
10.952628018856048
10.899925963878632
10.953287920951844
11.046536004543304
11.100317256450653
11.066091911792755
10.941161105632782
10.779235560894012
10.64853972196579
10.55748672246933
10.482491009235382
10.420612676143646
10.371866788864136
10.356271450519563
10.388009350299836
10.411821370124818
10.38682825565338
10.354683680534363
10.338614468574525
10.297942197322845
10.22756592273712
10.195453476905822
10.228344883918762
10.250359299182891
10.220852072238921
10.203927800655364
10.237252917289734
10.270206336975098
10.245318512916565
10.195105521678924
10.23367659330368
10.381428551673888
10.497296452522278
10.51386925458908
10.52675428390503
10.58421838760376
10.650813870429992
10.710383200645447
10.73292043209076
10.6800843501091
10.6035382938385
10.600746209621429
10.643190150260926
10.61176572561264
10.53042934179306
10.513428900241852
10.519069249629974
10.457533288002015
10.393938930034638
10.411783549785614
10.486549670696258
10.569576115608216
10.612051992416381
10.584580669403076
10.542474195957183
10.54121936559677
10.56479611158371
10.588819997310638
10.599988758563995
10.611647741794586
10.659979960918427
10.728751504421234
10.76893145084381
10.756223454475403
10.699976868629456
10.643661186695098
10.606280527114869
10.581262838840484
10.608576855659486
10.71476346731186
10.820800499916077
10.812270016670228
10.703465065956117
10.646341948509216
10.719114263057708
10.844757585525512
10.919957690238952
10.89866533756256
10.812667393684388
10.727928493022919
10.654814853668213
10.572185096740723
10.500358779430389
10.451879587173462
10.414752259254456
10.407633836269378
10.404868369102479
10.33010006427765
10.219794018268585
10.201713523864747
10.288310194015503
10.36415749311447
10.37346095085144
10.354247238636017
10.332229113578796
10.339209246635438
10.419527173042297
10.517169489860535
10.521146214008331
10.445579595565796
10.37980574131012
10.322142617702484
10.257993614673614
10.23632131576538
10.26335298538208
10.324380757808685
10.429122002124787
10.529043056964873
10.545967237949371
10.473689868450165
10.387273995876312
10.35372793674469
10.336658778190612
10.279033064842224
10.221714234352111
10.219564688205718
10.257401127815246
10.296165871620179
10.291118881702424
10.194945373535155
10.046233484745025
9.983818089962005
10.056851468086244
10.152604677677154
10.180985703468323
10.162802796363831
10.160829842090607
10.218935108184814
10.314355466365814
10.37337954044342
10.381717143058777
10.425989708900453
10.543191757202148
10.625133564472199
10.57193445444107
10.444216523170471
10.402823555469514
10.489759232997894
10.540866508483887
10.436262621879578
10.264970588684083
10.129655668735504
10.022971656322479
9.930903143882752
9.889625627994537
9.900734028816224
9.852253131866455
9.676635115146636
9.534790630340575
9.589005546569824
9.758394899368286
9.894469404220581
9.936210811138153
9.894508337974548
9.833470816612243
9.76094961643219
9.639515223503112
9.53388997077942
9.534942219257355
9.620392875671387
9.717431094646454
9.793205587863921
9.8639688372612
9.953644554615021
10.039779391288757
10.069164800643922
10.012715735435485
9.917582635879517
9.907882633209228
10.032500777244568
10.163741228580475
10.177164998054504
10.118135471343994
10.0819637966156
10.066112458705902
10.041870503425598
10.040333979129791
10.062798295021057
10.043938817977905
9.983694536685944
9.953648231029511
9.94167940378189
9.88387538433075
9.842149257659912
9.93167539358139
10.093737330436706
10.170880069732666
10.183647060394287
10.278306348323822
10.414382426738738
10.43475308895111
10.407881274223328
10.508951132297517
10.691918261051178
10.789824447631837
10.787642245292664
10.814129095077515
10.892019398212433
10.871899333000183
10.707533667087555
10.553353521823883
10.506481914520263
10.537302763462067
10.626414816379548
10.736506597995758
10.805110714435578
10.809868955612183
10.742234981060028
10.648256511688233
10.615847415924073
10.620881309509278
10.56429615020752
10.444746377468109
10.357369570732116
10.335329685211182
10.33472559928894
10.382981638908387
10.492823457717895
10.512178976535797
10.372533738613129
10.26084985256195
10.277945919036865
10.286683123111725
10.23483375787735
10.218946571350097
10.217546725273133
10.117096374034881
9.977468423843384
9.989122984409333
10.171819369792939
10.33894225358963
10.371261439323426
10.346567294597627
10.364452786445618
10.397215926647187
10.401824142932892
10.419727189540863
10.459256391525269
10.460845520496369
10.436999638080596
10.451902244091034
10.46086419582367
10.380925946235656
10.268203992843628
10.221600229740142
10.19568687915802
10.104691429138184
10.029508855342865
10.09058392047882
10.215595223903655
10.26627884864807
10.248435072898864
10.210256690979003
10.134155285358428
10.056344449520111
10.055048613548278
10.117165744304657
10.200809996128083
10.295372543334961
10.371392464637756
10.394642181396485
10.382569692134858
10.391537981033325
10.405473396778106
10.36518441438675
10.311946005821229
10.28644939661026
10.23237491607666
10.166425204277038
10.194377975463867
10.298466374874115
10.369781215190887
10.392102515697479
10.381024889945984
10.299469933509826
10.164746325016022
10.090697612762451
10.130458972454072
10.152465183734893
10.029295239448548
9.876336686611175
9.87459272146225
9.978069286346436
10.009052367210389
9.940634443759919
9.89110729932785
9.885713198184966
9.84849020242691
9.797830581665039
9.832381730079652
9.953820159435272
10.043207688331604
10.022691655158997
9.965552270412445
9.966119072437287
10.006022038459777
10.061088037490844
10.156106038093567
10.252979536056518
10.27989530324936
10.235767958164216
10.18618186712265
10.226576375961304
10.362333121299743
10.438958342075347
10.376813826560975
10.305822546482085
10.30590271949768
10.313603818416595
10.313995327949524
10.34050957918167
10.348470652103424
10.259821662902832
10.118766167163848
10.048414280414582
10.03959044456482
10.007600934505463
9.989861648082734
10.050553753376008
10.102647988796233
10.03361407995224
9.925619802474976
9.918371868133544
9.960808055400848
9.973882174491882
10.045468010902404
10.211565265655517
10.34631944656372
10.402749168872834
10.453659825325012
10.499585449695587
10.470736198425293
10.366289405822753
10.256139228343963
10.165124685764313
10.054782977104187
9.95648908138275
9.978780241012574
10.08777532339096
10.093778851032257
9.959206855297088
9.88603705406189
10.0017671585083
10.142323780059815
10.109370999336242
9.996074912548066
9.986077270507813
10.020919156074523
9.989770975112915
9.986579039096831
10.098615164756774
10.207113060951233
10.187832078933717
10.114935784339904
10.12733722925186
10.19613956451416
10.196313512325286
10.134584612846375
10.091637589931487
10.047873733043671
9.959857003688812
9.913108375072479
10.019153428077697
10.21257640361786
10.354429178237915
10.433636610507966
10.480646247863769
10.476929655075073
10.46041314125061
10.527447743415832
10.681193211078643
10.807398405075073
10.856407210826873
10.9242724776268
11.038530766963959
11.069608263969421
10.964364676475524
10.802806022167205
10.646656918525697
10.528871059417725
10.484408915042877
10.523996589183808
10.617453019618988
10.705066146850585
10.767301199436188
10.840421667099
10.882805166244507
10.803736028671265
10.686303553581238
10.670028076171874
10.704610078334808
10.705132632255554
10.711966297626496
10.795793335437775
10.948835482597351
11.045570163726806
11.000839416980744
10.935601258277893
10.965948848724365
10.984021656513214
10.876245744228363
10.738672909736634
10.701143941879273
10.74237370967865
10.781727607250213
10.806766548156737
10.840351305007935
10.864120330810547
10.841726727485657
10.813398880958557
10.867462511062621
10.959376592636108
10.962918620109559
10.901056015491486
10.863967049121857
10.867698833942413
10.94078194141388
11.076960394382477
11.12552619457245
10.984306206703186
10.785856628417969
10.681531603336333
10.617674341201782
10.505078871250152
10.421504504680634
10.47771719455719
10.593613896369934
10.608597776889802
10.550676026344298
10.551350281238555
10.581841855049133
10.523246786594392
10.425940365791321
10.451769411563873
10.553486607074738
10.538858296871185
10.46704488992691
10.514596288204194
10.595953192710876
10.584491271972656
10.538637516498566
10.489322566986084
10.408694043159485
10.319550635814666
10.259238846302033
10.273524777889252
10.340004379749297
10.300831155776978
10.114951379299164
9.997207365036012
10.090922520160674
10.251544823646546
10.284697415828704
10.193178920745849
10.102491290569306
10.094380254745483
10.16599669456482
10.24727343082428
10.26069804906845
10.19553757429123
10.118251674175262
10.121802630424499
10.200418267250061
10.216654133796691
10.113888554573059
10.004100427627563
9.934564208984375
9.825167288780213
9.706242229938507
9.706544198989867
9.803099274635315
9.885556359291076
9.969384815692901
10.106106493473053
10.216892895698548
10.208375365734101
10.183861520290375
10.3242684340477
10.56185388326645
10.645352177619934
10.554230558872224
10.520244851112366
10.597980597019195
10.620951850414276
10.606756660938263
10.69899908065796
10.788993208408355
10.713316333293914
10.586403892040252
10.580947599411012
10.694236278533936
10.803487334251404
10.773523485660553
10.641079773902893
10.56519859790802
10.526972773075103
10.443813948631286
10.44485904455185
10.628360857963562
10.796672799587249
10.761651134490966
10.65329726934433
10.650903961658479
10.675391540527343
10.615060265064239
10.535090520381928
10.471628768444061
10.37373200416565
10.283325092792511
10.28923049211502
10.369484853744506
10.411346876621247
10.356344337463378
10.30418267250061
10.359881699085236
10.418482615947724
10.381012666225434
10.390720419883728
10.525347354412078
10.628328130245208
10.629304568767548
10.636392242908478
10.698636767864228
10.718653266429902
10.624403808116913
10.50208598613739
10.428588902950287
10.320094819068908
10.133113632202148
10.017121369838714
10.066054093837739
10.159193675518036
10.196856546401978
10.196412901878357
10.145989491939545
10.060574700832367
10.072607946395873
10.2222869515419
10.332407898902893
10.30156894683838
10.251300983428955
10.281677904129028
10.384407043457031
10.499530417919159
10.560875337123871
10.619676508903503
10.737650611400603
10.804299578666686
10.734154999256134
10.645895593166351
10.651994466781616
10.684421064853668
10.664324738979339
10.64170705318451
10.647568848133087
10.640738141536712
10.64529371738434
10.715724368095398
10.799747738838196
10.77749436378479
10.613300218582154
10.443717789649963
10.451928238868714
10.618977043628693
10.775670297145844
10.864955439567566
10.926528964042664
10.935766706466675
10.86121990442276
10.769928088188172
10.71484114408493
10.64276463985443
10.518549830913544
10.403210954666138
10.343672451972962
10.309125478267669
10.309501345157623
10.41258849620819
10.562623221874237
10.601308553218841
10.513127121925354
10.439877460002899
10.45839418411255
10.52199963092804
10.59594707250595
10.682762022018432
10.722100801467896
10.671143887043
10.646948935985565
10.71696249961853
10.768735542297364
10.763446762561799
10.748976757526398
10.720221283435821
10.676211152076721
10.584977021217346
10.395625088214874
10.189303250312806
10.081875169277192
10.053915598392486
10.031424460411072
9.991781060695649
9.938823568820954
9.903015213012695
9.952347452640533
10.07741459608078
10.154510571956635
10.132601826190948
10.13236430644989
10.272204484939575
10.510123765468597
10.7413729596138
10.974974222183228
11.270900814533233
11.530991685390472
11.613236513137817
11.565193889141083
11.491037354469299
11.342666223049164
11.402162275314332
11.678874781131745
11.842735602855683
11.863430697917938
12.430899653434754
13.084990031719208
13.457590761184692
13.51365734577179
13.340032405853272
13.157504243850708
13.242967808246613
13.358672387599945
13.505589201450348
13.864319741725922
14.168664281368256
13.916747448444367
14.314245779514312
14.8009330701828
15.057208347320557
15.154424343109131
15.21085902929306
15.23129593372345
15.193130965232848
15.181219871044158
15.290184202194213
15.497735507488251
15.750135560035705
15.987320091724396
16.158733546733856
16.29511948108673
16.413634216785432
16.46280029296875
16.46320789575577
16.513979675769807
16.61912270307541
16.681364035606386
16.67746262073517
16.680485005378724
16.708016934394838
16.70074162006378
16.631766834259032
16.509476857185362
16.33190706014633
16.075467348098755
15.717453548908233
15.36443107843399
15.214113416671752
15.25961405992508
15.31310052871704
15.399417052268982
15.32257363319397
15.083421630859375
14.980453732013702
15.04578278541565
14.558907082080841
13.921191327571869
13.503674645423889
13.392897520065308
13.506918573379517
13.640622403621673
13.597512283325194
13.601508972644806
13.50881223678589
13.076333153247834
12.642708420753479
12.779181945323945
12.31225732088089
11.817221581935883
11.606005744934082
11.615030419826507
11.719732513427735
11.817471144199372
11.854274520874023
11.822470605373383
11.68319152355194
11.372182853221894
11.038364849090577
10.85217211484909
10.764199566841125
10.583548936843872
10.614023234844208
10.753345623016358
10.866475684642792
10.899099032878876
10.912238698005677
10.955577502250671
11.009724943637847
11.114863274097443
11.372698602676392
11.742715575695037
12.026330490112304
12.09012414932251
11.95902302980423
11.822818233966828
11.59652500152588
11.6355504322052
12.077017362117767
12.674251589775086
13.027415506839752
12.967333364486695
13.005036683082581
12.941628143787383
13.006373701095582
13.641740496158599
14.787275505065917
15.78472865819931
15.94401610136032
16.417955458164215
17.22526384353638
17.94994650363922
18.57433995485306
19.196967985630035
19.705201246738433
19.889651720523833
19.76371273994446
19.748077354431153
19.903300337791443
20.105230572223665
19.964587194919588
19.976404361724853
20.141473019123076
20.253374683856965
20.411849868297576
20.69110965490341
21.035155475139618
21.38804851770401
21.602380292415617
21.66043111562729
21.710859940052032
21.846587958335878
21.730510232448577
21.60188199043274
21.59282598257065
21.59276283979416
21.504284107685088
21.368896214962007
21.28180722475052
21.272427403926848
21.238894517421723
21.059566955566407
20.802565310001373
20.7059938788414
20.87629494190216
21.063824036121368
21.28149961948395
21.234279074668883
20.819683632850648
20.207630305290223
19.751824119091033
19.710759701728822
19.60105794429779
19.57577045917511
19.265673944950105
18.5368816781044
17.201221878528596
16.299411165714265
16.432679421901703
16.1740345287323
15.46745688199997
14.852384800910949
14.344035768508911
13.805159175395966
13.397405765056611
13.296498422622681
13.420471217632294
13.430399527549744
13.318566350936889
13.10248025417328
13.09865603685379
12.83972972393036
12.404945702552796
12.105832309722901
11.846368215084077
11.47702040195465
11.086690778732299
10.832235379219055
10.757651793956757
10.819568667411804
10.941618094444275
11.05277813911438
11.093370685577392
11.047555341720582
11.010463626384736
11.071152894496917
11.157378942966462
11.154168481826781
11.042830953598022
10.844006521701813
10.583606603145599
10.343987624645234
10.218843677043914
10.1835604596138
10.133805775642395
10.060614869594573
10.039029486179352
10.067549600601197
10.084223210811615
10.154972233772277
10.422422502040863
10.774128754138946
10.99779934644699
11.084277374744415
11.290556182861328
11.380631866455078
11.602324395179748
11.60686619758606
11.456056032180786
11.281848907470703
11.108185138702392
10.933292365074157
10.760042638778687
10.583739120960235
10.42477293252945
10.37377858877182
10.476161618232727
10.605539078712463
10.661219933032989
10.754446942806243
10.962725865840913
11.14768006324768
11.204943103790283
11.224839510917663
11.312549736499786
11.439001929759979
11.514576332569122
11.518214190006256
11.472021367549896
11.345011405944824
11.118503561019898
10.887354807853699
10.75720962524414
10.698926610946655
10.608300943374633
10.468625645637513
10.365413024425507
10.355286095142365
10.409235718250274
10.479370539188386
10.57301821231842
10.731161255836486
10.935329241752624
11.120024044513702
11.249777705669404
11.31555279970169
11.30745943069458
11.239952833652497
11.169981443881989
11.093624289035796
10.923441960811616
10.67236469745636
10.47160959482193
10.376805350780486
10.316242170333862
10.233218581676484
10.161748867034913
10.14569373846054
10.209243087768554
10.355748872756958
10.520187025070191
10.65409013748169
10.806251575946808
10.976312849521637
11.052297730445861
10.993242290019989
10.88812733411789
10.819445033073425
10.775861937999725
10.664784867763519
10.428607063293457
10.162848467826842
10.013327598571777
10.000511400699615
10.04055139541626
10.068577740192413
10.095759842395783
10.15275319814682
10.233523037433624
10.34724871635437
10.529002747535706
10.752290079593658
10.928860037326812
11.020980985164643
11.079733173847199
11.144943392276764
11.182618379592896
11.16264371395111
11.08741438150406
10.947513241767883
10.781762816905974
10.682654025554656
10.63846258163452
10.554249927997589
10.442683010101318
10.371610207557678
10.35642965078354
10.407043888568879
10.472208647727966
10.47334133863449
10.467622978687286
10.531727714538574
10.617070879936218
10.662578363418579
10.679983930587769
10.701967585086823
10.723345758914947
10.725072071552276
10.70196236371994
10.607786118984222
10.40936758518219
10.211163518428803
10.12389246225357
10.100156021118163
10.054455504417419
9.982666449546814
9.924689610004425
9.919491279125214
9.968428478240966
10.045888488292695
10.171616146564483
10.363272421360016
10.520253226757049
10.51974263906479
10.407568922042847
10.344954288005829
10.403565721511841
10.519259824752808
10.579587526321411
10.534892625808716
10.452432799339295
10.386862556934357
10.304117660522461
10.222626087665558
10.226670899391173
10.320445108413697
10.437425723075867
10.532603828907012
10.614104163646697
10.738249218463897
10.919292633533479
11.07097897052765
11.132205147743225
11.142210690975189
11.144076988697051
11.15037555217743
11.142980253696441
11.070328316688538
10.956211593151092
10.899940891265869
10.912861647605895
10.920149822235107
10.892298748493195
10.849271492958069
10.804580721855164
10.753922328948974
10.69124948978424
10.60586508512497
10.491300618648529
10.434213275909423
10.535203371047974
10.698565156459809
10.774501519203186
10.801225111484527
10.87927122592926
11.00480256319046
11.117261388301849
11.161347715854644
11.114098126888274
11.027855768203736
10.981645281314849
10.995337669849397
11.043662748336793
11.05972880601883
10.964806244373321
10.802862286567688
10.69627412557602
10.649618031978607
10.610612723827362
10.582367169857026
10.524936187267304
10.409580500125886
10.331308822631836
10.319221549034118
10.254899473190308
10.121330323219299
10.027821679115295
9.99257137298584
9.980558824539184
9.998918757438659
10.008072645664216
9.962662992477417
9.911601395606995
9.902374675273895
9.90150660276413
9.875867536067963
9.862585151195526
9.890330517292023
9.922266013622284
9.956186661720276
10.038662590980529
10.15944275856018
10.268853614330292
10.352245256900787
10.41996771812439
10.489311790466308
10.570633525848388
10.635801129341125
10.657896690368652
10.661220684051514
10.667139661312103
10.663250799179076
10.639435546398163
10.591290168762207
10.529190952777862
10.48186764240265
10.447839324474335
10.392175853252411
10.312144899368286
10.237053592205047
10.152671253681183
10.020965332984924
9.903142731189728
9.93400025844574
10.116997671127319
10.27905642747879
10.302235293388367
10.277043316364288
10.319428641796112
10.388705303668976
10.426410789489745
10.482551333904267
10.581959865093232
10.676478147506714
10.768081448078156
10.878913562297821
10.983127884864807
11.07268273115158
11.126955516338349
11.093043620586394
11.00638590812683
10.933515419960022
10.855979347229004
10.766369230747223
10.718587715625763
10.728843514919282
10.750052347183228
10.756905088424682
10.761414341926574
10.7435835146904
10.669186699390412
10.550788221359253
10.43821204662323
10.386704425811768
10.392824699878693
10.382306742668153
10.346281051635742
10.358763012886048
10.415436220169067
10.451182157993317
10.466604099273681
10.462841908931733
10.428174216747284
10.43424141407013
10.501774842739104
10.541278312206268
10.55764447927475
10.611149082183838
10.65848022699356
10.672830555438996
10.723714344501495
10.82606120109558
10.881034171581268
10.824825842380523
10.721615803241729
10.651250059604644
10.59938161611557
10.520480711460113
10.440447533130646
10.428184387683869
10.47128838300705
10.480078811645507
10.4482798910141
10.438139929771424
10.415336039066315
10.294296102523804
10.093495244979858
9.930281026363373
9.884619035720824
9.910907399654388
9.934651069641113
9.974824416637421
10.056901109218597
10.111417064666748
10.081511189937592
10.03707952260971
10.081405739784241
10.200976946353912
10.301268343925477
10.336159064769745
10.343100523948669
10.389024164676666
10.4662362241745
10.475902450084686
10.399986131191254
10.353425056934357
10.363327219486237
10.328086056709289
10.222047297954559
10.095892255306245
9.982774994373322
9.927000329494476
9.906118929386139
9.828587667942047
9.759585640430451
9.811759519577027
9.856163499355317
9.771612396240235
9.712854731082917
9.814548764228821
9.977334733009338
10.067294583320617
10.081664521694183
10.098896431922913
10.143359827995301
10.148200871944427
10.09455640077591
10.067422647476196
10.099495267868042
10.125287210941314
10.143046596050262
10.221589193344116
10.332801830768584
10.399085075855256
10.453535821437836
10.572961626052857
10.73425431728363
10.82508799791336
10.795024256706238
10.737150537967683
10.706143918037414
10.62916865348816
10.52408152103424
10.525839893817901
10.654570364952088
10.771641473770142
10.776868431568145
10.731439356803895
10.72100507736206
10.701683204174042
10.587793986797333
10.423627443313599
10.344223368167878
10.381809175014496
10.436216361522675
10.435159208774566
10.433714814186096
10.532789859771729
10.740685021877288
10.949697184562684
11.043207888603211
11.021369574069977
10.988943212032318
10.988169686794281
10.945290985107421
10.855237853527068
10.83652147769928
10.911004445552827
10.948353278636933
10.871116454601287
10.752518105506898
10.701995546817779
10.726629521846771
10.757162532806397
10.776870503425599
10.848267920017243
10.980700685977936
11.059982345104217
11.036268804073334
11.01545170545578
11.032835228443146
10.97867275238037
10.823229959011078
10.676847488880158
10.598897004127503
10.529201674461365
10.437376317977906
10.412813692092895
10.491433026790618
10.556957511901855
10.59038581609726
10.703112499713898
10.845793724060059
10.877537031173706
10.828205087184905
10.81042048215866
10.82670849084854
10.80810142993927
10.763052849769592
10.78822683095932
10.909743363857269
10.994288465976716
10.929953684806824
10.83188154220581
10.886808478832245
11.05551983833313
11.129573726654053
11.023099176883697
10.825816850662232
10.654792685508728
10.586842103004455
10.609562122821808
10.629397368431091
10.630434238910675
10.66787151813507
10.692037935256957
10.63150390148163
10.551104888916015
10.523323075771332
10.524694228172303
10.524845774173736
10.516768407821655
10.485101892948151
10.425162465572358
10.368259530067444
10.338091444969177
10.332949275970458
10.369318046569823
10.424766585826873
10.413940768241883
10.337436196804047
10.30933775663376
10.359731867313386
10.381719720363616
10.341096868515015
10.328571820259095
10.348341052532197
10.298854286670684
10.20162344455719
10.181303639411926
10.218762021064759
10.196436319351196
10.114296236038207
10.07187336206436
10.129525845050813
10.22285703420639
10.233065965175628
10.174639194011688
10.14880054473877
10.142898440361023
10.099552018642425
10.068862991333008
10.087581489086151
10.072980930805207
9.978923990726472
9.894623878002166
9.927291579246521
10.079289033412934
10.265741646289825
10.408743305206299
10.479845468997956
10.499024674892425
10.50228595495224
10.488698465824127
10.451325631141662
10.426389789581298
10.44232451915741
10.470654683113098
10.482525079250335
10.49129280090332
10.479968082904815
10.430171346664428
10.422679238319397
10.49272416830063
10.521471688747406
10.443443994522095
10.355110311508179
10.341903259754181
10.377136120796203
10.406914310455322
10.413982577323914
10.4067133975029
10.408770678043366
10.44414130449295
10.492661075592041
10.50557383775711
10.507689437866212
10.578851647377014
10.694173455238342
10.738864068984986
10.691750338077545
10.631192023754119
10.619422755241395
10.650144250392914
10.63713124036789
10.539795753955842
10.439128322601318
10.371435089111328
10.292540876865386
10.221745803356171
10.221731848716736
10.301686379909516
10.44676313638687
10.625665864944459
10.72415696144104
10.643086822032929
10.442295157909394
10.247225975990295
10.110239229202271
10.005208985805512
9.914868559837341
9.91882618188858
10.06393830537796
10.208994653224945
10.222312898635865
10.181362063884736
10.18556470632553
10.211428120136262
10.250464906692505
10.306198179721832
10.30968444108963
10.23107954978943
10.11921855211258
10.029498746395111
10.03701753616333
10.18425151348114
10.363235960006714
10.425305862426757
10.383964543342591
10.365006728172302
10.41193192243576
10.442031154632568
10.408243832588196
10.375295798778534
10.367445979118347
10.348216834068298
10.341113951206207
10.334077031612397
10.233176305294037
10.067362205982208
9.972529485225678
9.955163795948028
9.915735623836518
9.85163269996643
9.846325900554657
9.907714445590972
9.98139218568802
10.039944400787354
10.059110045433044
10.042814786434173
10.040407001972198
10.052860140800476
10.051088502407074
10.067485768795013
10.141308746337891
10.240387308597565
10.338193216323852
10.457962601184844
10.572765340805054
10.651077017784118
10.720509133338929
10.717449333667755
10.579450657367707
10.465763936042785
10.517208282947541
10.606830689907074
10.592406480312347
10.545106959342956
10.54419674873352
10.54308701992035
10.538739717006683
10.577252020835877
10.639339060783387
10.694378859996796
10.722390251159668
10.686963725090028
10.595704536437989
10.503951089382172
10.439412157535553
10.380309450626374
10.332921516895293
10.360341935157775
10.447999682426452
10.504023454189301
10.541796271800996
10.61403782606125
10.650862250328064
10.624404392242432
10.659604375362397
10.78554871082306
10.856336567401886
10.817104151248932
10.77393721818924
10.777512500286102
10.758527944087982
10.691286540031433
10.651727526187896
10.69052759885788
10.7953093791008
10.911773059368134
10.91737072944641
10.764001231193543
10.592526242733001
10.506556839942933
10.449561638832092
10.409190480709077
10.42191133737564
10.396486654281617
10.25741065979004
10.125550389289856
10.12699737071991
10.225477662086487
10.32136752128601
10.349359240531921
10.306638944149018
10.262278916835784
10.26938926935196
10.288161752223969
10.296515951156616
10.349604923725128
10.44522266626358
10.517146112918853
10.564359500408173
10.626283688545227
10.713843276500702
10.818987991809845
10.901765916347504
10.928091397285462
10.945540792942047
11.02872495174408
11.144043037891388
11.184578218460082
11.152245042324067
11.135845308303834
11.13144802570343
11.072308623790741
10.980631749629975
10.912977318763733
10.866692023277283
10.857760145664216
10.903936715126038
10.952697196006774
10.967755832672118
10.955252873897553
10.911239607334137
10.838786435127258
10.769767453670502
10.764027724266052
10.82086520433426
10.842635514736175
10.83274735212326
10.902564194202423
10.997969343662263
10.971035752296448
10.865987029075622
10.807416317462922
10.784337937831879
10.76660403251648
10.803535060882568
10.880563478469849
10.910013568401336
10.901182782649993
10.924837737083434
10.979792330265045
11.043105561733245
11.099847826957703
11.12112552165985
11.120336151123047
11.093635156154633
10.966825792789459
10.768780541419982
10.64880033493042
10.619991357326507
10.549753634929656
10.401854283809662
10.264867570400238
10.202758071422577
10.174676420688629
10.110479230880737
10.040495038032532
10.015195183753967
9.9542950797081
9.77660786628723
9.589136288166046
9.56254061460495
9.694965658187867
9.84232453584671
9.93166229248047
9.980150330066682
9.960958623886109
9.866475193500518
9.806859867572784
9.861908826828003
9.957020771503448
10.000782470703125
10.034289646148682
10.117788500785828
10.179440417289733
10.154046092033386
10.129547083377838
10.188677241802216
10.261681458950044
10.252598452568055
10.194468150138855
10.192961282730103
10.26316251039505
10.310400438308715
10.300151636600495
10.317838225364685
10.399900605678559
10.456743216514587
10.401152334213258
10.27132581949234
10.172034168243409
10.111281931400299
10.036925423145295
9.966581094264985
9.919438183307648
9.889375247955321
9.94436894416809
10.127287271022796
10.291478207111359
10.271865041255952
10.166615097522735
10.188714585304261
10.305882997512818
10.345699338912963
10.339216549396514
10.387241396903992
10.392803463935852
10.288004765510559
10.256909832954406
10.45555063009262
10.714444499015809
10.748358690738678
10.593067443370819
10.523457889556886
10.576762287616729
10.572375826835632
10.502543241977692
10.501964612007141
10.548438148498535
10.515813286304473
10.431374759674073
10.42201188325882
10.482253735065461
10.513274953365325
10.507957267761231
10.49986127614975
10.468507249355316
10.42887668132782
10.430191791057586
10.477675743103028
10.554983837604523
10.612786066532134
10.597494525909424
10.531870484352112
10.452668352127075
10.36904139995575
10.305950734615326
10.270975952148438
10.229603917598725
10.139761612415313
10.01292626619339
9.93618394613266
9.956936881542205
10.028865742683411
10.106957926750184
10.166859016418456
10.16644234418869
10.090142550468444
10.027457785606384
10.111096482276917
10.293645224571229
10.359034388065337
10.262867820262908
10.153659927845002
10.050188100337982
9.916853778362274
9.887650711536407
10.026634669303894
10.145107846260071
10.076175096035003
9.912217032909393
9.861617290973664
9.932812733650207
9.944696004390716
9.878640916347504
9.8950000333786
9.997682962417603
10.055627562999724
10.087658641338349
10.187321610450745
10.290573720932008
10.288592464923859
10.23093050479889
10.21500818014145
10.210435035228729
10.185613980293274
10.223521780967712
10.331274743080138
10.40424756526947
10.427430956363677
10.457822179794311
10.495077052116393
10.489211843013763
10.427102317810059
10.381343007087708
10.383920056819916
10.342514362335205
10.237180418968201
10.210412895679474
10.351595544815064
10.552884140014648
10.645440232753753
10.609876239299775
10.546508226394653
10.50039444208145
10.455017130374909
10.423497397899627
10.428036780357361
10.419453220367432
10.327389347553254
10.190235662460328
10.111535913944245
10.091999714374543
10.071301093101502
10.099620609283447
10.207550156116486
10.249660453796388
10.182854428291321
10.200599861145019
10.37135641336441
10.516210010051728
10.520012505054474
10.4787415766716
10.51013262271881
10.548795053958893
10.46907424211502
10.343680031299591
10.307300045490265
10.300242476463318
10.23957103729248
10.22372807264328
10.342494390010835
10.472543821334838
10.439270460605622
10.288923535346985
10.18581256866455
10.137654194831848
10.080565094947815
10.045747187137604
10.047992649078369
10.016771442890168
9.93583554506302
9.918345954418182
10.046024017333984
10.20913770198822
10.267743213176727
10.277797842025757
10.328748469352723
10.33175576210022
10.205405011177064
10.049153175354004
9.995952622890472
10.06591808795929
10.181425344944
10.242104940414428
10.21978964805603
10.167386481761932
10.145125558376312
10.191386504173279
10.290098719596863
10.39593609571457
10.501355125904084
10.603876881599426
10.686600289344788
10.721309888362885
10.699356896877289
10.694480760097504
10.731255435943604
10.686994524002076
10.512213430404664
10.339007501602174
10.297463409900665
10.361001048088074
10.382546637058258
10.320025746822358
10.290772168636321
10.308388812541962
10.278188753128052
10.242281394004822
10.27334861278534
10.278622436523438
10.171769564151765
10.047412474155426
10.050867052078248
10.184210689067841
10.326873013973236
10.40011150121689
10.397327327728272
10.343922491073608
10.304468233585357
10.303110511302949
10.285714929103852
10.234134094715118
10.202914345264436
10.232501225471497
10.29412056684494
10.32662393808365
10.328975875377655
10.366926481723786
10.469978239536285
10.594279575347901
10.670666086673737
10.656188611984254
10.59215059518814
10.582241456508637
10.661113677024842
10.764787640571594
10.804691190719604
10.715811176300049
10.552506954669953
10.43798570394516
10.371845619678497
10.292533674240111
10.210629353523254
10.16749205350876
10.179582722187043
10.208893218040465
10.213742499351502
10.240851564407349
10.348051991462707
10.471327257156371
10.481118268966675
10.377814416885377
10.307559881210327
10.319272308349609
10.33266191482544
10.344463071823121
10.385926170349121
10.390504484176637
10.31978458404541
10.264859714508056
10.29628879070282
10.361217775344848
10.375348210334778
10.31931688785553
10.246182918548584
10.227044591903686
10.278494868278504
10.327569222450256
10.303128561973573
10.266690497398377
10.312426047325134
10.394807224273682
10.421200437545776
10.394290266036988
10.368428959846497
10.381198844909669
10.441325325965881
10.525352382659912
10.586377210617066
10.594973697662354
10.577645740509034
10.563327569961547
10.525688424110413
10.44774302482605
10.371595072746278
10.318773121833802
10.26997814655304
10.270815167427063
10.356917428970338
10.4097150182724
10.330893793106078
10.220663318634033
10.220898394584657
10.326716976165772
10.430597376823425
10.480033044815064
10.526938047409057
10.609835453033448
10.668607730865478
10.672051496505738
10.710651960372925
10.802405557632447
10.837611675262451
10.845619077682494
10.931372756958007
10.998823776245118
10.934569826126099
10.84524332523346
10.860480971336365
10.911031422615052
10.857517213821412
10.746012234687806
10.747644844055175
10.842639427185059
10.835963940620422
10.6885094499588
10.547855043411255
10.499281554222106
10.482747611999512
10.429963226318359
10.360890855789185
10.296023921966553
10.206938309669495
10.11766393661499
10.089505481719971
10.083500747680665
10.025081496238709
9.968685278892517
9.996225070953368
10.059469289779663
10.083243093490601
10.077064528465272
10.091727166175842
10.17940170288086
10.326192326545716
10.418344826698304
10.414799761772155
10.420280804634094
10.480508003234863
10.525096354484559
10.557391381263733
10.676015648841858
10.879019513130189
11.029416341781616
11.036345934867859
10.928261952400208
10.754612097740173
10.567937831878663
10.459779000282287
10.439416007995606
10.406332402229308
10.368987874984741
10.414778032302856
10.452106518745422
10.346562128067017
10.202030658721924
10.189452848434449
10.256894636154176
10.24815402507782
10.19106885433197
10.231596360206604
10.329501357078552
10.317510666847229
10.230107774734497
10.225748987197877
10.28713577747345
10.315997562408448
10.343454885482789
10.431825013160706
10.544937438964844
10.615971999168396
10.631955795288086
10.621664242744446
10.594509477615356
10.528712291717529
10.455333299636841
10.43554437160492
10.424160046577454
10.352383303642274
10.266578316688538
10.216975345611573
10.179547295570373
10.136563315391541
10.08720688343048
10.033360266685486
10.037280621528625
10.16702033519745
10.321949639320373
10.338709144592285
10.287836527824402
10.319977960586549
10.329197297096252
10.160179824829102
9.95382152080536
9.94700870037079
10.10739462852478
10.234517641067505
10.254103245735168
10.222583985328674
10.21786801815033
10.277270522117615
10.321928033828735
10.273514456748963
10.236117162704467
10.336305317878724
10.522076358795166
10.671299757957458
10.73107551574707
10.713815841674805
10.643251996040345
10.528231387138367
10.395037813186645
10.280545873641968
10.19962595462799
10.190678791999817
10.288293104171753
10.403706278800964
10.411921195983886
10.341833729743957
10.279826302528381
10.224260325431823
10.178736815452575
10.173907947540282
10.198846921920776
10.233423109054565
10.24149422645569
10.181929788589478
10.103826842308045
10.097915005683898
10.163239493370057
10.234938797950745
10.301563515663148
10.393766188621521
10.47628743171692
10.49062008857727
10.455326919555665
10.381303334236145
10.247860865592957
10.101981453895569
10.002547755241395
9.956389894485474
9.957614431381225
9.983767538070678
9.978232760429382
9.90706545829773
9.837384462356567
9.845297021865845
9.881130361557007
9.889859642982483
9.90303358078003
9.895949215888978
9.809353318214416
9.70691140651703
9.677856497764587
9.686008343696594
9.63979308128357
9.52632474899292
9.430844984054566
9.41159619808197
9.425835723876952
9.463858623504638
9.597354884147643
9.805879573822022
9.940560617446899
9.915912351608277
9.804650959968567
9.714209394454956
9.67410608291626
9.672693037986756
9.715902752876282
9.79098725795746
9.85433084487915
9.920444955825806
10.025153436660766
10.130954694747924
10.217364010810853
10.303163886070251
10.34466049671173
10.295181784629822
10.199579701423644
10.136623673439026
10.123813095092773
10.108280696868896
10.058056926727295
10.011702914237976
10.00239646434784
10.027112712860108
10.097973046302796
10.230848145484924
10.389019289016723
10.49885151386261
10.540178060531616
10.544229097366333
10.507771410942077
10.427089581489563
10.345948348045349
10.291923151016235
10.253441843986511
10.20687617301941
10.144365057945251
10.128159670829772
10.219055223464967
10.347136359214783
10.3961638879776
10.351286702156067
10.293222699165344
10.295264101028442
10.358922934532165
10.454254865646362
10.54224498271942
10.55008915901184
10.45384048461914
10.352014031410217
10.340196876525878
10.402723774909973
10.466298880577087
10.482491421699525
10.483815178871154
10.521734609603882
10.542888269424438
10.49000943183899
10.44427318572998
10.462109813690185
10.452396364212037
10.353392758369445
10.210750913619995
10.079842057228088
10.027970809936523
10.110300559997558
10.260778708457947
10.35745437145233
10.379434494972228
10.395269374847413
10.42992325782776
10.417715106010437
10.323076314926148
10.208920693397522
10.120175967216491
10.026203918457032
9.903965377807618
9.79292112827301
9.738275146484375
9.731640696525574
9.771198873519898
9.855000081062316
9.899893016815186
9.847051920890808
9.782087202072143
9.831289925575255
9.983858013153077
10.085691413879395
10.052395420074463
9.959122223854065
9.887621893882752
9.886292390823364
9.987818264961243
10.120674600601197
10.156868934631348
10.07607843875885
9.98406017780304
9.986706852912903
10.064013514518738
10.09983588218689
10.063936786651611
10.024377717971802
10.010088253021241
10.019969906806946
10.033008093833923
10.000140590667725
9.948887648582458
9.95052041053772
9.989511189460755
10.022955141067506
10.060624256134034
10.112136397361756
10.18352472782135
10.294755754470826
10.396089792251587
10.403512516021728
10.341101446151733
10.288777594566346
10.263379726409912
10.242191405296326
10.231153411865234
10.275826654434205
10.384790353775024
10.476143283843994
10.50521089553833
10.558004689216613
10.681976780891418
10.771270480155945
10.759583334922791
10.74758722782135
10.814587411880494
10.898051981925965
10.927190685272217
10.935367846488953
10.976711134910584
10.994349265098572
10.923622603416442
10.825417232513427
10.777046675682067
10.808110733032226
10.90417809009552
10.945139579772949
10.844701590538024
10.744046063423157
10.808762655258178
10.965174870491028
11.062906389236451
11.068868746757508
11.002927603721618
10.911716966629028
10.859814167022705
10.856955919265747
10.868417510986328
10.869696016311645
10.878633213043212
10.934864339828492
11.032276463508605
11.126652898788452
11.173088870048524
11.135295267105102
11.058081784248351
11.050042295455933
11.096376304626466
11.078424801826477
10.996361417770386
10.935053343772887
10.893795065879821
10.852170901298523
10.869628462791443
10.955484499931336
10.9933402967453
10.905272722244263
10.743709135055543
10.62585265159607
10.622882704734803
10.655797047615051
10.602420463562012
10.487850584983825
10.40444179058075
10.35441171169281
10.294891748428345
10.221564269065857
10.172391777038575
10.172827014923095
10.181195945739747
10.149128775596619
10.087450647354126
10.043815174102782
10.055737204551697
10.100893263816834
10.139532079696655
10.205883808135987
10.322346782684326
10.375251126289367
10.280274505615234
10.141976861953735
10.065727362632751
10.052276878356933
10.106067552566529
10.20733962059021
10.281699953079224
10.275009093284607
10.217586965560914
10.235977644920348
10.376387186050415
10.48574194908142
10.437967023849488
10.301215281486511
10.189737048149109
10.124187116622926
10.080131549835205
10.062330770492554
10.092721991539001
10.158245186805726
10.200823078155517
10.19465980052948
10.197842354774474
10.239249901771545
10.228943252563477
10.120013127326965
10.024537086486816
10.032653541564942
10.0844868850708
10.087445378303528
10.036970601081848
10.0083758020401
10.05915412902832
10.160666828155518
10.25001033782959
10.286745433807374
10.26742651462555
10.264747762680054
10.345509395599365
10.41800567150116
10.341932601928711
10.155832266807556
10.039094696044922
10.070342273712159
10.146309614181519
10.182990555763245
10.210373873710632
10.210154581069947
10.128800930976867
10.050892777442932
10.084630408287047
10.176827158927917
10.23483965396881
10.244598083496093
10.230356068611146
10.229500417709351
10.246345415115357
10.275958175659179
10.323829321861266
10.294894905090333
10.108937039375306
9.91425555229187
9.910386853218078
10.066704802513122
10.199679231643676
10.25009750843048
10.29746593952179
10.331530141830445
10.27205060005188
10.187951860427857
10.224588856697082
10.328556995391846
10.317622566223145
10.203605289459228
10.13336166381836
10.118556866645813
10.098056116104125
10.085690364837646
10.122246470451355
10.202548322677613
10.266704950332642
10.249782938957214
10.167324981689454
10.13168293952942
10.228334798812867
10.396366362571717
10.506669578552247
10.494585061073304
10.398893928527832
10.35695812702179
10.473849811553954
10.687306160926818
10.852326579093933
10.887099461555481
10.81092348098755
10.678587679862977
10.53996428489685
10.468594317436219
10.48393367767334
10.49881251335144
10.461222558021545
10.416985673904419
10.409942331314086
10.439247598648072
10.476762037277222
10.497403845787048
10.52186275959015
10.562312970161438
10.571816878318787
10.557785897254943
10.605165548324585
10.712340288162231
10.759915795326233
10.656801137924194
10.456964960098267
10.298110928535461
10.24276864528656
10.287439618110657
10.412716207504273
10.512267994880677
10.49352301120758
10.466701064109802
10.557845501899719
10.658668274879455
10.65967276573181
10.660885667800903
10.735090708732605
10.807748217582702
10.819310932159423
10.791680603027343
10.779033737182617
10.802775716781616
10.811710028648376
10.742634596824645
10.632767271995544
10.593236017227174
10.628617639541625
10.629657468795777
10.57253457069397
10.516572213172912
10.455984025001525
10.366794991493226
10.289633030891418
10.26181423664093
10.27433494091034
10.323113999366761
10.406927733421325
10.485181169509888
10.533919105529785
10.582778267860412
10.630045680999755
10.648477902412415
10.672463688850403
10.740070562362671
10.817869205474853
10.845614814758301
10.798639559745789
10.734708132743835
10.742985563278198
10.801018090248109
10.797222709655761
10.696391673088074
10.591616034507751
10.61673746585846
10.781268472671508
10.922322444915771
10.915755186080933
10.815218071937561
10.734801979064942
10.721778445243835
10.747987036705018
10.77538492679596
10.806431493759156
10.86562077999115
10.954895343780517
11.033112740516662
11.054749574661255
11.031353621482848
11.012528676986694
11.005872793197632
10.988584790229798
10.974144840240479
10.985478954315186
11.00428189277649
10.980503997802735
10.897776598930358
10.820724120140076
10.813120036125182
10.862733101844787
10.944175410270692
11.045322003364562
11.106156983375548
11.05502703666687
10.925080060958862
10.838718113899231
10.831875052452087
10.802255420684814
10.725854921340943
10.711589436531067
10.74445963859558
10.709149875640868
10.645325746536255
10.631957259178161
10.600073719024659
10.506827754974365
10.459160199165344
10.519652705192566
10.58400487422943
10.563684167861938
10.534447450637817
10.579172015190125
10.649414620399476
10.687163772583007
10.704133749008179
10.714382948875427
10.704909887313843
10.658870058059692
10.59731415271759
10.561464262008666
10.5322652053833
10.44681945323944
10.286850056648255
10.11278703212738
10.001355805397033
9.931606802940369
9.837399349212646
9.775055594444275
9.829680523872376
9.941512084007263
10.026227474212646
10.087351126670837
10.131660571098328
10.132822246551514
10.066438145637512
9.937963013648988
9.778300161361694
9.629268732070923
9.561893887519837
9.5865948677063
9.583745260238647
9.526896739006043
9.559511675834656
9.71735237121582
9.888562240600585
9.984533166885376
9.972512536048889
9.91339282989502
9.876461453437805
9.808346152305603
9.72221794605255
9.74976984500885
9.869480447769165
9.928207640647889
9.889048318862915
9.824578170776368
9.789432735443116
9.795093231201172
9.80121446609497
9.74693965435028
9.639208040237428
9.552228870391845
9.52518078327179
9.520229973793029
9.512200012207032
9.523932642936707
9.571196346282958
9.654989094734193
9.732926115989684
9.734896564483643
9.690066089630127
9.709195337295533
9.821150870323182
9.949894390106202
10.02888985157013
10.061002445220947
10.074417409896851
10.064910364151
10.03478223323822
10.022331967353821
10.015192151069641
9.944877262115478
9.81358060836792
9.756180882453918
9.899073157310486
10.166308326721191
10.390953373908996
10.515012011528015
10.51647668838501
10.413675436973572
10.344927372932434
10.362624926567078
10.357457656860351
10.293310151100158
10.249074172973632
10.279172410964966
10.36664695262909
10.43692231655121
10.459210662841796
10.506150841712952
10.59857500076294
10.643734273910523
10.585786972045899
10.500988183021546
10.51479576587677
10.607271213531494
10.613033757209777
10.495585370063782
10.425118203163146
10.487737970352173
10.555546817779542
10.541512379646301
10.525186200141906
10.547183771133422
10.540825939178466
10.523222045898438
10.56996383190155
10.613353023529053
10.570491161346435
10.530167994499207
10.569613962173461
10.622292146682739
10.6330699300766
10.634231629371643
10.65897318840027
10.696577467918395
10.735091433525085
10.774744806289673
10.796295323371886
10.789281930923462
10.781901063919067
10.814980926513671
10.908232612609863
10.982364826202392
10.912969675064087
10.763873147964478
10.688809685707092
10.666373438835144
10.667408146858214
10.760742902755737
10.890638737678527
10.922968978881835
10.851509647369385
10.780589346885682
10.783605051040649
10.819812598228454
10.84021584033966
10.882079820632935
10.94582116127014
10.9529452419281
10.892926201820373
10.842407937049865
10.847077360153198
10.87984570980072
10.905782885551453
10.947388162612915
11.02293197631836
11.064360070228577
10.990423421859742
10.853457403182983
10.826275629997253
10.959407048225403
11.096233682632446
11.128492093086242
11.072228226661682
10.925201787948609
10.773441123962403
10.808574500083923
11.018273725509644
11.190647521018981
11.222652711868285
11.1280140209198
10.931050672531128
10.73995355129242
10.696503634452819
10.79107482433319
10.882299618721008
10.884596848487854
10.835398449897767
10.796786551475526
10.768246660232544
10.703204092979432
10.583854241371155
10.471269073486328
10.425501990318299
10.403169975280761
10.391804723739623
10.47918309211731
10.610134601593018
10.60587772846222
10.481551847457887
10.410206809043885
10.452876324653625
10.497920694351196
10.405659456253051
10.201056027412415
10.046125731468202
10.010963435173034
10.011254134178161
9.964277153015138
9.908299164772034
9.915789399147034
9.9728187084198
10.033028178215027
10.05982445716858
10.007701907157898
9.932065706253052
9.97556297302246
10.129077091217042
10.233107347488403
10.209197702407836
10.111142168045044
10.01676751613617
9.970952425003052
10.022177405357361
10.189458932876587
10.335605630874634
10.294085631370544
10.10176179409027
9.895880856513976
9.772582306861878
9.820033078193665
10.03765465259552
10.243789029121398
10.265394558906555
10.159853982925416
10.101926651000976
10.15299991607666
10.239495453834534
10.28403561115265
10.304626126289367
10.353218879699707
10.426028957366944
10.51078206062317
10.617942056655885
10.739946541786194
10.82496874332428
10.824497151374818
10.798546895980834
10.843859009742737
10.917184195518495
10.903048124313354
10.808258681297302
10.768135838508606
10.876139988899231
11.071310095787048
11.210880784988403
11.202303147315979
11.094880061149597
11.044162693023681
11.112160248756409
11.20375087738037
11.227439241409302
11.166564702987671
11.041688523292542
10.91786042690277
10.848639960289
10.808635067939758
10.781423316001892
10.793748121261597
10.82652199268341
10.828700222969054
10.79969482421875
10.782382264137269
10.780703439712525
10.757296447753907
10.718605270385742
10.706781759262086
10.756039724349975
10.873313813209533
10.976903476715087
10.96507465839386
10.8673291015625
10.783864345550537
10.748870215415955
10.730866751670838
10.670239062309266
10.552328901290894
10.466517248153686
10.472687664031982
10.509056940078736
10.526188139915467
10.536928730010986
10.541357975006104
10.544738669395446
10.55689917087555
10.54560408115387
10.482602682113647
10.371801123619079
10.227247695922852
10.092197680473328
10.031462812423706
10.055869941711427
10.094783635139466
10.089833879470826
10.04618592262268
9.986046228408814
9.961767163276672
10.049948377609253
10.21498673915863
10.2859619140625
10.200655865669251
10.107538323402405
10.122241559028625
10.230264167785645
10.395266394615174
10.532862629890442
10.553392939567566
10.517462635040284
10.540206842422485
10.597914566993714
10.615334081649781
10.606059346199036
10.597020325660706
10.586862859725953
10.580849046707153
10.548226418495178
10.47402678012848
10.43395866394043
10.470846519470214
10.517384452819824
10.511611585617066
10.479162511825562
10.500173120498657
10.600371799468995
10.701092200279236
10.77035315990448
10.843064036369324
10.859631428718567
10.77017297744751
10.661667876243591
10.611631984710693
10.606173491477966
10.609745440483094
10.59804440498352
10.56493906021118
10.550452647209168
10.621897010803222
10.79410707950592
10.993095569610595
11.136308307647704
11.221191539764405
11.285825767517089
11.344503092765809
11.394457550048829
11.419002861976624
11.40497239112854
11.365233235359192
11.287559027671813
11.139847249984742
10.97487271785736
10.894245133399963
10.88445143699646
10.838938841819763
10.732890877723694
10.650200567245484
10.656604714393616
10.706218466758727
10.712686276435852
10.686474132537843
10.677793478965759
10.670137515068054
10.655184483528137
10.66191722869873
10.683360176086426
10.726015682220458
10.853290963172913
11.024846243858338
11.058261771202087
10.910137004852295
10.775819811820984
10.776852035522461
10.793184943199158
10.702795023918151
10.5395215177536
10.38137557029724
10.266198091506958
10.216216344833374
10.258971929550171
10.382845983505248
10.508345670700074
10.568350219726563
10.596814756393433
10.645325398445129
10.655506386756898
10.57677345752716
10.50097689628601
10.496212573051453
10.462877812385559
10.33746277809143
10.262651724815369
10.3477960729599
10.473351850509644
10.500594644546508
10.471574187278748
10.49786714553833
10.558093671798707
10.551339979171752
10.49585720539093
10.481286187171936
10.513286437988281
10.536028971672058
10.549550442695617
10.627224712371826
10.7574338388443
10.793203973770142
10.689043998718262
10.59211100101471
10.587209062576294
10.585227398872375
10.547323431968689
10.557503337860107
10.636313223838807
10.717079577445984
10.760637631416321
10.77263614654541
10.762245869636535
10.73699743270874
10.75437259197235
10.881408400535584
11.062017436027526
11.16803605556488
11.146854095458984
11.022272901535034
10.889413752555846
10.887161297798157
11.02528742313385
11.145350289344787
11.133968267440796
11.104249563217163
11.31387197971344
11.832910656929016
12.39156777858734
12.703289151191711
12.733124203681946
12.64398159980774
12.79403329372406
12.96700665473938
13.097828922271729
13.171950750350952
13.029857606887818
13.669354872703552
15.672558789253236
18.602699422836302
21.00898917198181
22.025675959587097
22.184338726997375
22.329832396507264
22.214098019599916
23.396809458732605
26.550076642036437
30.700463037490845
33.98754508972168
35.45501360416412
35.758984327316284
35.93059987068176
36.06457107543945
36.0276631975174
36.49939733505249
37.42846625804901
38.67178270816803
39.88594122886658
40.81981106758118
41.54013408184051
42.22789310932159
42.93361147403717
43.64116887569428
44.469155836105344
45.47878603458405
46.42115899562836
47.10104697227478
47.65738368034363
48.20367726802826
48.55302360534668
48.7518883895874
49.607252235412595
50.95348638534546
52.25664086818695
52.92111159801483
52.72507069587707
52.75336489200592
53.120496239662174
54.08742184638977
55.50464932918548
56.68056457519531
57.13020155906677
56.891291809082034
56.75573935985565
57.07262457847595
58.27217933177948
60.229314193725585
61.09367289066315
59.47348104476929
57.02300757408142
56.07757731437683
56.768065252304076
58.20627623081207
59.418920969963075
60.52991823196411
60.016531567573544
57.45789462089539
53.82971697807312
50.5807351398468
49.26129253387451
49.53276584148407
50.187016968727114
50.8109206199646
51.17569447994232
50.72124465465546
49.8266694021225
48.48643361091614
47.53837029933929
47.611580634117125
48.455612454414364
49.27012135028839
49.48658097267151
49.179334664344786
48.72906554698944
48.444799361228945
48.17311585426331
47.21922803878784
47.66632129192352
49.19728048801422
51.32560296058655
53.52501541614532
54.742985939979555
54.71007751941681
53.28546850204468
53.75520360469818
55.95568912982941
57.69353766918182
58.55665536880493
58.73221856117249
58.265590662956235
57.1349049949646
57.54685215473175
58.742737622261046
59.32200724124908
59.06750868320465
58.19075139045715
57.088426575660705
55.92940307617187
55.271847772598264
54.7358957529068
53.16687061309815
51.47007422447204
49.788026885986326
48.293352108001706
47.30681934833527
47.06515570640564
47.62926399707794
48.96427721500397
51.06674019813538
52.96514149188995
54.08549649715424
54.32824010848999
53.90848059654236
53.47074149608612
53.330884194374086
53.26021508693695
53.19807850837707
52.86821183204651
52.61664361000061
52.71777111530304
52.78163232326508
52.49332381725311
52.122318229675294
51.58123774528504
51.1719160413742
51.576040239334105
52.867620420455935
52.57681457042694
50.952816214561466
49.13546283721924
49.37576271533966
50.95621258258819
52.66742500782013
54.43441339969635
53.47552428722381
52.88320822238922
55.6997397518158
61.88918798446655
68.63276882171631
73.90669550895691
78.02923189163208
79.1309460735321
78.53294732570649
80.64027810096741
84.35261529445648
88.15441306591033
91.2886445569992
93.81530958652496
95.67920319080353
96.35273280620575
96.47597927570342
96.51281810760499
96.93678948402405
96.93206652641297
98.02315125465392
99.43773345947265
99.87204195022584
98.9660516834259
97.70784187316895
96.91923439979553
96.14501720905304
95.10744716644287
96.04276187896728
96.9869799566269
97.48512261390687
99.04467070102692
100.43400794029236
100.70899044513702
100.0267211008072
98.77273096084595
97.4148635673523
96.85054423332214
97.18076285362244
97.11021209716797
97.11619663715362
96.47243030548096
95.71775460243225
94.97056295871735
94.57343890190124
94.03771727085113
91.54742143630982
87.7955028295517
85.02530647277833
83.92684598445892
84.17046637535095
82.84327421188354
78.42036286354065
71.90387154579163
65.6282807636261
60.95386354446411
57.932389531135556
56.874692759513856
56.624708943367004
54.208236598968504
51.29868658542633
47.91864666938782
44.13856943130493
41.17900430679321
39.60830993652344
39.25145198822022
39.62959833145142
39.540849628448484
39.381389989852906
40.07585412979126
39.75898675918579
39.15544181823731
38.93914814472198
38.81108847141266
38.08183506965637
36.63624618530273
35.88379890918732
36.19242679595947
35.01456237316132
34.019368991851806
33.42421909809113
31.935616183280946
31.14009434223175
31.665585689544677
32.53689228057861
33.192084431648254
33.86174007892609
34.11196877002716
33.6531560754776
34.022384238243106
34.38947268486023
34.664467039108274
34.44971480369568
34.500842056274415
34.83417944431305
35.13743811607361
35.27139591217041
35.36573091030121
34.92939712047577
34.33346037387848
33.95014956951141
33.809515466690065
33.570514483451845
32.88148477077484
31.653407621383668
30.134815826416016
28.93468804359436
28.71853223323822
29.452086925506592
30.24290053367615
30.014184041023256
29.213658332824707
29.44251170158386
29.818676776885987
29.71117916584015
29.302458305358886
28.80547037601471
28.772744402885436
29.081526584625244
29.621504426002502
30.08503050804138
29.588118891716004
28.31045184135437
27.44842909812927
27.552107167243957
28.06647371292114
27.978379168510436
27.89839286327362
28.66774467945099
29.744480261802675
30.132697463035583
30.391216530799866
30.93645739078522
31.411720576286317
31.658671503067016
31.59659484863281
30.902107343673705
31.24990439414978
32.616167483329775
33.30196023464203
32.96113741397858
32.46641480922699
32.229380917549136
32.68588334560394
33.7227645111084
34.87530698299408
35.27075310230255
35.79180703163147
37.3230953168869
38.856061668395995
39.99460713386536
40.89534700870514
41.46059299468994
41.20354429244995
40.51016911029816
40.3991463804245
40.53286469459534
39.98801103115082
39.495139379501346
38.76102882385254
37.82847378253937
38.138715653419496
38.422182097435
38.33176000118256
38.28060334682465
38.4870597076416
39.141701350212095
40.18162917137146
40.83968906879425
40.66354709148407
39.74370485782623
38.825582332611084
38.81870580196381
39.269561796188356
39.79596909999847
40.54180144309998
41.453869915008546
41.556430258750915
40.852394065856934
40.6654932308197
41.35145133495331
41.82108857631683
41.461503496170046
40.63603485107422
39.52042381286621
38.45115392208099
38.35602597236633
38.01714294910431
37.153502311706546
36.53120769023895
35.95896678924561
35.97333128929138
36.41964323520661
36.088876209259034
34.90476097583771
33.774628596305845
33.5658206987381
33.2423257112503
31.66980160713196
30.399482774734498
29.914617638587952
29.968854155540466
30.13600115299225
30.269165678024294
30.08745801448822
29.99689835548401
30.2178635597229
30.042250843048095
30.148991045951842
30.307170424461365
30.345720295906066
30.20374659061432
29.812690205574036
29.333777689933775
29.286049485206604
29.17150944709778
28.652361879348756
27.60317561149597
26.742868776321412
26.094311332702638
25.760442957878112
25.814595680236817
25.978081345558167
26.378983354568483
26.609900693893433
26.44466938972473
26.317972478866576
26.831625742912294
27.266956310272217
26.521916909217836
25.920886960029602
26.04321551322937
26.423391246795653
26.484652576446532
26.511756072044374
26.91480212211609
27.162170367240904
26.617122716903687
26.30041428565979
26.31784972190857
26.90129029273987
27.201213870048523
27.73555016517639
28.612550959587097
29.096083126068116
28.727321281433106
28.39377683162689
28.118148126602172
28.182729868888856
28.071390376091003
27.25146541595459
26.322007088661195
25.215284361839295
24.82148631095886
24.750116848945616
24.862635216712953
25.107090673446656
25.917556886672973
26.18190583705902
26.812499561309814
28.318648791313173
29.13009089946747
28.946878571510315
30.747402548789978
33.092876472473144
34.79592057704926
35.349117722511295
35.27910068511963
35.43117326259613
35.8797363948822
36.5764506149292
37.251101784706115
37.47141453742981
36.9144752407074
35.78955244064331
35.034300713539125
34.06483473300934
33.289202313423154
32.936609053611754
32.961290078163145
32.63344793319702
31.909604711532594
31.35527916431427
31.53160536289215
32.15337153911591
32.557654504776
32.77338382720947
33.03523916721344
32.656219205856324
32.60379500865936
32.91852798938751
32.51995244026184
31.898099093437196
31.40487602710724
31.036066312789917
30.998526101112365
31.138378887176515
31.579272384643556
31.936340823173524
31.808757500648497
31.831592812538148
31.703301782608033
31.667187361717225
31.61371804714203
32.13190092086792
32.091621494293214
31.745689611434937
32.04579281806946
32.09469214439392
31.393340487480163
30.12834575176239
28.940648679733275
28.998979296684265
27.376423091888427
24.963710746765138
23.20553861618042
22.67979724407196
22.93715072631836
22.548832726478576
21.718486881256105
21.44724657535553
21.662546648979188
22.110617060661315
22.720825843811035
23.403678336143493
23.546923685073853
23.916616129875184
24.179969515800476
24.286461877822877
24.403563857078552
24.284704151153566
24.09966338634491
23.974355239868164
24.108201303482055
24.159060468673704
23.455211687088013
23.22031988620758
23.67840956687927
24.02236517429352
23.740935816764832
23.372364673614502
23.676527786254884
23.409818835258484
22.685540895462037
22.516342101097106
23.19439434528351
23.658810634613037
23.895281467437744
24.32544388771057
24.95646168231964
25.33412700176239
25.219805579185486
25.590559911727905
25.92316831588745
26.242850618362425
26.897306180000307
27.028131742477417
26.127017879486083
25.50222059249878
24.823244085311888
24.656316657066345
25.013939566612244
25.457061567306518
25.365896778106688
25.65596875190735
25.809733543395996
26.764050984382628
28.142634348869322
29.77299569129944
31.55721493244171
32.305228266716
31.868043518066408
31.090978651046754
31.11594820022583
31.744995036125182
32.3028281211853
32.26850368022919
31.890872478485107
31.617009463310243
31.31341911315918
31.73084188938141
31.878058104515077
31.80948386192322
31.61005436897278
30.696381006240845
31.228450055122376
32.021761231422424
32.61590490341187
33.29247874736786
33.69954055309296
33.30607011795044
32.62456404685974
32.398964848518375
32.40210573196411
32.149656052589414
31.418115148544313
31.02230945110321
30.790073947906492
30.07509286880493
29.36316301345825
29.080980882644653
29.136701369285582
28.881486291885377
28.476113500595094
27.94692678451538
27.41592082977295
27.121907415390016
26.95595588684082
26.622274503707885
27.444477286338806
28.644457592964173
29.463734345436094
29.06769256591797
29.295233483314515
29.18856565952301
28.965475511550903
27.844013085365294
26.19784779071808
24.525371041297912
22.999990425109864
21.835229353904722
21.40885311126709
21.12247610092163
20.43231084346771
19.62567588329315
18.628375597000122
19.267469158172606
20.277732167243958
20.502032074928284
20.545172457695006
20.27573115825653
20.221470518112184
19.897083888053896
19.39108462333679
19.95809676170349
19.729628100395203
18.56763799190521
18.026698427200316
17.54027361869812
17.11905309677124
17.36927936077118
17.88416521072388
18.20281457901001
19.46280547142029
20.301901845932008
20.821770753860473
21.77713819026947
22.51512153148651
23.45994734764099
24.354719591140746
24.74841410636902
24.713144659996033
24.978779096603393
24.857946786880493
24.53937683582306
24.41970178604126
24.878202986717223
25.594624161720276
25.804435873031615
25.37944131851196
25.201419467926026
25.68559672832489
26.50670804977417
26.35520483493805
27.264697794914245
28.436032438278197
29.267442774772643
29.90365617275238
30.1650049161911
30.229325647354127
30.559792399406433
31.019744486808776
31.274541592597963
31.009509716033936
30.596840801239015
30.595878496170045
29.874150285720827
29.231230897903444
29.39984886646271
29.83548719882965
29.669310631752015
29.952227506637573
30.417497873306274
30.366142983436585
29.728344264030458
29.300609087944032
29.535116496086122
29.44581690788269
29.718978753089903
30.127299499511718
29.949449367523194
29.601100912094115
29.562300190925598
28.26488908290863
27.765380182266234
27.672048721313477
26.367927193641663
25.58780571460724
25.19068588733673
24.955121965408324
25.15679738521576
25.84676182746887
26.149826645851135
26.72800696849823
27.295595717430114
27.459708757400513
27.217438998222352
26.777701749801636
26.475494112968445
26.612715916633604
26.448429532051087
26.381382393836976
27.22113839149475
28.46271758079529
27.470735249519347
27.46225124835968
27.434092593193053
27.063176026344298
27.273551774024963
28.44360625267029
29.89881757736206
31.192624778747557
32.345763068199155
33.017626595497134
32.99031346321106
33.34064203739166
34.58775273323059
36.819451966285705
38.38894786834717
38.09291403770447
39.034873514175416
39.05247077941895
38.50440634727478
38.304431447982786
38.32356791973114
38.20822465419769
38.035304827690126
37.897429242134095
37.76692286968231
37.55679902553558
37.383722805976866
37.40400830745697
37.1759205532074
37.50253174304962
37.94738753795624
38.53747487068176
39.38548027038574
39.68278621673584
39.7462267780304
39.52719386100769
38.93526551246643
38.242867126464844
37.68095032691956
37.10641520500183
36.409951128959655
36.080743517875675
35.87081731796265
35.613864912986756
35.71302100658417
35.43627085208893
34.83124266147613
33.85286878108978
32.378098773956296
31.161821022033692
31.217050099372862
30.620235781669617
30.665824732780457
31.141307640075684
30.861694660186767
29.45862991809845
27.603542733192445
26.176394386291506
25.404880957603453
25.157015504837037
25.10502984046936
24.778580799102784
23.292015619277954
20.82693534374237
19.07947642326355
19.196619238853454
18.336950964927674
17.82761300086975
17.94867823600769
18.10156346797943
18.17663052558899
18.41109115123749
18.810513553619383
19.096071319580076
19.23439938545227
19.583846406936644
20.034756288528442
19.981876068115234
20.022513031959534
19.885489349365233
19.41982810020447
18.96009644985199
18.47531478404999
18.01719693183899
18.092474064826966
18.277539043426515
18.184736852645873
18.84782051563263
19.839035234451295
20.14963369846344
20.719768433570863
21.662437562942504
22.710245084762573
23.78605501174927
24.271024851799012
24.053012533187868
23.97389904499054
23.4025102519989
23.68683443069458
24.847897329330443
25.806756711006166
25.708300828933716
24.94604925632477
25.407720317840575
27.393186450004578
29.781402921676637
31.18103515625
31.048191924095153
30.916968941688538
31.49912429332733
32.88677366256714
34.431014752388
35.912195296287535
36.95823274612427
37.386621408462524
37.3959840965271
37.422827200889586
37.618085050582884
37.5675391292572
38.02520956993103
38.56794803619385
38.62860786437988
38.00225876331329
37.74400545120239
37.983721590042116
38.03499047279358
37.80931705474853
38.06812471866608
38.33847759723663
38.73918916702271
39.91118292331696
40.71522712230682
40.960417652130126
40.9309104681015
40.39659134864807
40.01911584854126
40.37550983428955
40.272096939086914
39.801931977272034
39.85590912818909
39.494223132133484
38.28188359737396
36.99063394069672
35.99828024864197
35.755604767799376
35.97717830657959
35.62093133926392
35.58858665466309
34.84689370155334
33.65256161212921
32.703737120628354
32.415859484672545
32.61252061367035
31.843788657188416
29.869968590736388
27.652972922325134
26.416912636756898
26.31357115268707
25.933169474601744
25.053764305114747
23.689428086280824
22.1667578458786
20.68574936389923
19.553066940307616
19.380743665695192
19.89145405292511
20.431067180633544
20.70886706829071
21.259559383392332
21.489538898468016
21.622056975364686
21.634397110939027
21.85255831718445
21.89555167198181
21.562760577201843
21.520552954673768
21.823378477096558
21.453935418128967
22.100831832885742
22.741800198554994
21.89300815105438
20.57632975101471
20.472384848594665
21.082615852355957
21.196984462738037
21.203707332611085
21.21952356815338
20.791378688812255
20.49443600654602
20.345158915519715
20.923959970474243
21.307759127616883
21.52257882595062
21.86575068473816
21.79399072647095
21.59246946334839
21.961335716247557
22.626004271507263
23.54221147060394
24.40115740776062
25.048509244918822
25.57605149269104
25.963591160774232
26.117493538856507
26.014249320030213
25.83498398780823
26.02601505279541
25.972995944023133
26.233126463890077
26.310592904090882
26.572209572792055
27.097706174850465
27.238191199302673
27.033207335472106
26.54797246456146
26.284851784706117
25.705261335372924
26.02786581039429
26.645650916099548
26.77015067100525
26.65962833404541
26.996591930389403
27.35721888065338
26.796503233909608
26.507516036033632
25.92276120185852
26.210336799621583
27.49129716873169
27.161448163986208
26.309216871261597
26.832905230522154
28.141072516441344
28.318329133987426
27.730342936515807
27.968360176086424
27.881780514717104
27.44739591598511
27.55868000984192
27.735478811264038
27.862974100112915
27.35265010356903
27.09407314300537
26.98606620788574
26.814373145103456
27.077668232917787
27.67682385444641
27.96131169319153
27.93477424621582
27.617657585144045
27.05592969417572
26.29201225757599
25.669870295524596
25.122940340042113
24.705483422279357
24.595644941329954
24.53786208152771
24.296894054412842
24.420329604148865
24.144138879776
24.25953809261322
24.68792603492737
24.652161345481872
24.469950342178343
24.573462562561033
24.57862654685974
24.414007396697997
24.79738637447357
23.994066438674928
23.848918738365175
24.43304545879364
24.52627607345581
24.06477819919586
24.057246870994568
24.338608570098877
24.02471900463104
23.89749810218811
23.11309537410736
22.020498180389403
21.768729343414307
21.901099061965944
21.2344610786438
20.462714042663574
20.185736074447632
19.971102476119995
19.570859761238097
19.21931149482727
19.303214778900145
19.085110054016113
18.678686237335206
18.4706889295578
18.375235900878906
18.289506583213807
18.49422333240509
19.193115210533144
19.832867159843445
19.492722311019897
19.355533022880554
19.16807614326477
18.726531195640565
18.675404949188234
18.626326031684876
18.833386974334715
19.096517510414124
19.167130961418152
18.94406588077545
19.150944361686708
19.46938039302826
19.83414255142212
20.322233715057372
20.6021387052536
20.580940933227538
20.734931302070617
21.18269811630249
21.233687024116517
21.09501528263092
20.928925776481627
20.914709792137145
21.5417826795578
21.043915762901307
19.551431217193603
19.513615374565124
20.534748983383178
21.10054295063019
21.506851568222046
21.982633090019227
22.588134808540346
22.912715983390807
22.660752291679383
22.47590313911438
22.037140588760376
21.54641583442688
21.0065230512619
20.754907875061036
20.77855924129486
21.031969752311706
21.641119918823243
21.72673156261444
21.765225195884703
21.978253145217895
21.948270287513733
21.77469121456146
22.15233154296875
22.498137063980103
22.245387988090513
21.6158269071579
21.44879674911499
20.913385801315307
20.59696470737457
20.623279418945312
20.26436695098877
20.395666937828064
20.321037540435793
20.025120615959167
19.749448947906494
19.789562854766846
19.827241683006285
20.114187903404236
20.603720116615296
20.763188738822937
20.22557981967926
19.53664031982422
18.8397114276886
18.519323983192443
18.52154139995575
18.43601405620575
18.310603227615356
17.854791436195374
17.31205811023712
17.022624068260193
17.465033993721008
17.177717785835267
16.315404262542724
15.924329433441162
16.582652149200438
17.533832879066466
17.54659091949463
17.735786633491514
18.93585102081299
19.91856599330902
21.079781246185302
22.332145953178404
23.347473125457764
23.37976903438568
24.295487923622133
25.411229963302613
26.266203784942626
27.18150065422058
28.129960703849793
28.454070568084717
28.20311466693878
28.588026933670044
28.407869992256163
27.98044930934906
27.976223220825194
28.318109469413756
28.5996080160141
28.68257122039795
28.77158877849579
28.61179664134979
28.622815794944763
28.69838649749756
28.697768301963805
28.501636629104613
28.83260280609131
29.316625571250917
29.520212712287904
29.248785529136658
28.721168365478515
28.584151091575624
29.027750773429872
29.023812646865846
29.488776092529296
29.814334683418274
29.667407064437867
30.133693389892578
30.314221773147583
30.388110098838805
30.485216131210326
30.296969332695006
29.819405145645142
29.39374891757965
29.098281979560852
29.07363790988922
29.105289583206176
29.075332598686217
29.322619318962097
28.879623465538025
27.840623240470887
26.784326992034913
25.59186918735504
24.38009692668915
23.520712790489195
23.356593117713928
22.543705940246582
20.92046226978302
19.856958155632018
18.981407837867735
18.13864513397217
18.092301545143126
18.62987105846405
18.485350069999694
18.283845982551576
18.08887152194977
17.677989058494568
17.353369426727294
17.5031600522995
17.95774380683899
18.02558123588562
18.069416294097902
18.38962639808655
18.58262887477875
18.76069441795349
19.04535355091095
18.82099781513214
19.026769876480103
19.51891314983368
19.85785753726959
19.91516673564911
19.927966022491454
20.240755066871642
21.136214480400085
21.323640685081482
21.145321111679078
21.231122646331787
20.763237142562865
20.555181279182435
20.620092945098875
20.490460095405577
20.877663135528564
21.574821724891663
22.28568422317505
23.08900171279907
23.358407540321352
22.455845947265626
21.166128630638124
20.95828387260437
21.42350977897644
21.917245116233826
22.68015570163727
23.692422380447386
24.322644510269164
24.417400226593017
24.61370258808136
24.823173460960387
25.333751153945922
25.433442463874815
25.571931524276735
25.827358589172363
25.523460354804993
25.07343288898468
25.02513351917267
25.25263343811035
26.109176511764527
26.92128969192505
27.25060865879059
26.917073993682862
26.991596055030822
28.309083557128908
30.280883932113646
31.37502824306488
31.026401839256287
31.560143814086913
32.45786185264588
33.183178572654725
33.14255463123322
32.84432910442352
32.69776166439056
32.61430178642273
32.16297937870026
31.304853048324585
30.395376782417298
29.693564224243165
29.4839813041687
29.72388463973999
29.996889519691468
29.95500807285309
30.15411937713623
30.531439986228943
30.600342440605164
30.60058159351349
30.636105947494507
30.350033950805663
29.505429577827453
29.17365276813507
29.104560165405275
28.75844536304474
28.832266836166383
28.913109798431396
28.357225203514098
27.37970923423767
26.940701127052307
26.689588508605958
26.67192943572998
26.414787268638612
25.917310037612914
25.460216565132143
25.113973913192748
25.094878287315368
25.46139944076538
25.954164633750917
26.185455913543702
26.371085419654847
25.880607347488404
24.99050874710083
24.183115849494936
23.94059962272644
23.382967782020568
21.869525842666626
19.835221066474915
18.565111136436464
18.874652829170227
18.170468339920046
16.981364760398865
16.27989933013916
16.020841755867004
16.189362277984618
16.471638255119323
16.499223222732542
16.331542348861696
16.54781331062317
16.869678955078125
17.126534214019774
17.09990074634552
17.590127301216125
18.557694673538208
19.53875560760498
19.68431951999664
19.295496792793273
18.76365342617035
18.203621253967285
17.671492128372194
17.57496783733368
18.305001707077025
18.989516882896424
18.97742052555084
19.99222640514374
21.68033951282501
23.025942425727845
23.793296933174133
24.371828389167785
24.34285580635071
25.01875535964966
26.519211959838866
28.221213192939757
29.392181301116942
29.92416292667389
30.187739086151122
29.929035353660584
29.3437570810318
28.821385231018066
28.63709988594055
28.799311809539795
28.97496039390564
29.053297958374024
29.166036667823793
29.41921974658966
29.64292425632477
29.624203991889953
29.585238280296327
29.621000804901122
29.763716602325438
30.149694719314574
30.788722372055055
31.167634744644165
31.154737257957457
30.50282937526703
29.59723132610321
29.09704562664032
29.116802506446838
28.87380485534668
28.476439633369445
28.173020830154417
28.064611892700196
27.38733476638794
26.380410737991333
25.46673020839691
25.17763556957245
25.723472428321838
26.602119317054747
27.258773770332336
27.516703486442566
27.41281044960022
26.970519824028017
26.34797936439514
26.29733768939972
25.430674409866334
23.507447390556337
21.520514435768128
20.577875037193298
19.96371178150177
19.79987926006317
19.28899219036102
18.150363941192627
16.697039222717287
15.602466216087342
15.29741069316864
15.470448398590088
15.745282487869263
16.055047817230225
16.55370358467102
16.799313502311705
16.324730291366578
15.798093976974487
15.903687386512756
16.251565837860106
16.00885988712311
16.242905702590942
16.81924439907074
17.247971839904785
17.24192044734955
16.864112629890442
16.214313349723817
15.95761339187622
15.810431127548219
15.503190226554871
15.341793565750121
15.651538972854615
16.309418902397155
17.17636306285858
18.38512361049652
20.037541494369506
22.01635753631592
23.813963294029236
24.502774939537048
24.91614469051361
26.504438014030455
28.51079926490784
30.370827507972717
31.258207082748413
30.506026458740234
31.22862251281738
32.09902923107147
32.35036487579346
32.16627282142639
32.302610726356505
32.17819797515869
32.0056867980957
31.939614214897155
32.25259172439575
33.20650321483612
34.15394896507263
34.63006022453308
34.438454298973085
34.462011613845824
34.9198255109787
35.123779253959654
34.91417005062103
34.77126889705658
34.57455777168274
34.02070711135864
33.49589484214783
33.55769324302673
33.665567469596866
33.25880411624908
32.79153566837311
32.98712162017822
32.815859422683715
32.64270744800567
32.825478134155276
33.09675682067871
33.10932658672333
33.142254781723025
33.02699410438537
33.04317924976349
33.207594060897826
33.25618217945099
32.964499912261964
32.28224582195282
31.406956148147582
30.240939321517946
28.787683086395262
26.86273495197296
25.423305993080138
24.83180431842804
24.426621618270875
23.332826981544496
21.707299284934997
19.579818811416626
18.060697989463804
18.45015393257141
17.869093046188354
17.254557633399962
17.02853036403656
17.13934546470642
16.99104235649109
16.785578660964966
16.514986753463745
16.903817057609558
17.009051299095155
16.154733624458313
15.503407454490661
15.420511331558227
15.621676936149598
15.70362901687622
15.434288353919984
14.995135159492493
14.709092564582825
14.422978587150574
14.255504336357117
14.364029612541199
14.421658391952514
14.704593329429626
15.697659182548524
17.15739501953125
18.377943568229675
18.816443219184876
18.735695729255678
19.636041235923766
20.95777615070343
21.705374298095702
21.654827156066894
22.579511046409607
23.14681679725647
23.12918140411377
23.20508047580719
23.495499973297118
23.515457978248595
23.62258568286896
23.780435218811036
24.854653301239015
26.408333711624145
27.89361095905304
28.213653922080994
28.22526045322418
29.138645749092102
29.965042357444762
30.60409897327423
30.9728905582428
30.688808283805848
30.998016948699952
31.065164461135865
30.501207175254823
30.088835415840148
30.184668078422547
30.759410247802734
31.316671795845032
31.896556277275085
31.981005401611327
31.778865642547608
32.00858357906341
31.92722828865051
31.543757271766662
31.18940987586975
30.981760430336
31.014831480979918
31.373546509742738
31.77297128200531
31.98201362133026
32.009037227630614
31.904330253601074
32.35523522853851
32.54961802005768
31.608130583763124
30.26776261806488
29.11912434577942
28.43825267791748
28.274180989265442
27.158238978385924
25.311690764427183
24.32076054096222
24.505596022605896
23.702421846389772
23.067834181785585
23.0728880405426
23.20188910961151
23.097948904037477
23.120405139923097
23.155861558914186
23.169124722480774
22.1884809923172
20.607409448623656
19.401844816207884
19.022033252716064
18.948394465446473
18.040383410453796
17.05179530620575
16.313302240371705
15.897610902786255
16.13729841709137
15.74677906036377
15.637254905700683
16.431760721206665
17.28039300441742
17.276339015960694
17.24641778945923
17.780133514404298
18.27406575679779
18.339906792640686
17.978280787467956
18.15762993812561
18.32329852104187
18.23282322883606
18.425264492034913
18.27277436733246
18.081836848258973
17.944227395057677
18.165846285820006
19.1383482503891
20.336733131408693
21.179382619857787
21.36970055580139
21.327953209877013
21.26889681816101
21.516580629348756
22.04442810535431
22.414053745269776
22.555938630104066
22.97908682346344
23.532580065727235
23.47865370750427
23.218409519195557
23.18268018245697
23.19588931083679
23.28491093635559
24.173493809700012
25.113769164085387
25.3038556432724
25.427961535453797
25.65109275817871
25.907434611320497
26.137838888168336
26.222984890937806
26.290930027961732
26.49170223236084
26.723836030960083
26.904583945274354
27.142733674049378
27.500077652931214
27.84705372810364
28.012505044937132
27.84079912662506
27.211415524482728
26.385786390304567
26.109229860305785
25.56994677066803
24.358094625473022
23.493993830680846
23.24127067565918
23.329752454757692
22.8635830116272
22.756663813591004
23.175335865020752
23.067777676582338
22.95482976436615
22.91701087474823
22.66753487110138
22.12763720035553
20.93395615577698
19.90542172908783
19.22429859161377
18.952760529518127
19.597884726524352
21.00882851600647
21.599973850250244
21.01675753116608
20.981794776916505
21.132651462554932
20.974043092727662
20.819744963645935
20.70397150039673
21.26310523033142
21.804416961669922
22.172383613586426
22.20712858200073
21.33247004985809
20.59005937576294
20.759211664199828
20.66082230567932
20.561472449302673
20.649787516593932
20.390532894134523
20.000639772415163
19.868795571327208
19.822495493888855
19.571631603240967
19.03134626865387
18.462682976722718
18.085762629508974
17.513332586288453
17.33778871059418
17.152512316703795
17.212197170257568
17.821710839271546
18.442307476997374
19.040107436180115
19.85861719608307
20.36272023677826
20.513795952796936
20.629448022842407
20.77742498397827
20.761123518943787
20.696529026031495
20.99959047794342
21.5545507478714
21.645326762199403
21.859834141731262
22.082306423187255
22.368356785774232
22.42258707523346
22.394088525772094
21.9683349609375
20.699468746185303
19.12164920806885
18.435879883766173
19.062110567092894
19.505633001327514
19.60699490070343
19.290074729919432
18.81524317741394
18.761251401901244
18.299811582565308
17.973769359588623
17.765627822875977
17.54490958690643
17.35127212524414
17.10308253288269
16.592258238792418
16.721731781959534
16.650132293701173
16.375575442314148
16.80247803211212
17.251579399108888
17.37003553390503
17.633662853240967
18.098693923950194
18.294631991386414
18.34822208404541
18.399086990356444
18.566666021347046
18.27904890537262
18.316234622001648
18.26247289657593
17.81564619541168
17.53476173877716
17.378993673324587
17.25622359752655
17.428850207328797
17.85861862182617
18.148635220527648
18.090753035545347
17.771105656623842
17.54878608226776
17.344592967033385
17.310928692817686
17.806957030296324
18.169581489562987
18.118648495674133
17.846862344741822
17.927258720397948
18.677272386550904
19.82658486366272
20.73170439720154
21.228196578025816
21.10440143108368
20.39835771083832
19.6406746339798
19.335680584907532
19.375223388671873
19.370476536750793
19.564562158584593
19.535833625793458
19.25490298271179
18.99643103122711
18.81028794288635
19.121850900650024
19.73999608039856
20.64582309246063
21.188904604911805
21.714070396423338
22.265543065071107
22.552351489067078
22.74193564414978
22.392915978431702
22.729469752311708
23.462915835380553
24.379161472320558
24.692233901023865
24.500791630744935
24.87971552848816
25.42746910095215
25.599822487831116
25.68689657688141
25.804160284996033
25.669173851013184
25.184550857543947
24.57672005176544
23.986539669036866
23.887856316566467
24.07667143821716
24.114936728477478
24.316949586868287
24.39541376590729
24.074756627082824
24.136592779159546
24.017592000961304
23.63236325263977
23.659644951820372
24.34186026573181
24.420250515937806
23.78228811264038
22.978143553733826
22.257652525901793
22.256409649848937
22.49298921108246
22.746880178451537
22.727669820785522
22.789390015602113
22.613224182128906
23.00270719528198
23.233375706672668
23.118073225021362
23.444554343223572
23.686371555328368
23.564526171684264
23.431659450531004
23.13345295906067
22.476094455718993
21.785320892333985
21.66177453994751
21.849417834281923
21.546101303100585
21.010720782279968
21.313618330955507
21.078522233963014
20.219189257621764
19.095369210243224
18.773395462036135
18.6845879983902
18.21015073776245
17.67638599395752
17.23455012321472
17.279561409950258
17.981471834182738
18.99551734447479
19.79999119281769
19.952618765830994
20.13171103477478
20.661180305480958
21.482099213600158
22.146483511924743
21.98444692134857
22.24282305240631
22.55784972667694
22.09278239250183
22.093817791938783
22.50718475341797
22.4755398273468
22.107881546020508
22.877350916862486
24.28982401371002
25.3938534784317
26.092877087593077
26.119417462348938
26.0541916179657
25.968439354896546
26.021380105018615
25.869185371398927
26.091725835800172
26.09990694999695
25.96443669319153
26.262626690864565
26.324524502754212
26.498721265792845
26.85557240486145
26.461846809387207
26.027722325325012
26.051188154220583
26.102671298980713
25.549154076576233
24.60539291858673
24.07428843021393
24.02219268798828
23.662418608665465
23.10731954097748
22.799549865722657
22.983574681282043
23.149938836097718
23.578317680358886
23.94403468132019
24.093488264083863
24.138094334602357
23.768845658302308
22.69089084148407
21.469478917121886
20.74673122406006
20.934012174606323
21.15951180458069
20.856360306739806
20.561156573295595
20.84849190235138
21.42263244628906
20.912610793113707
20.640480465888977
20.889602923393248
21.500410056114198
22.80767143726349
24.10922294616699
24.11363302230835
23.514910650253295
22.67952600002289
22.1135390996933
22.309993724823
23.04601707458496
23.744302449226378
24.077970781326293
24.204286727905274
24.28166076660156
24.039039964675904
23.839802169799803
23.63594822883606
23.5579514837265
23.372821817398073
22.906304907798766
22.589901971817017
22.716540336608887
22.927158813476563
23.144031076431276
23.485691561698914
23.876961045265197
24.253544297218323
24.617452459335325
24.880638117790223
24.940988306999206
25.110984129905702
25.468858494758607
25.687472882270814
25.354519605636597
25.278954992294313
25.185931868553162
25.0938627243042
25.105350108146666
25.14688150882721
25.183238396644594
25.178937826156616
25.24551535129547
25.19861337661743
24.918617668151857
24.255801420211792
23.127018804550172
21.945238566398622
21.371900749206542
21.52567118167877
21.618922572135926
21.43140709877014
20.56126904964447
19.070572481155395
17.88248833179474
17.693675494194032
17.14476739883423
16.713779273033143
16.65716215610504
16.20754524230957
14.924845004081726
14.165351567268372
13.67746868610382
14.070903992652893
14.479997239112855
14.68273307800293
14.5331756401062
14.43595531463623
14.253819851875305
14.162030735015868
14.212177243232727
14.319033155441284
14.490674271583558
14.560093517303466
14.414567975997924
14.050442996025085
13.657547812461853
13.439535002708435
13.494932494163514
13.834531230926514
14.362620677947998
14.34435839176178
13.979948635101318
13.619482474327087
14.00707901954651
14.471042056083679
14.778366255760194
14.68095549583435
15.32189353466034
16.131559314727784
16.780413537025453
17.181764006614685
17.28565960884094
17.094214663505554
16.749883198738097
16.43333508014679
16.633299927711487
17.17086597919464
17.377388138771057
17.538940439224245
18.14080819606781
18.371559686660767
18.20872282028198
17.78144386291504
18.051835579872133
18.814549865722658
19.392913346290587
19.318113799095155
18.79337450027466
18.55153697490692
18.998364119529725
18.94894944667816
18.979599123001098
18.638053698539736
18.509519395828246
18.264179015159606
19.17535979747772
20.454415979385377
20.88014205932617
21.10716803073883
21.53359708786011
21.696855516433715
21.716035199165344
22.01065863132477
22.51133370876312
23.032329320907593
23.491471152305603
23.69845347881317
23.307272186279295
22.934953122138978
22.640714111328126
22.450694756507872
22.693499069213868
23.044933876991273
22.983784518241883
22.495387697219847
22.24591977119446
22.40345916748047
21.741267676353456
20.88636389732361
20.290711960792542
19.974902391433716
19.749007902145387
19.640792841911317
19.70722046852112
19.890497121810913
19.823986334800722
19.76746905326843
20.25110754966736
20.51284466266632
19.824688816070555
19.52626998901367
19.489710059165954
19.778446893692017
19.170562205314635
18.382176909446716
17.844650912284852
17.5169233417511
17.30021162509918
17.067546710968017
16.671651487350463
16.745241937637328
17.451976747512816
18.11048530578613
18.463052043914796
19.187684850692747
18.617805261611938
17.401777873039247
16.944083099365233
16.954345474243166
16.925599927902223
16.812253174781798
16.433881464004518
15.721685681343079
15.150587368011475
15.087599153518676
15.249608478546143
15.11442054271698
15.501363654136657
16.00494553565979
16.438109130859374
16.881638083457947
17.035764107704164
17.194312319755554
17.106475367546082
16.85089961051941
16.892854981422424
17.37894368648529
17.86518512248993
17.891679549217223
18.476279611587525
19.085279755592346
19.45061628818512
19.69173405647278
19.89963843345642
19.95934863090515
19.823253755569457
19.448564949035646
18.81763850688934
18.286615948677063
18.226346716880798
18.141681690216064
18.233928623199464
18.363049330711366
18.725234513282775
18.796358671188354
18.719806575775145
18.81515923023224
19.21505147457123
19.80585844039917
20.25116388320923
19.981052060127258
19.543819584846496
18.757269520759582
18.210906038284303
17.97450601577759
18.100808129310607
18.391226987838746
