9.444924046993256
9.466405324935913
9.498998770713806
9.519756848812102
9.501197893619537
9.42632178068161
9.31342024564743
9.184999752044678
9.071328852176666
9.076403088569641
9.231639301776886
9.351270093917847
9.315906376838685
9.29739039182663
9.43456871509552
9.568711869716644
9.529469535350799
9.40973608493805
9.372551200389863
9.403302216529847
9.425261092185973
9.467973318099975
9.550076637268067
9.594289927482604
9.556141266822815
9.494160985946655
9.46656713962555
9.416253473758697
9.292302632331848
9.225379040241242
9.349541187286377
9.542062556743621
9.577505753040313
9.460302920341492
9.363765649795532
9.337215163707732
9.327833271026611
9.343833765983582
9.394976353645324
9.397698035240174
9.279880194664
9.10563898563385
8.98741747379303
8.997770581245423
9.17486572265625
9.405821199417113
9.467681758403778
9.353766577243805
9.287550048828125
9.372669701576234
9.48381803035736
9.497388343811036
9.447155480384827
9.405554859638213
9.360700092315675
9.284421248435974
9.215978055000305
9.232115340232848
9.320908994674683
9.342523005008697
9.263336148262024
9.282377769947052
9.466942899227142
9.526475315093995
9.282485826015472
9.011201033592224
9.001899359226227
9.148998501300811
9.232817494869233
9.258284204006195
9.28183644771576
9.22662300348282
9.077226569652558
8.969744198322296
8.97482746362686
8.997149288654327
8.952442131042481
8.912837307453156
8.964005601406097
9.026140635013581
8.967694997787476
8.816928188800812
8.733206627368927
8.780365524291993
8.860557513237
8.903077676296235
8.958590304851532
9.057540204524994
9.130521638393402
9.137513825893402
9.117083003520966
9.087182204723359
9.027680037021637
8.90939410686493
8.732948739528656
8.596500849723816
8.63140514612198
8.830918185710907
9.023757729530335
9.034766376018524
8.85746787071228
8.659389231204987
8.592327606678008
8.660620651245118
8.799228775501252
8.960372579097747
9.08915069580078
9.120391371250152
9.070538721084596
9.037331850528718
9.011885483264923
8.865413520336151
8.630647101402282
8.537343876361847
8.660897047519684
8.803196578025817
8.817437262535096
8.80684752702713
8.892960658073426
9.00057998418808
9.021558587551118
9.0169504904747
9.073864991664886
9.122448139190674
9.086746058464051
9.048844060897828
9.100934579372407
9.188806922435761
9.219092071056366
9.195235643386841
9.163031527996063
9.13178838968277
9.105649137496949
9.098912799358368
9.101344170570373
9.097137250900268
9.078117954730988
9.037562825679778
9.014057705402374
9.046626622676849
9.111082923412322
9.201757237911224
9.345193853378296
9.498409790992737
9.574914875030517
9.564649047851562
9.504636764526367
9.383207387924195
9.22288492679596
9.15236649274826
9.244140350818634
9.418443832397461
9.566463971138
9.609868474006653
9.500327663421631
9.299875571727753
9.173914444446563
9.204760439395905
9.27397889137268
9.241111643314362
9.17781815290451
9.260392124652862
9.470878841876983
9.59945830821991
9.54795262336731
9.457580673694611
9.471602206230164
9.514586215019227
9.457877256870269
9.358494772911072
9.327494266033172
9.312227444648743
9.229819839000703
9.168428785800934
9.235925025939942
9.347382535934448
9.370497241020203
9.356596240997314
9.388603789806366
9.361251015663147
9.222614340782165
9.178447632789611
9.327739067077637
9.452731742858887
9.411408431529999
9.329500188827515
9.305853435993194
9.28039738893509
9.215982167720794
9.190711710453034
9.238721487522126
9.246543262004852
9.157305891513824
9.095183560848236
9.147489681243897
9.228993382453918
9.245952587127686
9.217726702690124
9.17821857213974
9.131184253692627
9.117314128875732
9.158948867321014
9.213816339969634
9.27943294286728
9.402019312381745
9.542821507453919
9.57722118139267
9.497253129482269
9.476083388328552
9.604761872291565
9.73554753780365
9.715090374946595
9.586429073810578
9.492502136230469
9.521291625499725
9.614008378982543
9.630609703063964
9.567138497829438
9.534477446079254
9.556818635463715
9.598555517196655
9.678746299743652
9.813565936088562
9.937243311405181
9.963328886032105
9.88865787744522
9.78091170310974
9.657579326629639
9.53500163078308
9.567358253002167
9.820079486370087
10.051921820640564
10.055664999485016
9.954924399852752
9.942670555114747
10.032840957641602
10.163022921085357
10.283723633289338
10.327175586223602
10.230759658813476
10.033743073940277
9.882471218109131
9.848008646965027
9.82561108827591
9.709640684127807
9.562225644588471
9.495439405441283
9.496228144168853
9.499777026176453
9.498248448371887
9.511541407108307
9.535024199485779
9.498672535419464
9.333385381698609
9.09408370256424
8.928867821693421
8.938896806240082
9.044995841979981
9.038309118747712
8.876076395511626
8.765075924396514
8.839395723342896
8.997655799388886
9.106886229515077
9.134785215854645
9.127173991203309
9.134895770549774
9.12917981147766
9.08019654750824
9.031269207000733
9.007956569194794
8.970861585140229
8.872790036201478
8.735019092559815
8.678858530521392
8.811112768650055
9.065278961658478
9.299991586208343
9.455510785579682
9.478248653411866
9.351917266845703
9.216796824932098
9.177342627048493
9.157019789218902
9.111268994808198
9.05973918914795
8.934454574584962
8.737145071029664
8.61613213300705
8.615521664619445
8.662925071716309
8.756614632606507
8.906330485343933
9.059904201030731
9.205947847366334
9.337966549396516
9.36855720281601
9.305087976455688
9.29476521730423
9.342854475975036
9.303840837478639
9.164973335266113
9.06687041759491
9.085276563167572
9.161522440910339
9.218124384880065
9.214610249996186
9.186137683391571
9.262090885639191
9.459291090965271
9.58864478111267
9.530059008598327
9.396311955451965
9.350290627479554
9.40509248971939
9.466317272186279
9.51358681678772
9.591152155399323
9.659601535797119
9.660038204193116
9.645528028011322
9.707180478572845
9.834858009815216
9.915349707603454
9.869003262519836
9.76350933790207
9.733814373016358
9.760481731891632
9.687424066066741
9.53809112071991
9.498297555446625
9.54200457572937
9.507000226974487
9.425636291503906
9.401356039047242
9.4272727560997
9.488303844928742
9.590111508369446
9.70457859992981
9.813751599788667
9.9111270403862
9.946259572505951
9.901714017391205
9.841079914569855
9.76938050031662
9.64249855041504
9.536451303958893
9.518754262924194
9.520458924770356
9.539314060211181
9.62060486316681
9.710718805789947
9.796703758239746
9.927868876457214
10.06463466644287
10.12278382062912
10.117150402069091
10.110703542232514
10.068917663097382
9.954836156368255
9.866952810287476
9.889016635417939
9.95400705575943
9.970265824794769
9.941878626346588
9.90116708278656
9.82574071407318
9.690347611904144
9.537289700508119
9.438640127182007
9.420329732894897
9.440083186626435
9.420994250774383
9.344711549282074
9.295953357219696
9.300139493942261
9.24020027399063
9.101821413040161
9.055686995983123
9.15233591556549
9.220689508914948
9.17284172296524
9.150133464336395
9.263119456768036
9.397345697879791
9.40990975856781
9.334168748855591
9.235280334949493
9.112269985675812
9.022390990257263
9.006200015544891
8.965031349658966
8.82264854669571
8.679241180419922
8.688136234283448
8.849433660507202
9.032921261787415
9.15344455718994
9.199663677215575
9.177418773174287
9.12808141708374
9.087213644981384
9.026186137199401
8.936872746944427
8.880132675170898
8.903791689872742
8.941022260189056
8.851465137004853
8.666122241020203
8.59000015258789
8.662229940891265
8.74314080953598
8.799854154586791
8.889853928089142
8.994525020122529
9.040637385845184
8.995554103851319
8.909407863616943
8.850558927059174
8.812956893444062
8.769039530754089
8.741033251285552
8.75809473991394
8.80895717382431
8.84619559288025
8.871856400966644
8.952356355190277
9.062541720867157
9.098045947551727
9.053205745220184
9.024286525249481
9.073086786270142
9.131949515342713
9.089657542705536
8.974999208450317
8.921714670658112
8.977119266986847
9.086219382286071
9.173902096748352
9.168853771686553
9.094331886768341
9.104706330299377
9.266650431156158
9.401159403324128
9.341126534938812
9.201154775619507
9.158272216320038
9.176790566444398
9.158155813217164
9.135160105228424
9.178049519062043
9.264797050952911
9.305925872325897
9.262444803714752
9.200978517532349
9.155929720401764
9.082771790027618
9.03650675535202
9.101042120456695
9.18002644777298
9.168517253398896
9.121550691127776
9.07354472398758
8.965297703742982
8.797594985961915
8.679243586063386
8.716903586387634
8.899257454872131
9.130755381584168
9.34566395521164
9.48298059463501
9.475972175598145
9.371360111236573
9.28915878534317
9.244063122272491
9.163628449440003
9.043032758235931
8.965369307994843
9.006890337467194
9.148546454906464
9.269629423618317
9.253350398540498
9.112617974281312
9.004722459316254
9.033307666778564
9.080577297210693
8.997656872272492
8.848276743888855
8.818331673145295
8.953203587532043
9.091224279403686
9.07765472650528
8.946668345928192
8.839462893009186
8.812682375907897
8.798853831291199
8.761535263061523
8.795592584609984
8.952684679031371
9.086751637458802
9.064586865901948
8.96722030878067
8.923362596035004
8.912871024608613
8.853427548408508
8.789306001663208
8.845206763744354
8.985300722122192
9.03809864282608
8.993663744926453
8.975248198509217
8.958991441726685
8.8723037981987
8.806091201305389
8.861279442310334
8.982103238105774
9.049697694778443
9.05830474615097
9.104259445667267
9.167382805347442
9.125141108036042
9.011537895202636
8.969729962348937
9.006314165592194
9.043381514549255
9.067351825237274
9.094469718933105
9.11518741607666
9.086666188240052
8.995632045269012
8.910433101654053
8.885305058956146
8.894072546958924
8.872386503219605
8.810001528263092
8.809617593288422
8.945958211421967
9.122332196235657
9.173237910270691
9.070210287570953
8.95596843957901
8.95982869386673
9.083581123352051
9.262880737781524
9.423002738952636
9.508053963184357
9.520825436115265
9.491069777011871
9.436711208820343
9.415436401367188
9.482407839298249
9.570211524963378
9.587139394283295
9.584249284267425
9.652346909046173
9.73262853384018
9.700116512775422
9.591089973449707
9.553800566196442
9.573781776428223
9.50367830991745
9.366520664691926
9.321020512580871
9.402003712654114
9.514599881172181
9.562613933086395
9.537019793987275
9.47293710231781
9.337978587150573
9.151059951782226
9.058572852611542
9.092236790657044
9.145837109088898
9.22213220357895
9.374706828594208
9.523496024608612
9.57106117248535
9.55533699989319
9.532818043231964
9.471967339515686
9.38281040906906
9.380562331676483
9.520260848999023
9.706308059692383
9.826406445503235
9.860985600948334
9.855213408470155
9.85247909784317
9.851954879760742
9.852139801979066
9.895816555023194
9.983392460346222
10.000321824550628
9.857010164260863
9.659070663452148
9.581328904628753
9.631204311847688
9.707196111679076
9.753299074172974
9.724682874679566
9.62393635034561
9.573354907035828
9.617867777347564
9.62518480539322
9.538095324039459
9.46751402616501
9.475060195922852
9.468958992958068
9.357589211463928
9.231202971935272
9.261113519668578
9.418810756206513
9.504399621486664
9.424336242675782
9.265930051803588
9.141887392997742
9.072056827545167
9.054847218990325
9.142633004188538
9.312182834148407
9.429168508052825
9.469323034286498
9.521003670692444
9.559369795322418
9.49269181728363
9.358581101894378
9.2772398686409
9.274300837516785
9.305089979171752
9.361392126083373
9.430936443805695
9.484532799720764
9.501066076755524
9.450858507156372
9.352749679088593
9.290626273155212
9.284236299991608
9.281292238235473
9.303416438102722
9.357007567882539
9.308293771743774
9.103139119148254
8.885932788848876
8.78594578742981
8.78408085346222
8.807130477428437
8.806035733222961
8.726792860031129
8.588417859077454
8.552185032367706
8.697636368274688
8.848252737522126
8.826844933032989
8.74279183626175
8.794599401950837
8.94946126461029
9.06759447336197
9.170772879123687
9.342493278980255
9.478505811691285
9.433975019454955
9.315435087680816
9.309252209663391
9.390338065624237
9.4411603474617
9.47657743692398
9.555383653640748
9.594821047782897
9.48218677520752
9.309558475017548
9.270919535160065
9.36152137517929
9.435456626415252
9.476835837364197
9.557288064956666
9.659588005542755
9.705969548225402
9.660639843940736
9.565751099586487
9.491655564308166
9.460606389045715
9.47663094997406
9.570181143283843
9.707268567085267
9.755908334255219
9.649516665935517
9.474808819293976
9.328052363395692
9.197061734199524
9.099995784759521
9.176499886512756
9.439134163856506
9.675315310955048
9.760395586490631
9.793484630584716
9.836101014614105
9.827168498039246
9.799297044277191
9.837587041854858
9.884008448123932
9.840138006210328
9.763574166297913
9.818974809646607
10.007074971199035
10.100520043373107
9.991287512779236
9.85172518491745
9.806979160308838
9.788135938644409
9.779411888122558
9.814503309726716
9.830194473266602
9.816159718036651
9.824998440742492
9.80885865688324
9.73606034040451
9.677053253650666
9.662701635360717
9.674885537624359
9.697487177848815
9.677189254760743
9.573464024066926
9.417091090679168
9.27082530260086
9.202595891952514
9.219242653846742
9.239186832904815
9.24028403520584
9.301912074089051
9.456856760978699
9.616221997737885
9.639202466011048
9.496257932186127
9.327569916248322
9.268510024547577
9.321733820438386
9.43148163318634
9.556818108558655
9.692386379241944
9.843620879650116
9.919434206485748
9.822150294780732
9.682040696144105
9.680739688873292
9.73195526123047
9.67902562379837
9.566570343971252
9.491869187355041
9.470821328163147
9.478072938919068
9.46223372220993
9.406578731536865
9.35652705192566
9.34603688955307
9.386610043048858
9.454539890289306
9.44919838666916
9.330643365383148
9.21079073190689
9.172818584442139
9.205446422100067
9.264007651805878
9.24770378112793
9.14653520822525
9.091444466114044
9.076413166522979
9.012321860790253
8.98136370420456
9.04986534833908
9.113539438247681
9.110105090141296
9.096249091625214
9.104035115242004
9.104276480674743
9.084292120933533
9.07169993877411
9.094689180850983
9.171539933681489
9.270241401195527
9.253686172962189
9.061982860565186
8.866411528587342
8.826884934902191
8.911193203926086
9.037607109546661
9.14760008096695
9.172304120063782
9.099798424243927
8.98447368144989
8.872512123584748
8.820085244178772
8.854669075012207
8.893463492393494
8.866427421569824
8.834174728393554
8.876961734294891
8.98107281923294
9.064101164340974
9.06172613620758
8.984811129570007
8.878723492622376
8.77708238363266
8.712365005016327
8.67515804052353
8.604769310951234
8.542080752849579
8.63267629623413
8.863384537696838
9.05163651227951
9.113259544372559
9.105244362354279
9.123280971050262
9.241408395767213
9.40570885181427
9.518227169513702
9.624721820354461
9.76794644832611
9.856641862392426
9.852244322299958
9.84091914653778
9.89795464515686
10.003543179035187
10.0679385638237
10.022900972366333
9.889760870933532
9.76032782793045
9.699994838237762
9.656194553375244
9.544846942424774
9.425294625759125
9.441488842964173
9.585986168384553
9.666573777198792
9.591758885383605
9.509136426448823
9.529338998794556
9.597020361423493
9.660729274749755
9.678490521907806
9.584267599582672
9.430248970985412
9.365857388973236
9.430417191982269
9.528501882553101
9.571281700134277
9.561553986072541
9.551354639530182
9.546298100948334
9.513654642105102
9.489736413955688
9.564840941429138
9.711004526615143
9.777657718658448
9.715547831058503
9.633970527648925
9.58792667388916
9.520417692661285
9.451703987121583
9.447559902667999
9.437078292369842
9.32228500366211
9.14096896648407
9.001039381027221
8.99485790014267
9.12736662387848
9.249785432815552
9.204618740081788
9.026353118419648
8.858137381076812
8.74209371328354
8.637705891132354
8.58728090763092
8.693636116981507
8.916980476379395
9.046980230808257
8.982383666038514
8.892601413726807
8.943903889656067
9.077888705730437
9.188990173339844
9.235003588199616
9.190587823390961
9.144750363826752
9.215054326057434
9.296805338859558
9.239391050338746
9.104055058956146
8.984479460716248
8.864648127555848
8.814167475700378
8.78628448486328
8.88205982208252
9.019125304222108
9.063659887313843
9.013640930652619
8.964138298034667
8.948876278400421
8.976764225959778
9.06663285255432
9.145542709827422
9.103171124458314
8.988636584281922
8.968303589820861
9.086874797344208
9.220242846012116
9.267289278507233
9.2588090467453
9.239356894493103
9.221623938083649
9.278152484893798
9.457622928619385
9.66630665063858
9.781487276554108
9.76617981672287
9.64574946641922
9.513002576828002
9.481504576206207
9.542643492221833
9.616866600513458
9.678159747123718
9.704445962905885
9.663514845371246
9.538259208202362
9.366424727439881
9.314922561645508
9.452899990081788
9.563873600959777
9.497785890102387
9.376772639751435
9.325597181320191
9.34102960586548
9.363587687015533
9.30992654800415
9.179324941635132
9.112165019512176
9.173653376102447
9.242028286457062
9.277450709342956
9.430057768821717
9.642027800083161
9.759903793334962
9.58852861404419
9.355176396369934
9.269224524497986
9.302556478977204
9.379720225334168
9.445670163631439
9.448684656620026
9.422482709884644
9.441084036827087
9.476187646389008
9.409081242084504
9.205903971195221
9.00207153081894
8.906787943840026
8.839209730625152
8.723430840969085
8.654216589927673
8.694090263843536
8.749334280490876
8.756744933128356
8.747992765903472
8.703898997306824
8.568633720874786
8.408725693225861
8.354009766578674
8.405084915161133
8.443045704364776
8.379864301681518
8.265437338352204
8.218373391628266
8.260778620243073
8.354442219734192
8.458622527122497
8.494572026729584
8.468956859111787
8.459885609149932
8.436389954090119
8.388541951179505
8.422263579368591
8.525500824451447
8.585594940185548
8.647114617824554
8.781353192329407
8.846735217571258
8.740016357898712
8.632996039390564
8.659199213981628
8.688509328365326
8.639026322364806
8.65133615732193
8.785197539329529
8.914047026634217
8.958862941265107
8.89975799560547
8.709289700984955
8.504751782417298
8.486238296031951
8.604753193855286
8.629144246578216
8.555373508930206
8.601399533748626
8.832940857410431
9.070133962631225
9.175010061264038
9.223685989379883
9.2933119058609
9.314951531887054
9.250864443778992
9.156078355312347
9.051407265663148
8.94426854133606
8.911000924110413
8.992834284305573
9.067237393856049
9.001864249706268
8.88991176366806
8.947716348171234
9.207091879844665
9.470108861923217
9.571795563697815
9.51190819501877
9.359081089496613
9.217228877544404
9.157067332267761
9.107137458324432
9.02887759923935
9.048660700321198
9.179296364784241
9.223453161716462
9.099652941226958
8.922403874397277
8.75413432598114
8.587382590770721
8.500302288532257
8.566846694946289
8.72737872838974
8.901915137767793
9.056354632377625
9.129327375888824
9.090137298107146
9.012498083114624
8.953387315273284
8.915800366401673
8.960487515926362
9.129752471446992
9.28797387599945
9.228276023864746
9.001244885921478
8.93023871898651
9.1137522149086
9.275565819740295
9.241021959781646
9.134451904296874
9.11160176038742
9.164639542102814
9.209574828147888
9.244955179691315
9.292841455936433
9.310332655906677
9.287204008102417
9.28794671535492
9.345402245521546
9.42438184261322
9.502885777950286
9.579362707138062
9.584708597660065
9.429419050216675
9.163812003135682
8.964630320072175
8.937111699581147
9.005059552192687
9.058560643196106
9.107223207950591
9.17735688686371
9.253707401752472
9.358241226673126
9.479638392925262
9.540252773761749
9.532192275524139
9.535755364894866
9.610439479351044
9.735980458259583
9.836950964927674
9.873138318061828
9.860746340751648
9.746699788570403
9.45637182712555
9.14566995382309
9.085283334255218
9.25857236623764
9.419750690460205
9.493076102733612
9.553440201282502
9.582446269989013
9.563706152439117
9.600211627483368
9.76645330429077
9.947719690799714
9.918119790554046
9.66561592578888
9.46888578414917
9.475375974178315
9.505642583370209
9.427300786972046
9.35888031721115
9.371362071037293
9.345910496711731
9.260922191143036
9.252207701206208
9.315337982177734
9.294522125720977
9.152809138298034
9.00851774930954
8.932217676639556
8.87539021730423
8.82177549123764
8.853839628696441
9.015982272624969
9.207223453521728
9.296407172679901
9.345644464492798
9.475327241420747
9.572853574752807
9.53026578426361
9.474215323925018
9.466702075004578
9.406381039619445
9.293676636219026
9.22806521654129
9.191105601787568
9.093501522541047
8.958426394462585
8.85759137392044
8.777328028678895
8.695840480327606
8.688962216377258
8.838200120925903
9.066069402694701
9.175036327838898
9.087610282897948
8.935515003204346
8.849980270862579
8.847921986579895
8.915845170021058
8.98514872789383
8.944129226207734
8.80629597902298
8.716727156639099
8.763075301647186
8.89790369272232
9.005192344188691
9.014197442531586
8.98552943944931
9.008204715251923
9.0735662317276
9.14310673713684
9.213532083034515
9.257940499782562
9.24902061700821
9.26291006565094
9.37735476732254
9.519246554374694
9.606858043670654
9.692745654582977
9.82754323720932
9.96861489057541
10.02699565410614
9.908159403800964
9.664111371040343
9.502611241340638
9.445089781284333
9.320854139328002
9.164241995811462
9.123649985790253
9.116991987228394
8.992733526229859
8.810827195644379
8.738608784675598
8.8165793967247
8.959532308578492
9.111221253871918
9.283162569999694
9.474890882968902
9.627335147857666
9.698381612300873
9.723708696365357
9.703964383602143
9.559681596755981
9.330646061897278
9.21440623998642
9.278906054496765
9.392127413749694
9.451971185207366
9.446351187229157
9.381254546642303
9.300784227848053
9.270228536128998
9.286490256786346
9.280781261920929
9.191014342308044
9.022369213104248
8.874775788784028
8.852914237976075
8.930548739433288
8.99257497549057
9.000281789302825
8.99274014234543
8.977422869205474
8.935106830596924
8.853392498493195
8.73015298128128
8.615465142726897
8.550981628894807
8.478017735481263
8.37786477804184
8.341748838424683
8.417679405212402
8.577730133533478
8.74317625284195
8.799787776470184
8.743012931346893
8.704599740505218
8.72346084833145
8.698947830200195
8.658394706249236
8.767563478946686
9.00415491104126
9.148080084323883
9.130193710327148
9.097154636383056
9.12545690536499
9.139132964611054
9.11215077161789
9.11411236524582
9.148293046951293
9.127303023338317
9.028515741825103
8.95123211145401
8.961060645580291
8.979661722183227
8.919814884662628
8.803343904018401
8.681841101646423
8.580877902507781
8.55856393814087
8.66040043592453
8.77366179227829
8.746132087707519
8.663861629962922
8.73183098077774
8.939758422374725
9.10908397436142
9.133593878746034
9.030169851779938
8.891075475215912
8.816956064701081
8.841545572280884
8.909600737094879
8.934497773647308
8.910487031936645
8.917024207115173
8.9635640335083
8.982074279785156
8.983979716300965
8.990453097820282
8.925742073059082
8.786216197013855
8.702963814735412
8.744787244796752
8.843461627960204
8.899443790912628
8.856462609767913
8.771568243503571
8.781786713600159
8.859473278522492
8.827240965366364
8.67720285654068
8.53606798171997
8.419048581123352
8.301047959327697
8.23060510635376
8.227380125522613
8.2472283577919
8.274294786453247
8.332604916095734
8.443854660987855
8.607879178524017
8.777629098892213
8.88438316345215
8.909073171615601
8.87434648990631
8.80329860687256
8.726265320777893
8.667176306247711
8.619203445911408
8.550114285945892
8.455552656650543
8.403064510822297
8.418030173778535
8.40957188129425
8.31810548067093
8.194603047370911
8.129049186706544
8.196561264991761
8.37588990688324
8.506342136859894
8.50030433177948
8.506669857501983
8.65529171705246
8.848234782218933
8.935690321922301
8.880946073532105
8.7618807554245
8.73122290611267
8.872448828220367
9.074778392314911
9.17011613368988
9.126149742603301
9.004932682514191
8.886244983673096
8.887911326885224
9.058991227149964
9.248852217197419
9.2536066532135
9.079389288425446
8.92969071149826
8.941350541114808
9.055259747505188
9.143726284503936
9.17080813884735
9.178343997001647
9.1702357006073
9.099320540428161
8.949432315826416
8.766254644393921
8.586405823230743
8.425404558181762
8.33617790222168
8.3374924492836
8.370633969306946
8.418618457317352
8.512219610214233
8.633183844089508
8.722518761157989
8.729099884033204
8.704489140510558
8.791453874111175
8.969410955905914
9.07146772623062
9.101124036312104
9.191585855484009
9.349717411994934
9.47852447271347
9.482438404560089
9.3269850897789
9.148712236881256
9.099472122192383
9.107489576339722
9.055430204868317
8.96370735168457
8.87769457101822
8.805766191482544
8.752076694965362
8.691984879970551
8.603552534580231
8.557651467323304
8.621352548599242
8.741969094276428
8.855616981983184
8.92047905921936
8.88830579996109
8.802057223320007
8.746667273044586
8.740716722011566
8.791348919868469
8.897270333766937
9.000756106376649
9.057370128631591
9.080074563026429
9.07962212085724
9.0639253616333
9.05011353969574
9.063986251354217
9.156422138214111
9.294413981437684
9.363080384731292
9.359990725517273
9.368892128467559
9.414004094600678
9.458607249259948
9.437449357509614
9.325662698745727
9.204007732868195
9.185676982402802
9.302620790004731
9.447391896247863
9.447491521835326
9.27887587070465
9.079424216747285
8.905497674942017
8.709749703407288
8.529217917919159
8.438216683864594
8.433329696655273
8.493811404705047
8.576888732910156
8.597622420787811
8.526003603935242
8.431405448913575
8.414204759597778
8.494134562015534
8.616539199352264
8.739934537410736
8.812353620529175
8.777580065727234
8.67244376897812
8.58997857093811
8.524849252700806
8.403454675674439
8.273406486511231
8.256601295471192
8.355239176750183
8.486060485839843
8.629720149040223
8.809187262058257
8.95782214641571
8.971741154193879
8.879298043251037
8.80919713973999
8.805026381015777
8.77646907567978
8.667246515750884
8.517466280460358
8.350089979171752
8.234321963787078
8.308224856853485
8.510069363117218
8.600692203044892
8.545603020191193
8.516802327632904
8.603876781463622
8.797427668571473
9.082692947387695
9.381811156272889
9.512654881477356
9.364443929195405
9.134717435836793
9.111378457546234
9.31328358411789
9.515487716197967
9.634357640743255
9.702433793544769
9.703378772735595
9.633850116729736
9.532946889400483
9.456829397678375
9.456257591247558
9.488287494182586
9.437099514007569
9.273432366847992
9.118497579097747
9.082152597904205
9.10259624004364
9.079083173274993
9.044639203548432
9.052707583904267
9.031037771701813
8.930722267627717
8.900145661830901
9.08164158821106
9.333890271186828
9.407346506118774
9.30839061498642
9.21789367198944
9.175060312747956
9.106383748054505
9.00444239139557
8.921803007125854
8.905890016555785
8.965893638134002
9.060654079914093
9.131755859851838
9.169948434829712
9.220094017982483
9.267240421772003
9.221243884563446
9.087687113285064
8.993390216827393
9.026902282238007
9.159429123401642
9.256942534446717
9.167996084690094
8.84540134191513
8.40508560180664
8.12420948266983
8.211661622524261
8.498759565353394
8.666593353748322
8.625387001037598
8.566346740722656
8.613909270763397
8.725363183021546
8.874592580795287
9.085961213111878
9.326382112503051
9.508932495117188
9.575607674121857
9.563556468486786
9.559750108718871
9.574263923168182
9.539919965267181
9.462135887145996
9.445723211765289
9.519249124526977
9.569399077892303
9.510705022811889
9.408430035114288
9.32045063495636
9.366068472862244
9.274572961330414
8.872245478630067
8.647017529010773
8.598625969886779
8.668738746643067
8.918408977985383
9.386780881881714
9.862762084007263
10.04175439119339
9.939273614883422
9.875284962654113
10.040995185375214
10.30562320947647
10.497407248020172
10.633899874687195
10.78725581884384
10.963041927814484
11.117380900382996
11.158840162754059
11.003730943202973
10.67918062210083
10.35807445526123
10.168559176921844
10.19649068593979
10.380986173152923
10.569466230869294
10.614084911346435
10.487052493095398
10.295054771900176
10.160962076187134
10.103780293464661
10.10090330839157
10.125583415031434
10.063169069290161
9.87260993719101
9.692094419002533
9.555001661777496
9.340146746635437
9.170921759605408
9.074228990077973
9.20422253370285
9.491447932720185
9.826551613807679
10.007308974266053
9.924495720863343
9.78863079547882
9.729185764789582
9.68811695098877
9.801716325283051
9.916827280521392
9.9912286901474
10.0057062125206
10.238705508708954
10.824282906055451
11.435285716056823
11.621726880073547
11.349855625629425
11.00925918340683
10.97988362789154
11.262481391429901
11.480177221298218
11.31838360786438
10.93013784646988
10.648968758583068
10.495567693710328
10.27109392642975
9.948227946758271
9.653722062110901
9.601348268985749
9.729377388954163
9.884043059349061
10.028510751724243
10.184087743759155
10.228905646800994
10.148173367977142
10.022778592109681
9.929324221611022
9.939099118709564
10.059741158485412
10.20203539609909
10.289238312244414
10.294187352657318
10.236181304454803
10.199024157524109
10.223410065174102
10.269781992435455
10.348852043151856
10.511951282024384
10.608231489658356
10.668748581409455
10.588694055080413
10.40831353187561
10.134125204086304
9.904030406475067
9.909636092185973
10.077488572597504
10.269131414890289
10.434329612255096
10.474158346652985
10.428194165229797
10.43659077167511
10.655415267944337
10.536195204257965
10.076576335430145
9.521259944438935
9.095482928752899
8.824037806987763
8.648369653224945
8.501413397789001
8.281578965187073
8.056918137073517
8.049716324806214
8.254063103199005
8.452945551872254
8.56315056324005
8.683930625915528
8.841319334506988
8.98243092060089
9.023613569736481
9.085085966587066
9.191101768016814
9.226286466121673
9.205941243171692
9.248984940052033
9.362124540805816
9.456617057323456
9.473841190338135
9.422449717521667
9.36004721403122
9.335600364208222
9.357423465251923
9.411113839149476
9.44678599357605
9.415209708213807
9.312460589408875
9.150386791229248
9.011199009418487
9.020958070755006
9.164065101146697
9.312410900592804
9.380821981430053
9.36920114517212
9.362395823001862
9.426034052371978
9.476697261333465
9.411121361255645
9.314739632606507
9.310029373168945
9.308176231384277
9.19143927335739
9.06038818359375
9.058214254379273
9.180218348503113
9.35703248977661
9.50866497039795
9.573951168060303
9.59208544254303
9.631712226867675
9.691354303359985
9.73794050693512
9.722580885887146
9.637892329692841
9.580101265907288
9.589086117744445
9.594780805110931
9.574089634418488
9.541081759929657
9.487724747657776
9.412678952217101
9.321656861305236
9.240375053882598
9.198450117111205
9.180516321659088
9.147427980899812
9.090566861629487
9.050200788974761
9.07876966714859
9.179504222869873
9.282867023944855
9.307755272388459
9.234794287681579
9.100531687736511
8.985664987564087
8.976996104717255
9.088549292087555
9.260892751216888
9.367363421916961
9.276746690273285
9.04597795009613
8.891975679397582
8.912975163459778
9.002866024971008
9.033697516918183
9.00985645532608
9.011837031841278
9.04939466714859
9.058922355175019
9.034866745471954
9.048152503967286
9.105560350418092
9.14425745010376
9.155980618000031
9.112704226970672
8.93206773519516
8.699078607559205
8.618672125339508
8.689868152141571
8.748222341537476
8.75179057598114
8.761795272827149
8.784848175048829
8.801230826377868
8.831590116024017
8.885808103084564
8.902500541210175
8.84637915611267
8.81521152973175
8.892762367725373
8.983517079353332
8.968284802436829
8.928944487571716
9.027276728153229
9.21652662038803
9.292413532733917
9.219140276908874
9.180362319946289
9.288129224777222
9.408934564590455
9.36526780128479
9.230116753578185
9.212092349529266
9.320242373943328
9.400998375415803
9.382990908622741
9.314969906806946
9.246384813785554
9.184243683815003
9.190205371379852
9.329649658203126
9.491138470172881
9.509356451034545
9.425737681388854
9.400888104438781
9.45514532327652
9.49874120235443
9.509421784877777
9.513073544502259
9.522459189891816
9.569397141933441
9.671975543498993
9.74781165599823
9.670284669399262
9.449215998649597
9.237454106807709
9.14305149078369
9.142147274017335
9.137788887023925
9.051198835372924
8.907344489097595
8.820337753295899
8.842751514911651
8.894288277626037
8.89811689376831
8.909627528190613
9.037205367088317
9.249358804225922
9.360769739151001
9.263651885986327
9.083077471256257
9.015884094238281
9.063768532276153
9.067043480873108
8.97954913854599
8.922128324508668
8.972859432697296
9.080197627544402
9.142847952842713
9.10107479095459
9.017740471363068
8.967187566757202
8.89102617740631
8.750192334651947
8.632760989665986
8.602585220336914
8.594269604682923
8.527254455089569
8.44215875864029
8.38147117137909
8.286367628574371
8.161628973484039
8.144493670463563
8.337500205039978
8.62430279970169
8.731148946285249
8.597420604228974
8.45994566679001
8.447113254070281
8.483929188251496
8.599832417964935
8.898717513084412
9.288554158210754
9.55831327676773
9.65899646282196
9.706092538833618
9.750381660461425
9.748173921108245
9.746286437511444
9.860168788433075
10.05805811405182
10.166577734947204
10.109635612964631
9.981878175735474
9.848935143947601
9.64271184682846
9.339498128890991
9.090114624500275
9.040651943683624
9.147731502056121
9.26644936800003
9.304760103225709
9.255697772502899
9.163637318611144
9.106830751895904
9.164388115406036
9.295533080101013
9.3115083861351
9.166715958118438
9.104412066936494
9.256211318969726
9.439466192722321
9.5113960313797
9.541991891860961
9.611502122879028
9.685188717842102
9.71698252916336
9.748772926330567
9.811019849777221
9.877417886257172
9.969367027282715
10.085230972766876
10.083678829669953
9.844008915424347
9.508328268527984
9.396527626514434
9.583460714817047
9.806241085529328
9.905217735767364
9.931176037788392
9.827924952507018
9.501528849601746
9.108770253658294
8.904951272010804
8.915277020931244
8.988341116905213
9.040462479591369
9.077359585762023
9.082257475852966
9.017501392364501
8.917444982528686
8.873784565925598
8.905897035598755
8.955151009559632
9.003909380435944
9.10849757194519
9.305019850730895
9.51205185174942
9.603575267791747
9.555707881450653
9.45846549987793
9.436425778865814
9.523583772182464
9.604799888134004
9.573393251895904
9.467543609142304
9.371340262889863
9.289663512706756
9.162652461528777
8.981886336803436
8.845699892044067
8.83386463880539
8.927611498832702
9.059386372566223
9.137460224628448
9.13305027961731
9.126612696647644
9.162724516391755
9.218260643482209
9.291588537693023
9.362148678302765
9.392648770809174
9.429870584011077
9.53382349729538
9.63248153924942
9.615474848747253
9.501059534549713
9.3870712184906
9.311477854251862
9.228100364208222
9.083987038135529
8.880618629455567
8.677032589912415
8.567844235897065
8.58944976091385
8.64411563873291
8.630495250225067
8.566494801044463
8.5244859457016
8.556685030460358
8.643566129207612
8.713128349781037
8.758281080722808
8.801647636890412
8.796150968074798
8.720934851169586
8.634958097934723
8.561895225048065
8.502937080860137
8.539311056137086
8.703629574775697
8.843178408145905
8.856817345619202
8.895502803325654
9.069091560840606
9.214000449180602
9.199136011600494
9.158984310626984
9.249903399944305
9.423239936828613
9.534134271144866
9.539117209911346
9.497952637672425
9.475691306591035
9.539424877166748
9.699677865505219
9.834103834629058
9.840662002563477
9.764107432365417
9.674460167884826
9.602476165294647
9.603422088623047
9.676254918575287
9.706850881576537
9.643216593265533
9.5567591714859
9.531934382915496
9.60580547809601
9.708481602668762
9.747369391918182
9.810617682933808
10.044882924556733
10.333272364139557
10.383912818431854
10.18854514837265
10.076983025074005
10.20847011566162
10.373532950878143
10.362589671611786
10.202824702262879
10.044515607357026
9.981780292987823
9.978304769992828
9.97903733253479
10.01810070514679
10.084366326332093
10.050121221542359
9.904358687400817
9.795478687286376
9.744162917137146
9.636884293556214
9.493346176147462
9.426860270500184
9.412533340454102
9.36647046804428
9.327223799228669
9.343564743995666
9.36869196176529
9.37011278629303
9.36876322031021
9.391877424716949
9.441780400276183
9.459177203178406
9.392470257282257
9.273304669857025
9.142965655326844
9.021771771907806
8.967926013469697
9.021410036087037
9.069242277145385
8.907671718597411
8.755905649662019
8.503349113464356
8.52036143064499
8.84456508398056
9.251975855827332
9.477422266006469
9.429242572784425
9.303104591369628
9.321337690353394
9.427668888568878
9.446210596561432
9.396349511146546
9.416823453903199
9.484527933597565
9.444689066410065
9.28488317489624
9.146099979877471
9.110511901378631
9.171164021492004
9.274848158359527
9.321528232097625
9.294430024623871
9.292434027194977
9.341793246269226
9.396170945167542
9.47296437740326
9.56628006696701
9.59362210035324
9.573631200790405
9.62991849899292
9.750935714244843
9.780462827682495
9.691347343921661
9.641404354572296
9.705927152633667
9.79428076505661
9.847643656730652
9.890922915935516
9.91444257736206
9.864035942554473
9.764112842082977
9.733651294708253
9.797403926849364
9.831498959064483
9.780339350700379
9.736639845371247
9.749721250534058
9.746875872612
9.732906525135041
9.864253904819488
9.953792831897736
10.183825228214264
10.232394795417786
10.031330366134643
9.721316764354706
9.48946159362793
9.448738660812378
9.565909905433655
9.703136947154999
9.745809164047241
9.69093278169632
9.60955612897873
9.554867043495179
9.514627876281738
9.46710749387741
9.454055607318878
9.499864318370818
9.531048657894134
9.496192142963409
9.476747086048126
9.561571288108826
9.67349740743637
9.669846177101135
9.562435557842255
9.484247279167175
9.491756689548492
9.536973531246185
9.609951150417327
9.737386679649353
9.851274633407593
9.852183377742767
9.771730754375458
9.699276497364044
9.625350844860076
9.495162453651428
9.319976377487183
9.177573153972626
9.108999586105346
9.06704416513443
9.043470675945281
9.078450565338136
9.126955354213715
9.122054226398468
9.100286154747009
9.160658977031709
9.334333045482635
9.519683413505554
9.602561445236207
9.585855209827423
9.538366944789887
9.502647950649262
9.478181135654449
9.449822769165038
9.41966352701187
9.41940584897995
9.474677038192748
9.54242329120636
9.551087086200715
9.514023973941804
9.498002247810364
9.503530600070953
9.495248537063599
9.528938872814178
9.700058100223542
9.910868351459504
9.942189230918885
9.856274294853211
9.932090265750885
10.143838095664979
10.179234957695007
10.001182501316071
9.906867220401764
10.00450933933258
10.113274097442627
10.133292424678803
10.103423435688018
10.029941172599793
9.885747158527375
9.688872509002685
9.530326957702636
9.499729626178741
9.565609171390534
9.620535728931427
9.633648536205293
9.65676959514618
9.723457081317902
9.808663651943206
9.884708406925201
9.953794121742249
9.998562717437744
9.999039032459258
9.968370680809022
9.905093426704406
9.800680139064788
9.685948617458344
9.601952798366547
9.556191940307617
9.544745423793792
9.598064849376678
9.7257261967659
9.83971795797348
9.84506402015686
9.768414649963379
9.700706911087035
9.664277772903443
9.618653547763824
9.54270563840866
9.437969245910644
9.295735621452332
9.119179697036744
8.962867093086242
8.929208779335022
9.02972895860672
9.091744043827056
9.029252228736878
8.97568156003952
8.971997623443604
8.917612884044647
8.830751750469208
8.825080008506776
8.876977562904358
8.836630878448487
8.691832997798919
8.579366347789765
8.541713743209838
8.551191198825837
8.623161392211914
8.747625875473023
8.883915212154388
8.986476423740386
9.007474002838135
8.975868051052094
8.978300399780274
9.015341129302978
9.041007227897644
9.092145433425904
9.149515781402588
9.067307224273682
8.882163813114166
8.839769005775452
8.956493966579437
9.00358672618866
8.94921600818634
8.975527610778808
9.095558981895447
9.12825130701065
9.04931287765503
9.023773069381713
9.07730785369873
9.075676064491272
9.015111629962922
9.013827376365661
9.077678096294402
9.119413661956788
9.114787294864655
9.108290679454804
9.110576140880585
9.094836366176605
9.124339907169341
9.296751296520233
9.537113492488862
9.64707139968872
9.555630314350129
9.3857000041008
9.27175326347351
9.252069983482361
9.326153826713561
9.457995505332947
9.566650018692016
9.609273262023926
9.648350455760955
9.780955488681792
9.976187915802003
10.080020751953125
10.012560982704162
9.865233702659607
9.788105916976928
9.799178705215454
9.796308364868164
9.7536985206604
9.712229280471801
9.664058990478516
9.62593892097473
9.680700316429139
9.829581770896912
9.94665339231491
9.975072331428528
10.006955862045288
10.051956419944764
9.970430924892426
9.778464646339417
9.69693076133728
9.80342990398407
9.931221976280213
9.947148201465607
9.913670465946197
9.9101234459877
9.894142847061158
9.850983607769013
9.835726041793823
9.818882064819336
9.75042739868164
9.684032983779908
9.661737027168273
9.642907135486602
9.605976874828338
9.600759687423706
9.658900380134583
9.712312729358674
9.678067948818207
9.588188178539276
9.545972311496735
9.575616788864135
9.637669050693512
9.717855079174042
9.769629366397858
9.712620005607604
9.545966215133667
9.378355267047882
9.315878665447235
9.309352374076843
9.225664393901825
9.085688982009888
9.047231223583221
9.160485692024231
9.297238848209382
9.332255432605743
9.279938580989837
9.211849029064178
9.17810430765152
9.246295971870422
9.458979051113129
9.681150016784668
9.646452095508575
9.312301893234253
8.964012169837952
8.832031016349793
8.851213603019714
8.867125849723816
8.879362595081329
8.950638151168823
9.015594811439515
8.968968434333801
8.839976403713226
8.737784552574158
8.702814660072328
8.725823934078216
8.81308525800705
8.92861664533615
9.00356185913086
9.023291208744048
9.03214299917221
9.090842003822326
9.219804842472076
9.39148983001709
9.558431832790374
9.651169245243073
9.638673131465913
9.569546008110047
9.513737699985505
9.49256944656372
9.422860407829285
9.24904657125473
9.105763261318208
9.123451719284057
9.239941701889038
9.358647954463958
9.470545239448548
9.540291693210602
9.491815230846406
9.381082758903503
9.36503306388855
9.46184273481369
9.533591976165772
9.506812083721162
9.457929887771606
9.461673593521118
9.500965569019318
9.533116836547851
9.527417781352996
9.476406917572021
9.387193121910094
9.292564165592193
9.301374683380127
9.471602988243102
9.6684219455719
9.727984132766723
9.690313787460328
9.711802339553833
9.78691597700119
9.794115946292877
9.759631526470184
9.805120017528534
9.939949395656585
10.051845443248748
10.043624951839448
9.939685633182526
9.818248119354248
9.695068521499634
9.56729775428772
9.481351673603058
9.448757739067078
9.416861431598663
9.377478339672088
9.34182424545288
9.268738815784454
9.167204649448395
9.12549747467041
9.147430732250214
9.131266767978667
9.06090995311737
9.06600662469864
9.209056506156921
9.340615966320037
9.309701991081237
9.17191070318222
9.071839764118195
9.068822224140167
9.125316870212554
9.184083905220032
9.219075882434845
9.205661535263062
9.135974621772766
9.097018423080444
9.159589853286743
9.22407680273056
9.203725593090057
9.196173741817475
9.256956100463867
9.272626490592957
9.197965097427367
9.144959907531739
9.188801283836364
9.274895977973937
9.30956698656082
9.277287435531616
9.272289011478424
9.337795684337616
9.372432751655579
9.3572421002388
9.414627158641816
9.53388479232788
9.54610904455185
9.402327494621277
9.291741836071015
9.39781138420105
9.608406708240508
9.668890237808228
9.555603597164154
9.436148254871368
9.366115679740906
9.310121231079101
9.310972714424134
9.4020161819458
9.523969361782074
9.622018988132476
9.67551589012146
9.669601621627807
9.656504545211792
9.718883953094483
9.81097843170166
9.82424226284027
9.783175497055053
9.770223302841186
9.749165616035462
9.657538747787475
9.531808569431306
9.40827808380127
9.308438911437989
9.316506206989288
9.447118973731994
9.582187983989716
9.64521023273468
9.652107384204864
9.65331348657608
9.697444088459015
9.732428560256958
9.676272988319397
9.614333703517914
9.673720726966858
9.806511142253875
9.877799360752105
9.814457433223724
9.635961620807647
9.445631537437439
9.356727528572083
9.372287986278534
9.401526913642883
9.391862759590149
9.344160459041596
9.28616908788681
9.280523002147675
9.360686719417572
9.46958235502243
9.498555538654328
9.417016005516052
9.311106231212616
9.266689341068268
9.321217129230499
9.462350018024445
9.603806993961335
9.63838406085968
9.53001841545105
9.357506906986236
9.222358996868133
9.140005850791932
9.095595552921296
9.088818795681
9.086389796733856
9.036096255779267
8.942323961257934
8.8622234749794
8.816905605793
8.808956928253174
8.887851278781891
9.038348505496979
9.145610146522522
9.211845602989197
9.330896525382995
9.432268154621124
9.397365324497223
9.285782678127289
9.201831340789795
9.141503727436065
9.042376263141632
8.906326398849487
8.866454689502715
8.994237859249115
9.13361485004425
9.126923041343689
8.983416850566863
8.803956582546235
8.736666522026063
8.853565652370452
9.045456001758575
9.139758269786835
9.076715958118438
8.960856738090515
8.914489388465881
8.920080468654632
8.871739590168
8.73353060722351
8.584328484535217
8.502745952606201
8.453315138816833
8.331668884754182
8.15476690530777
8.076437890529633
8.12081469297409
8.159776127338409
8.215100655555725
8.43567848443985
8.74739623785019
8.916725678443909
8.947447116374969
9.006171624660492
9.112936267852783
9.209107491970062
9.283818333148956
9.350405328273773
9.417282793521881
9.453262450695037
9.449010052680968
9.473627667427063
9.552817029953003
9.616311554908753
9.613554058074952
9.55204859972
9.460849051475526
9.379484739303589
9.334060518741607
9.327631056308746
9.35052157640457
9.401571600437164
9.50708846092224
9.661886811256409
9.76197154045105
9.707100279331208
9.582675578594207
9.5572083568573
9.60583770275116
9.570292952060699
9.431615188121796
9.322622563838959
9.322146730422974
9.390491008758545
9.475422520637512
9.555676035881042
9.622823173999786
9.675263936519622
9.708884196281433
9.71746395111084
9.690398361682892
9.639156019687652
9.627828271389008
9.694638414382934
9.788821325302123
9.837647805213928
9.815995905399323
9.773365528583527
9.76317076921463
9.722609114646911
9.578556883335114
9.398950686454773
9.272627460956574
9.212354986667632
9.210026409626007
9.21156231880188
9.15087814092636
9.077572431564331
9.10879397392273
9.26674302816391
9.416744096279144
9.412303993701935
9.298501822948456
9.246402728557587
9.328545658588409
9.437022314071655
9.44665403842926
9.432914853096008
9.496661832332611
9.518889780044555
9.406111826896668
9.262750287055969
9.170472815036774
9.117688703536988
9.103660583496094
9.141799812316895
9.205803372859954
9.241221749782563
9.265338177680968
9.333056566715241
9.38318127632141
9.32317535161972
9.203614523410797
9.119754474163056
9.08506600856781
9.097850985527039
9.153382070064545
9.198765258789063
9.20040522813797
9.193386383056641
9.224098846912383
9.279709551334381
9.32854208469391
9.400849294662475
9.487896780967713
9.509952116012574
9.476245574951172
9.432342534065247
9.35727275133133
9.285655934810638
9.315971689224243
9.447231431007385
9.57186615228653
9.599428293704987
9.520237276554107
9.424419047832489
9.423088386058808
9.504153311252594
9.542153692245483
9.443262844085693
9.271259093284607
9.178164818286895
9.192303094863892
9.207290921211243
9.142469079494477
9.0563729763031
9.06770183801651
9.117487599849701
9.05253377199173
8.93114191532135
8.909974024295806
8.976429345607757
9.043066711425782
9.090170505046844
9.10802794456482
9.078959753513336
9.022203261852264
9.005173244476318
9.087991647720337
9.213663282394409
9.268379032611847
9.24843933582306
9.209324414730071
9.148630619049072
9.038400104045868
8.870965168476104
8.673161761760712
8.50125483751297
8.405760591030122
8.40725643634796
8.470607166290284
8.519232470989227
8.50534746170044
8.453921220302583
8.450802063941955
8.52835031747818
8.595038056373596
8.602005472183228
8.587577984333038
8.515792925357818
8.37254700422287
8.278499803543092
8.294590270519256
8.356782412528991
8.415743997097016
8.459169130325318
8.481290559768677
8.469983270168305
8.424832692146301
8.425242614746093
8.53433954000473
8.64438087463379
8.626179621219634
8.543820803165437
8.535879740715027
8.591216490268707
8.597501108646393
8.554059917926788
8.561787180900573
8.621559917926788
8.650898382663726
8.660862855911255
8.708122580051421
8.752058789730071
8.736237807273865
8.7128586435318
8.741828618049622
8.738408226966857
8.614933426380157
8.50847930431366
8.595171415805817
8.803851997852325
8.96001652956009
9.049565303325654
9.152074289321899
9.266998991966247
9.380418062210083
9.523376052379609
9.633821973800659
9.602574622631073
9.492619025707246
9.45678730726242
9.486496651172638
9.458720989227295
9.3351459980011
9.19883924484253
9.169412412643432
9.247307279109954
9.3194211602211
9.381179068088532
9.474440848827362
9.507926740646361
9.446578814983368
9.407827832698821
9.417166759967804
9.36449482679367
9.23809892654419
9.143381102085113
9.079105548858642
8.96207010269165
8.854807612895966
8.916843750476836
9.1478520154953
9.356600036621094
9.409224932193757
9.36969042301178
9.357744727134705
9.374024097919465
9.343522076606751
9.301115806102752
9.34257422208786
9.390757825374603
9.271839261054993
9.018449761867522
8.858737227916718
8.871531243324279
8.90203562259674
8.892209303379058
8.946588172912598
9.056741619110108
9.136348876953125
9.211830725669861
9.324353592395783
9.418008229732514
9.453636503219604
9.479856741428375
9.491308822631837
9.407125301361084
9.268689460754395
9.2033602976799
9.21213196516037
9.218914682865142
9.218411116600036
9.243755717277526
9.309640855789185
9.429099504947663
9.577717633247376
9.680171859264373
9.69555898666382
9.635698504447937
9.537682557106018
9.455479192733765
9.404152126312256
9.359110238552093
9.338719165325164
9.40045669555664
9.515782716274261
9.56746146917343
9.55762300491333
9.615924062728881
9.717417335510254
9.671011719703674
9.44487593650818
9.225202274322509
9.142412176132202
9.145693526268005
9.140614027976989
9.14405335187912
9.225159857273102
9.322663803100586
9.307440242767335
9.238901333808899
9.323651688098908
9.558278813362122
9.679512677192688
9.58781477212906
9.499573221206665
9.548908853530884
9.589512686729432
9.476826963424683
9.244006278514862
8.996297326087952
8.839969861507416
8.834803042411805
8.914996197223664
8.95226934671402
8.920378258228302
8.901675255298615
8.94021689414978
9.029327836036682
9.164051184654236
9.299790740013123
9.384343326091766
9.409767022132874
9.379865727424622
9.296277210712432
9.172440075874329
9.042399418354034
8.966815385818482
9.000313186645508
9.122340590953828
9.230071892738342
9.238942780494689
9.189893221855163
9.176677253246307
9.168624680042267
9.107315654754638
9.107714116573334
9.24750462770462
9.351350491046906
9.308245854377747
9.268734483718871
9.335220041275024
9.445159888267517
9.526183004379272
9.507633483409881
9.362630360126495
9.191553707122802
9.108470773696899
9.123224442005158
9.181849780082702
9.189236752986908
9.053662495613098
8.840747923851014
8.735236113071442
8.773675723075867
8.811900460720063
8.784095640182494
8.77935129404068
8.840408391952515
8.894497570991517
8.890085306167602
8.843116252422332
8.792780413627625
8.76516875743866
8.757696433067322
8.787475578784942
8.882827413082122
9.009491436481476
9.092880311012268
9.08776437997818
8.992789011001587
8.857474920749665
8.775771806240082
8.791878588199616
8.832636282444
8.823520789146423
8.811616237163543
8.827086977958679
8.765560746192932
8.624128174781799
8.601106042861938
8.76800440788269
8.940072567462922
8.982069597244262
8.985680844783783
9.016964616775512
8.952369265556335
8.774918081760406
8.67917212486267
8.718871080875397
8.72452651500702
8.612966494560242
8.500459475517273
8.521074657440186
8.705322022438049
9.005931606292725
9.30159982919693
9.44900710105896
9.441531448364257
9.407037041187287
9.457348775863647
9.611678478717804
9.787778775691987
9.886352567672729
9.912914626598358
9.93441038608551
9.946454553604125
9.902713310718536
9.846437509059905
9.89154970407486
10.067415084838867
10.24402984380722
10.26357438325882
10.140491909980774
9.988984835147857
9.80983747959137
9.60954922914505
9.52419286251068
9.559234278202057
9.54607177734375
9.466291272640229
9.463074426651001
9.567831239700318
9.683642902374267
9.764742622375488
9.816051771640778
9.801590657234192
9.72649329662323
9.69456187725067
9.727424669265748
9.702072756290436
9.597942705154418
9.536414937973023
9.53677562713623
9.522108268737792
9.504166655540466
9.541871738433837
9.612121953964234
9.658111941814422
9.659407722949982
9.647886545658112
9.68391499042511
9.72734091758728
9.67082189321518
9.53094970703125
9.38660609483719
9.240695812702178
9.122043564319611
9.121057763099671
9.238248660564423
9.364520752429963
9.420426778793335
9.441914267539978
9.494514141082764
9.54642522096634
9.546066241264343
9.552269494533538
9.630884051322937
9.708302400112153
9.664652802944182
9.50649218082428
9.339799432754516
9.218491163253784
9.144770772457123
9.174973320960998
9.3397504901886
9.502021920680999
9.508067071437836
9.43467259645462
9.456828570365905
9.549684152603149
9.571150593757629
9.49873143672943
9.389779312610626
9.27898681640625
9.198184189796448
9.185975379943848
9.265861358642578
9.409009997844697
9.51576536655426
9.507911269664765
9.419029355049133
9.344152390956879
9.334036819934845
9.344855215549469
9.311731765270233
9.271774966716766
9.316256341934205
9.409169895648956
9.413807044029236
9.321069304943085
9.261536235809325
9.2960720038414
9.342671926021575
9.308177251815795
9.210992755889892
9.136894760131836
9.11544058561325
9.098397171497345
9.051397564411163
9.005948333740234
9.00988174200058
9.05992094516754
9.084170019626617
9.01938500404358
8.909408216476441
8.838100440502167
8.79875608921051
8.762009150981903
8.774467811584472
8.856892912387847
8.96252788066864
9.08122390985489
9.187079844474793
9.200808753967285
9.16291441679001
9.207676594257356
9.328329219818116
9.371092114448548
9.26713852405548
9.147419395446777
9.134334762096405
9.199370501041413
9.306742997169495
9.44507719039917
9.555487942695617
9.569718010425568
9.486466636657715
9.406556820869445
9.412770326137542
9.446112711429596
9.410786972045898
9.320021939277648
9.269036376476288
9.284257011413574
9.298093254566192
9.28900365114212
9.26213918685913
9.216574070453644
9.257933235168457
9.41126859664917
9.468789916038514
9.356417562961578
9.278928444385528
9.360397763252259
9.474587523937226
9.475103421211243
9.407706940174103
9.371250514984132
9.32329758644104
9.21044816493988
9.06598330974579
8.907908580303193
8.781725823879242
8.776530799865723
8.87811850309372
8.990469608306885
9.070881898403167
9.144909505844117
9.234353547096253
9.30225465297699
9.299763774871826
9.2514129281044
9.236432802677154
9.274705331325531
9.287488672733307
9.191283786296845
8.991667222976684
8.824038112163544
8.83671492576599
8.97893084526062
9.064093677997588
9.018902490139007
8.934509592056274
8.888909871578216
8.854965798854828
8.864448280334473
8.986866817474365
9.097678790092468
9.070664024353027
9.056422841548919
9.18472065448761
9.277063491344451
9.174259603023529
9.068536713123322
9.168707876205444
9.293314158916473
9.220511031150817
9.099862062931061
9.111291544437409
9.175751831531525
9.218688492774964
9.27374371290207
9.309520661830902
9.259250490665435
9.201335377693177
9.282244696617127
9.438095843791961
9.483371098041534
9.432439799308776
9.404592454433441
9.415517790317535
9.478596909046173
9.630927884578705
9.789864542484283
9.786125009059907
9.574144117832184
9.330942947864532
9.242565212249756
9.2647669672966
9.28030978679657
9.307634937763215
9.366994516849518
9.389199841022492
9.369599215984344
9.40737907409668
9.557493767738343
9.752681772708893
9.840779094696044
9.732467155456543
9.549555985927581
9.485614032745362
9.547485191822052
9.596242053508758
9.615613663196564
9.715457408428191
9.833186573982239
9.788476090431214
9.64341335296631
9.599331078529358
9.636104648113252
9.613623447418213
9.58441771030426
9.669431102275848
9.755629496574402
9.686169438362121
9.582023503780364
9.598776409626007
9.62967161655426
9.547276985645293
9.420816900730133
9.335162479877471
9.262409670352936
9.199636797904969
9.230697996616364
9.339381852149963
9.378903019428254
9.313907730579377
9.254294633865356
9.261174323558807
9.295873308181763
9.295288140773772
9.205594079494476
9.02685750722885
8.873699948787689
8.877628662586211
9.0225093460083
9.163155102729798
9.185597856044769
9.107299354076385
8.993336939811707
8.857898783683776
8.752065227031707
8.784174492359162
8.921173043251038
8.984269285202027
8.901122629642487
8.763794360160828
8.717590885162354
8.835398998260498
9.004753675460815
9.086369886398316
9.112746956348419
9.143004348278046
9.11258291721344
8.978897829055786
8.858935227394104
8.870653791427612
8.957249491214752
8.992703652381897
8.940708425045013
8.861287739276886
8.820350301265716
8.820822336673736
8.862945594787597
8.951896193027496
9.021669013500214
9.042558045387269
9.07597974061966
9.121189634799958
9.14115341424942
9.176987268924712
9.255784220695496
9.316437406539917
9.306028580665588
9.254604997634887
9.219783372879029
9.219308776855469
9.224611365795136
9.198335514068603
9.164176020622254
9.189722545146942
9.28873743057251
9.4036985206604
9.475309703350067
9.505532665252685
9.526689858436585
9.541950016021728
9.546313610076904
9.537250127792358
9.51487186908722
9.499948284626008
9.456025459766387
9.316857266426087
9.172573194503784
9.143949682712554
9.162192637920379
9.146490831375122
9.109108788967132
9.042989382743835
8.983376290798187
9.014821109771729
9.124038631916045
9.20389395236969
9.211556913852691
9.209060044288636
9.220297269821167
9.180877039432525
9.046855437755585
8.896534287929535
8.89580801963806
9.065632441043853
9.220191838741302
9.269765956401825
9.286474938392638
9.274419231414795
9.225218582153321
9.21151688337326
9.232166759967804
9.229799835681915
9.237714695930482
9.282535202503205
9.274144563674927
9.169775793552398
9.093456337451935
9.138477010726929
9.216453144550323
9.23359079837799
9.251430594921112
9.35563116312027
9.509135382175446
9.626766982078552
9.659832499027253
9.602527451515197
9.538037934303283
9.587604701519012
9.738016045093536
9.84852344274521
9.865891098976135
9.887694170475006
9.969712460041046
10.061777272224425
10.15052448272705
10.204648113250732
10.105618131160735
9.904149739742278
9.859621946811677
10.050920405387878
10.25984616279602
10.290595529079438
10.168057053089141
9.97780495405197
9.707130846977234
9.39508123397827
9.201671023368835
9.181998510360717
9.244481511116028
9.335985119342803
9.483884253501891
9.657215788364411
9.718581557273865
9.6397665309906
9.593720555305481
9.678656387329102
9.812489728927613
9.941793332099914
10.055090718269348
10.086387052536011
10.008042087554932
9.884955854415894
9.806688847541809
9.823751118183136
9.907727992534637
9.96354614019394
9.900873174667359
9.754309394359588
9.660733428001404
9.633971827030182
9.57756932258606
9.51406361103058
9.497815699577332
9.450812764167786
9.343351521492004
9.285090010166169
9.279115858078002
9.169992690086366
8.948059647083282
8.797691705226898
8.778679683208466
8.788917868137359
8.785336840152741
8.77291825056076
8.752966377735138
8.821242904663086
9.069761576652526
9.368002924919129
9.48102634191513
9.363461227416993
9.19569435596466
9.16320832014084
9.266359267234803
9.387765622138977
9.443527703285218
9.534909851551056
9.774598512649536
9.885501933097839
9.794797258377075
9.601428487300872
9.452235686779023
9.367744479179382
9.251888244152068
9.808738934993745
10.63575847864151
11.016372797489167
10.966729316711426
11.071252641677857
11.594952421188355
12.241972703933715
12.676887004375457
12.889243795871735
12.9341015291214
12.740781135559082
12.609470119476319
12.567987673282623
12.515029947757721
12.488870601654053
12.486340215206146
12.625186207294464
12.838187446594238
12.925816135406494
12.82732664346695
12.638785533905029
12.518996922969817
12.442390129566192
12.321157360076905
12.175198848247527
12.087540605068206
12.046005933284759
11.868603990077972
11.886230065822602
11.886909296512604
11.683152623176575
11.819295709133149
12.214764873981476
12.587827954292298
12.821842312812805
13.05085356235504
13.358689591884612
13.580931656360626
13.596553916931152
13.569204046726227
13.687297422885894
13.92707216978073
14.040218482017517
13.929602119922638
14.038335604667664
14.443153014183045
14.813527486324311
14.843949048519134
14.822079734802246
14.942547271251678
14.485904748439788
13.853812370300293
13.707446162700654
13.906798379421234
13.727435739040375
12.943328981399537
12.283963572978973
11.751054396629334
11.616629140377045
11.448689713478089
11.734691050052643
12.074695637226105
12.362880620956421
12.774332926273345
13.305750410556794
13.815115151405335
14.092072231769562
14.266287140846252
14.495705473423005
14.711050264835357
14.892168834209443
15.078791975975037
15.32499601840973
15.618467721939087
15.903077249526978
16.111010482311247
16.267733285427095
16.572067270278932
16.66935477733612
16.741380083560944
16.964588027000428
16.73051710128784
16.22453104019165
15.689891078472137
15.247999954223634
14.838303411006928
14.356699655056
14.068586366176605
13.98795002222061
13.860981352329254
13.582178463935852
13.34002161026001
13.378472809791566
13.876112530231476
14.81559895515442
15.825225024223327
16.371012802124024
16.343981864452363
17.248248717784882
18.76302840948105
20.85949014902115
23.32980165719986
25.509931178092955
26.74228001356125
27.042094588279724
27.322574262619018
28.162700746059418
29.56400811433792
30.61203469991684
31.141505880355837
30.848120756149292
30.751976637840272
31.142418210506438
32.01341237068176
32.90752460718155
33.43265355110169
33.440037090778354
33.02882090806961
33.05103282690048
33.21311902046204
33.37239329099655
33.438369209766385
33.38499528884888
33.255531990528105
33.069342155456546
32.79865030050278
32.60012269973755
32.4198783159256
32.23175112485885
32.102273569107055
32.15090104579926
32.42855399370193
32.661230714321135
32.81057375192642
32.98983022689819
33.21877171278
33.48155703306198
33.63220953464508
33.75044461965561
33.87835094451904
33.907185177803036
33.81458108186722
33.64834981679916
33.00433589696884
31.720594708919524
30.202386453151703
29.322030007839203
29.395319299697874
28.577458107471465
27.065134510993957
24.88304912805557
22.239477093219758
19.89505455493927
18.608619494438173
18.392021427154543
18.278771467208863
17.4013076877594
16.19167599439621
15.180669162273407
14.668817670345307
14.759625895023346
14.482935509681703
13.788399360179902
12.677460896968842
11.343360307216644
10.247350673675538
9.79371307373047
9.926384909152985
9.706633701324463
9.48284021615982
9.45888858795166
9.599013872146607
9.763576974868775
9.890422310829162
10.024810030460358
10.207915654182434
10.255197739601135
10.224900331497192
10.167581672668456
10.02013296842575
9.73836832523346
9.441403079032899
9.241220459938049
9.04842808008194
8.783926072120666
8.566892914772033
8.483610956668853
8.476856353282928
8.5459304189682
8.742373995780945
9.009666874408722
9.105963268280028
9.304154207706452
9.941676321029663
10.699098706245422
11.317506465911865
11.639349164962768
11.607361540794372
11.776758568286896
12.817915027141572
14.750961673259734
17.202600219249724
19.79111563205719
21.66034504175186
21.675551998615266
22.95544050693512
24.490532369613646
25.042511327266695
25.07460254192352
25.320455050468446
25.50203886985779
25.601080560684203
25.543313949108125
25.512187883853912
25.717814137935637
26.157616877555846
26.61714773416519
26.953807015419006
27.158314950466156
27.09264873981476
26.94624866247177
27.20028876543045
27.571719262599945
27.75319359779358
27.683774769306183
27.514952783584594
27.484651155471802
27.4915927028656
27.558476498126982
27.82608108043671
28.31315031528473
28.823499302864075
29.235936477184296
29.701383218765258
30.315021286010744
30.807556982040406
30.78460138082504
31.028019337654115
31.54102910041809
31.888424270153045
32.18211030960083
32.75482925653458
32.94152611017227
32.53208303451538
32.774324913024905
33.58323166847229
34.748806307315824
36.20308136463165
37.35888533592224
37.3752600812912
35.999756314754485
33.51920789003372
30.7463019824028
28.675784351825715
28.51555401802063
27.22803627490997
25.610145151615143
24.983743648529053
24.955110747814178
24.85399013519287
24.622269983291627
24.55429193496704
24.85020868778229
25.096831657886504
25.025182976722718
24.669264206886293
24.192926404476164
23.700504620075225
23.573650469779967
24.03541715621948
24.734979367256166
24.81881548643112
24.40188698530197
23.98842888832092
23.8602636551857
23.892896122932434
23.788013019561767
23.7275297832489
23.626824023723604
23.346360013484954
22.881827266216277
22.395991575717925
21.90896628141403
21.48633630990982
20.94068572282791
20.54455871105194
20.85909001350403
20.859999346733094
20.43532658100128
20.114343583583832
19.895197870731355
19.5768150472641
19.50006001472473
19.74067098379135
19.21671190738678
18.101938650608062
16.719572789669037
15.359918119907379
14.151457097530365
13.038845493793488
12.425138754844665
12.713397212028504
13.036127083301544
13.04803281545639
12.893470118045807
12.726468226909638
12.765344893932342
12.976245691776276
13.337445039749145
13.692330255508423
13.996984324455262
14.269342286586761
14.450907106399535
14.562933144569397
14.629023396968842
14.654695787429809
14.712249157428742
14.851346259117127
14.715198140144349
14.17746857881546
13.329199542999268
12.602820129394532
12.449862813949585
12.787314550876618
13.352095391750336
14.009339501857758
14.71921835899353
15.141366333961487
15.24567031621933
15.941292626857757
16.893321793079377
18.040592653751375
19.6382254076004
21.32954567193985
22.56498191356659
22.81163850069046
22.550003929138185
22.44843725681305
22.2465780711174
21.89286402463913
21.553890566825867
21.475163335800172
21.51456387758255
21.37214253664017
20.957628107070924
20.741828308105468
20.81396837234497
20.777715382575987
20.587799627780914
20.80970788240433
21.353898341655732
21.425087928771973
21.069582397937776
20.815702936649323
20.972376461029054
21.28188089847565
21.36015641450882
21.07683722496033
20.64694227218628
20.29488739013672
19.975066220760347
19.65671471595764
19.18006130695343
18.756527490615845
18.51884521484375
18.42565435886383
18.438411853313447
18.564501452445985
18.815319108963013
19.191488828659057
19.6342675447464
19.967954556941987
19.94155940771103
19.60290526866913
19.143057253360748
18.677917928695678
18.214565687179565
18.007051002979278
18.201930267810823
17.79390839099884
16.92299427270889
15.716137750148773
14.133208844661713
12.487313034534454
11.294546875953674
10.92799054145813
10.826750183105469
10.703525619506836
10.8414421749115
11.034015760421752
11.076179769039154
10.897558603286743
10.607021048069
10.289785618782043
10.300751504898072
10.33347368001938
10.277690880298614
10.295658397674561
10.315776088237762
10.007582795619964
9.350741138458252
9.294653623104095
10.020841414928435
10.830400714874267
11.35305909395218
11.978158266544343
12.786123805046081
13.254590165615081
13.21674576997757
13.158049855232239
13.476746366024017
13.895024075508118
14.178473563194276
14.124441819190979
13.97231909275055
13.944125826358794
13.93139283657074
13.729480822086334
13.323191227912902
12.907049763202668
12.768464748859406
12.936093728542328
13.159689090251923
13.156015355587005
13.147696003913879
13.070815179347992
12.940709958076477
12.826730842590331
12.735554141998291
12.728782012462617
12.925727207660675
13.237009029388428
13.518664836883545
13.627604613304138
13.630804982185364
13.590599389076234
13.56967653989792
13.62753356218338
13.746724326610565
13.878008832931519
13.985458209514618
14.055535483360291
14.2428671503067
14.815391702651977
15.425639235973359
15.660276067256927
15.469475662708282
15.442549779415131
15.321620111465455
15.287405679225921
15.337093739509582
15.00284473657608
14.42894773721695
13.957950265407563
13.594962043762207
13.11998417377472
12.642516436576843
12.437111330032348
12.40629982471466
12.35781486749649
12.005119845867156
11.548174345493317
11.263286066055297
11.258146286010742
11.333940408229829
11.316740534305573
11.212947356700898
11.139662029743194
11.216725852489471
11.365558385848999
11.300550167560578
11.03203987121582
10.872917017936707
11.017250325679779
11.085497868061065
11.153810248374938
11.29414370059967
11.396280829906464
11.448298614025116
11.502295446395873
11.410167462825775
11.097708983421326
10.826293258666992
10.598644092082978
10.48599449634552
10.537752840518952
10.616200242042542
10.445695955753326
10.083677976131439
9.89395936012268
9.915779402256012
10.07365238904953
10.21297954082489
10.211025919914245
10.242758226394653
10.630831081867218
11.21370659828186
11.28475605249405
11.253093388080597
11.173254978656768
11.069595799446105
10.921039068698883
10.709492063522339
10.401871733665466
10.147752149105072
9.862225832939147
9.56987805366516
9.423664066791535
9.487234959602356
9.5471528673172
9.740126931667328
10.028959879875183
10.289457714557647
10.418645765781402
10.46599732875824
10.510015413761138
10.560280787944794
10.624104611873626
10.66422509431839
10.63808210849762
10.598036065101624
10.570673243999481
10.491115515232087
10.352356264591217
10.227253630161286
10.14859475851059
10.118567209243775
10.124851071834565
10.07283629655838
9.945588223934173
9.96128262758255
10.176074736118316
10.291370739936829
10.36529420375824
10.419725341796875
10.385692539215087
10.307154338359833
10.41874274969101
10.663890628814697
10.729155802726746
10.652954313755036
10.449039895534515
10.082252221107483
9.55986841917038
8.860600216388702
8.049282512664796
7.447016551494598
7.345188553333283
7.626724660396576
7.968305375576019
8.258548848628998
8.493633816242218
8.662613170146942
8.852828288078308
8.975814266204834
9.057981102466583
9.049064526557922
9.024834725856781
9.16265722990036
9.369151525497436
9.332769694328308
9.025140914916992
8.78022299528122
8.61915295124054
8.566213479042053
8.634318063259125
8.807031276226043
8.971657853126526
9.076457505226136
9.212135326862334
9.465995724201202
9.799941086769104
10.046542048454285
10.074465787410736
10.01572893857956
9.886943905353546
9.758923809528351
9.602967891693115
9.45662744998932
9.354532887935639
9.288217959403992
9.27253232717514
9.319370980262756
9.329958584308624
9.24625025510788
9.269116847515106
9.203253707885743
9.036729164123535
8.841831312179565
8.691355197429656
8.661324460506439
8.939315452575684
9.543689665794373
10.07605620622635
10.263692717552185
10.279788873195649
10.29474916934967
10.308014080524444
10.331355752944946
10.316803188323975
10.202776618003845
10.049677121639252
9.918311958312989
9.756431527137757
9.52071012020111
9.34781991958618
9.410106530189514
9.570566027164459
9.526953828334808
9.349963102340698
9.397398126125335
9.664851903915405
9.728257932662963
9.795873415470123
9.781205830574036
9.913734292984008
10.074436182975768
10.18751867055893
10.245484261512756
10.233147332668304
10.08651535987854
9.775271663665771
9.500136168003083
9.518882358074189
9.685865159034728
9.851255722045899
9.906833739280701
9.937388668060303
9.94279263496399
9.919455759525299
9.912036595344544
9.894490342140198
9.80006245613098
9.727989461421966
9.857640759944916
10.021968376636504
10.163370273113252
10.130062894821167
10.110465853214263
10.256416399478912
10.355365378856659
10.109352672100067
9.597209441661835
9.305486919879913
9.47706866979599
9.810456657409668
9.988579926490784
9.936974682807922
9.706729655265809
9.476687669754028
9.364389629364014
9.288673295974732
9.203641362190247
9.185809526443482
9.234651741981507
9.223112027645112
9.073981499671936
8.865294637680053
8.764182696342468
8.836484875679016
8.916925213336945
8.919732897281646
9.080469419956207
9.30037069797516
9.512834351062775
9.408532106876374
9.245635032653809
9.242832345962524
9.34654254436493
9.384896762371064
9.273448216915131
9.015009818077088
9.177552127838135
9.37906899690628
9.309508156776428
9.151581099033356
9.041587929725647
8.983712735176086
9.125719358921051
9.537664892673492
10.207648689746856
11.034623999595642
11.668064420223237
11.80663281440735
11.678081703186034
11.622002639770507
11.750226056575775
11.827121634483337
11.861112930774688
11.67405306339264
11.576655905246735
11.6510990691185
11.75488557100296
11.731195621490478
11.561939957141876
11.392129666805268
11.367205443382263
11.510763185024262
11.695937211513519
11.74097763299942
11.655865697860717
11.647692792415619
11.710520119667054
11.852001299858093
11.980055103302002
12.065653233528137
12.125434954166412
12.178106896877289
12.169849870204926
12.028275620937347
11.83759814977646
11.719790148735047
11.630271656513214
11.53270408153534
11.48748509168625
11.460472753047943
11.363359215259552
11.204515428543091
11.035320656299591
10.85334547519684
10.680155334472657
10.720180525779725
10.579586789608001
10.514404203891754
10.676898119449616
10.895021858215332
11.028890314102172
11.021657593250275
10.81894514799118
10.330418117046356
9.534801409244537
8.57781839132309
7.938334567546844
7.948673040866852
8.226511385440826
8.33525367975235
8.288483107089997
8.42911705493927
8.620287415981293
8.878469166755677
8.937966697216034
8.870599043369293
8.827445738315582
8.81197885274887
8.820286331176758
8.894761776924133
8.965522768497467
8.875699863433837
8.675249450206756
8.614694278240204
8.751295521259308
8.877544026374817
8.960967793464661
8.954429211616516
8.950883243083954
8.97912472486496
9.003708822727203
9.078024921417237
9.292147557735444
9.560709674358367
9.733033673763275
9.79479757785797
9.802376203536987
9.78462352514267
9.758964376449585
9.739920272827149
9.68039410829544
9.511451601982117
9.293505878448487
9.195181305408477
9.282095730304718
9.386735544204711
9.304213435649872
9.094676640033722
8.974628808498382
9.013757956027984
9.143925325870514
9.317919590473174
9.4655149435997
9.628670852184296
9.788720743656159
9.923601078987122
9.995995392799378
9.994875111579894
10.022513844966888
10.121461815834046
10.153664309978485
9.996528539657593
9.720955843925475
9.481230597496033
9.293170418739319
9.16250636100769
8.945557959079743
8.782819483280182
8.753934066295624
8.716942095756531
8.64881400346756
8.685479884147645
8.866914172172546
9.108741090297698
9.389175395965577
9.695234794616699
9.907717752456666
9.95319931268692
9.908670029640199
9.874913449287414
9.85133578300476
9.742700736522675
9.526008818149567
9.333922243118286
9.227669775485992
9.100414774417878
8.927486464977264
8.804272434711457
8.796870861053467
8.823264117240905
8.852639439105987
8.97033816576004
9.17830281972885
9.369686942100525
9.496496164798737
9.586468117237091
9.674704105854035
9.764618911743163
9.801039788722992
9.718571360111236
9.532450478076935
9.322115178108215
9.15277182340622
9.033720848560334
9.003081328868866
9.064774827957153
9.170388038158416
9.187744212150573
9.029820945262909
8.777301659584046
8.589682474136353
8.588294496536255
8.747468059062959
8.923418414592742
9.086597657203674
9.210671267509461
9.394321665763854
9.470596618652344
9.397480225563049
9.371647734642028
9.417593715190888
9.38247076034546
9.243779318332672
9.090823500156402
8.916489703655243
8.710029556751252
8.555782737731933
8.507088031768799
8.531972768306732
8.578378422260284
8.636560790538788
8.729703888893127
8.849538385868073
8.955208075046539
9.048937945365905
9.194165840148926
9.378292660713196
9.506601235866547
9.528776018619537
9.532205197811127
9.539074366092683
9.475536823272705
9.330464918613433
9.145074977874756
8.926010735034943
8.729975466728211
8.654369645118713
8.658229298591614
8.606233630180359
8.484855608940125
8.445237033367157
8.657482178211213
9.098703842163086
9.542543659210205
9.722811987400055
9.615720386505126
9.435894136428834
9.39762243270874
9.43890912771225
9.431469395160676
9.46391969203949
9.540461349487305
9.487125291824341
9.320401866436004
9.19095874786377
9.099429326057434
8.99732023000717
8.925947015285493
8.898625156879426
8.827159345149994
8.676674098968506
8.581073973178864
8.672767262458802
8.885778079032898
9.046878793239593
9.089791142940522
9.098152358531951
9.173997673988342
9.330508081912994
9.498122453689575
9.580929152965545
9.522575507164001
9.349248175621033
9.14164633512497
8.960056965351106
8.833049566745759
8.782999176979065
8.788074126243592
8.78946337223053
8.77554898738861
8.789304194450379
8.858972010612488
8.966326670646668
9.081550107002258
9.191596021652222
9.28754578590393
9.37685523033142
9.484150285720824
9.652006855010987
9.978651700019837
10.44995138645172
10.74651201248169
10.593092699050903
10.17675802230835
9.851734790802002
9.697244968414306
9.585593986511231
9.432311005592346
9.292629704475402
9.234655647277831
9.206169304847718
9.190679965019227
9.295956201553345
9.536173248291016
9.789117202758788
9.985041136741637
10.117588834762573
10.155334367752076
10.091653590202332
10.019744529724122
10.065742568969727
10.225199356079102
10.334885926246644
10.275165205001832
10.11128408908844
9.954363899230957
9.807919073104859
9.623021564483643
9.371189851760864
9.076184306144714
8.863598980903625
8.885125517845154
9.150445113182068
9.489741263389588
9.723395457267761
9.835735497474671
9.910221304893494
9.962264618873597
9.953501830101013
9.93040509223938
9.974425067901612
10.021217975616455
9.948955006599427
9.795851769447326
9.696882243156432
9.667871532440186
9.59084545135498
9.427958064079284
9.257770929336548
9.065599799156189
8.827481508255005
8.699230127334594
8.757163619995117
8.862912402153015
8.974858956336975
9.163449826240539
9.39248459815979
9.598619689941406
9.766302304267883
9.866231732368469
9.920668625831604
10.026535716056824
10.176194338798522
10.21370262145996
10.066430907249451
9.835640344619751
9.654534330368042
9.59198625087738
9.625180320739746
9.689460592269898
9.74334638118744
9.73342635154724
9.628504557609558
9.511715788841247
9.466057929992676
9.460771865844727
9.493573842048646
9.618841671943665
9.803097305297852
9.96544695854187
10.065805883407593
10.067008075714112
9.949673647880553
9.794882264137268
9.706208591461182
9.649403386116028
9.544917974472046
9.441913194656372
9.398271670341492
9.319732027053833
9.144626960754394
9.009815006256103
9.017816853523254
9.103741106987
9.235176830291747
9.441930389404297
9.652788486480713
9.748092684745789
9.74947105884552
9.751269373893738
9.69499001979828
9.473534626960754
9.192625331878663
9.034803733825683
9.007677001953125
9.009827222824097
8.95547972202301
8.830977811813355
8.738289990425109
8.75376971244812
8.77668029308319
8.666373972892762
8.470382509231568
8.418265748023988
8.626242060661315
8.933433012962341
9.153442859649658
9.276856126785278
9.356310143470765
9.397149019241333
9.402522249221802
9.379395236968994
9.289981503486633
9.156333379745483
9.118841390609742
9.205488295555115
9.246608958244323
9.152022261619567
9.035372800827027
9.001808066368103
9.020829501152038
9.034285125732422
9.03761781692505
9.057201476097108
9.129735102653504
9.261130933761597
9.378313369750977
9.413712902069092
9.4155859708786
9.46664538383484
9.557070183753968
9.632405457496644
9.679725346565247
9.671481227874756
9.550812635421753
9.370122146606445
9.296472067832946
9.363692197799683
9.39065737247467
9.278861484527589
9.167826685905457
9.206961059570313
9.376601824760437
9.554556970596314
9.631673302650452
9.593336644172668
9.532531638145446
9.51915024280548
9.532922892570495
9.580974230766296
9.68539806842804
9.753413634300232
9.669053139686584
9.441284375190735
9.18478268623352
9.019124975204468
8.95993730545044
8.963814034461976
9.028317093849182
9.107018494606018
9.086928834915161
8.987592163085937
8.982039818763733
9.096647825241089
9.176731162071228
9.20491958141327
9.299830079078674
9.456696434020996
9.552763080596923
9.551552867889404
9.544498963356018
9.56809805393219
9.528449935913086
9.36236626625061
9.144990162849426
8.991032204627992
8.938480443954468
8.942453527450562
8.921940717697144
8.84888605594635
8.768896098136901
8.71972683429718
8.75402322769165
8.949981846809386
9.246547236442566
9.435892519950867
9.439736981391906
9.41455334186554
9.479747581481934
9.533961296081543
9.444114408493043
9.245833683013917
9.091113395690918
9.061896800994873
9.090738797187806
9.092261166572571
9.07570285797119
9.075258440971375
9.063780498504638
9.010622477531433
8.971069483757018
9.007331256866456
9.072516813278199
9.10283164024353
9.106674909591675
9.081629872322083
9.010644774436951
8.934717826843261
8.929633703231811
9.022027649879455
9.155397024154663
9.256257739067077
9.284624791145324
9.235782656669617
9.134208431243897
8.99623267173767
8.826263689994812
8.657974743843079
8.551660542488099
8.51467896938324
8.470533618927002
8.396951246261597
8.400079064369201
8.533215131759643
8.693158144950866
8.78650454044342
8.803059735298156
8.746470141410828
8.700107593536377
8.786588912010194
8.975954823493957
9.145499701499938
9.189271245002747
9.019058208465577
8.707940950393677
8.464318251609802
8.33286162853241
8.216693091392518
8.135010542869567
8.173578963279724
8.322549967765807
8.515002841949462
8.68636965751648
8.797828807830811
8.897208766937256
9.04456817626953
9.170926828384399
9.160662217140198
9.020319595336915
8.86423927783966
8.826234149932862
8.960853548049927
9.237840576171875
9.53101529598236
9.681394410133361
9.667110691070556
9.59887948513031
9.507455558776856
9.335740585327148
9.143351368904113
9.066335515975952
9.104273166656494
9.155493359565735
9.19859911441803
9.274973845481872
9.370202798843383
9.429975066184998
9.40904043674469
9.317611479759217
9.256666898727417
9.288855667114257
9.354979367256165
9.39426092147827
9.39276252269745
9.329748883247376
9.214602580070496
9.150713658332824
9.230167717933655
9.359386968612672
9.369806270599366
9.268971314430237
9.181069746017457
9.171989846229554
9.265760273933411
9.446276640892028
9.643910613059997
9.802816438674927
9.868817234039307
9.82442883491516
9.763218288421632
9.755782651901246
9.730573635101319
9.600353093147278
9.418168082237244
9.287895226478577
9.199167084693908
9.11314606666565
9.069336218833923
9.08356300354004
9.100863909721374
9.061182899475098
9.00640142917633
9.01021918296814
9.045222663879395
9.02769226551056
8.952392525672913
8.887864227294921
8.917226700782775
9.075362567901612
9.277491436004638
9.405994372367859
9.443315544128417
9.42879324913025
9.370839910507202
9.26744728565216
9.163312211036683
9.129311742782592
9.207646842002868
9.360998139381408
9.47520926952362
9.521779565811157
9.579857959747315
9.644858183860778
9.678620672225952
9.731785793304443
9.829399118423462
9.909575371742248
9.91453558921814
9.858344693183898
9.80810112953186
9.799285626411438
9.804091396331787
9.7927321434021
9.736802973747253
9.587001142501832
9.378150053024292
9.266214480400086
9.3267969083786
9.42732825756073
9.420810904502869
9.351038174629211
9.362819972038269
9.51350580215454
9.705039410591125
9.76650230884552
9.66950101852417
9.592957487106323
9.68071165561676
9.863565878868103
9.987876992225647
9.980873770713806
9.819481191635132
9.521031050682067
9.242812385559082
9.159182844161988
9.250242109298705
9.386284079551697
9.470450592041015
9.424455041885375
9.233736610412597
9.032230935096742
8.997045907974243
9.151078777313232
9.360198035240174
9.517823672294616
9.622657780647279
9.68300892353058
9.684027276039124
9.669594731330871
9.695671367645264
9.679273781776429
9.537354803085327
9.377228860855103
9.300150694847106
9.264987936019898
9.230852723121643
9.214738965034485
9.246386394500732
9.31814522266388
9.365154309272766
9.350513396263123
9.315043869018554
9.276248269081115
9.213774576187134
9.195260205268859
9.282688493728637
9.366002783775329
9.33396857738495
9.244518594741821
9.221152176856995
9.326023578643799
9.504387564659119
9.62278793334961
9.614548630714417
9.547759237289428
9.508579130172729
9.495796246528625
9.481251425743103
9.473783082962036
9.46984321117401
9.439786171913147
9.407263011932374
9.430203285217285
9.47501859664917
9.45740207195282
9.39075927734375
9.349175348281861
9.353419547080994
9.388201761245728
9.447364106178284
9.487289824485778
9.427115015983581
9.275075130462646
9.119897246360779
8.990057249069213
8.905449476242065
8.928300461769105
8.99434916973114
8.913405723571778
8.671897034645081
8.507650442123413
8.398312363624573
8.410572152137757
8.513617796897888
8.745914082527161
9.085296559333802
9.345374526977539
9.418243141174317
9.440881700515748
9.52122760772705
9.538349199295045
9.396964302062988
9.293123321533203
9.206590938568116
9.11326210975647
9.02698486328125
8.98992892742157
9.126794772148132
9.486341733932495
9.856086664199829
9.945426697731017
9.747549343109132
9.463860321044923
9.211024174690246
9.047320733070373
9.019043998718262
9.042913265228272
9.021523838043214
9.029324741363526
9.156136150360107
9.339232997894287
9.513664455413819
9.706712422370911
9.882608733177186
9.931101102828979
9.859928708076477
9.790994811058045
9.767671699523925
9.75057647228241
9.739500284194946
9.743524160385132
9.751081185340881
9.765898294448853
9.763724932670593
9.722038445472718
9.689922757148743
9.70531753540039
9.748505420684815
9.785843329429627
9.792629776000977
9.87897443294525
10.13627251625061
10.481213259696961
10.799284591674805
10.822167100906372
10.406477098464967
10.112908139228821
9.94888654232025
9.712976579666138
9.613590488433838
9.567542238235474
9.683238954544068
9.963186068534851
10.521795010566711
11.764693646430969
14.007643342018127
16.886433715820313
19.325599818229676
20.5159263420105
20.605986704826353
20.507984232902526
21.301118636131285
22.715343508720398
24.19061936855316
25.209146642684935
25.538654413223266
25.73303050041199
26.51705641269684
27.45994832992554
27.884599890708923
27.762019271850587
28.509663038253784
29.401174550056457
29.68820176124573
29.664800381660463
30.170372524261474
30.62336657524109
30.922704558372498
31.152319993972778
31.11024827003479
31.14346707344055
31.182767062187196
31.03345721244812
31.095962324142455
31.618759799003602
32.06576559066772
31.933488569259644
32.28061389446258
32.975316672325135
34.316852946281436
36.27072329998016
38.07545023918152
38.85183798313141
38.917438707351685
39.21634243965149
40.01810877799988
40.41762091636658
40.37159032344818
40.94734334945679
41.9157141828537
43.963806791305544
47.15797400474548
50.42115844249725
52.59502557277679
52.9904656791687
51.58845659732819
48.963902020454405
46.849512448310854
48.069253134727475
52.19880710124969
56.35799499511719
58.14019268512726
58.121115083694455
57.52532166481018
57.01553303718567
56.73944865703583
56.76367883205414
56.73437026023865
57.07074097156524
57.70576578140259
57.58932084083557
57.92723689079285
58.71691677570343
60.50410138130188
63.546436595916745
66.43109816551208
67.88718748569488
68.00499335765839
70.60971868038177
75.53742448806763
81.5098131275177
86.8181493139267
89.97699901103974
90.29305391788483
91.29522220134736
94.79566756725312
101.18287928581238
107.63391535758973
112.28721385955811
114.26643169403076
113.5684436416626
112.0830354499817
113.23877210140228
115.73731919288635
117.50036768913269
117.91571927070618
118.41435739994049
120.52084879398346
123.15813098430634
124.61799101352692
123.27920332431793
120.57161843299866
118.24683343410491
117.40735989570618
118.52563840389251
120.54532732486724
122.52465583801269
123.70111585617066
121.60304682731629
117.6180711221695
114.6748874092102
113.17266725063324
113.1883951473236
114.43270719528198
115.77828538417816
116.31504653453827
116.50247772216797
116.74745582580566
116.53721355438232
116.46161124706268
117.86795885562897
118.46351208209991
119.17154189109802
119.43011750221252
116.91539868831634
115.29441824436188
115.88603904247285
116.98388018608094
114.5812973690033
109.60578825473786
103.78310403823852
99.59649840831757
97.96074235916137
97.53794501781464
97.98829331874848
95.4067430305481
90.18644683837891
86.1360501909256
83.42056532382965
81.90878011703491
80.94884254932404
82.3165842628479
83.92792790412904
84.35381086826324
82.87126780509949
82.93398758411408
84.01320554256439
82.77701382160187
80.73337177276612
80.9977325105667
83.93835495471954
88.43637493133545
94.02563066005706
98.87292929649352
99.71822371006012
97.12719281673431
96.89792625904083
97.19816122531891
98.2606891822815
99.43766774654388
100.09128144741058
101.31616367816925
102.77889356136322
103.80218150138855
104.40388108730316
104.66440376758575
104.35496531963348
104.92362286090851
107.50365481853486
110.63706941604615
112.64752009391785
112.4440973520279
110.64332918167115
111.80719591617584
116.54544961452484
120.8093916130066
125.07965702056885
130.17364202022551
134.03835857391357
134.9628583574295
135.95464495182037
136.5977748632431
136.95330986976623
138.9643000841141
139.27010044574737
139.75908027172088
139.51026523590087
136.66687810897827
134.16490146636963
132.66010785102844
132.30844511032103
131.14255846977233
128.23536674022674
125.2514156484604
124.53336710453033
124.21252304553985
123.30067242145539
123.16701910972596
122.38077709674835
119.82166446208954
116.4530618238449
111.99878107070923
105.89757606983184
99.20646033763886
97.545009765625
100.08735404491425
99.76015804767609
97.8351284122467
97.92034583091736
98.38096425533294
97.8084815120697
95.80898010253907
92.86327613830566
89.9249648141861
88.00060085773468
87.44452867984772
87.34780210971832
86.08758865833282
83.13295265674591
79.48096039772034
76.20736436843872
74.7181434059143
74.65236866950988
72.32352563381195
68.53416643619538
63.6008781003952
57.124525055885314
50.92726729393005
47.5794250202179
47.67230318069458
47.657316055297855
47.92403050899506
48.72275975704193
48.641848320960996
47.12535105228424
45.39475791454315
45.19586446762085
45.64802772521973
45.49549126625061
45.1783758020401
45.249995579719545
44.710849361419676
43.755964279174805
43.26320448875427
43.40155929088593
43.0815852355957
42.52828550338745
41.793631777763366
41.80490198612213
41.95113680839538
41.95723945617676
41.996700196266175
42.07321003913879
42.415451526641846
40.488271923065184
37.81078463077545
36.398643045425416
37.09682298660278
36.054785890579225
33.964608879089354
32.439419627189636
32.36850454807281
32.94082159996033
33.115485134124754
33.13625339984894
33.86013723373413
34.86026869773865
34.637277660369875
34.403107047080994
34.109611773490904
34.08816667556763
34.18510018348694
33.665540561676025
32.88666820526123
32.19295373439789
31.162249031066896
32.65141545772553
34.305781712532045
34.28196928501129
33.45505546092987
32.197142214775084
30.973089361190794
30.24844509601593
30.160414199829102
30.763446230888366
31.877589259147644
32.394424495697024
32.60737396240234
32.490361428260805
33.174609155654906
34.193022136688235
35.466736278533936
36.842444424629214
37.47261303901672
37.8521620464325
39.32428925514221
40.840149149894714
41.7676459980011
41.43406762123108
41.801925296783445
42.5710532951355
42.543696842193604
42.14994966030121
42.66774405479431
43.01146240711212
42.9114918756485
42.50477799415589
41.596817259788516
41.13553981304169
41.583197069168094
42.20092834949494
41.80710608959198
42.39000774383545
44.10371954441071
45.80731076240539
46.55084491729736
46.33539343833923
46.523170166015625
46.83907476902008
46.99124934673309
47.124362120628355
47.48344048976898
48.10396968364716
47.54977964401245
47.13953919410706
47.167461729049684
45.85106015682221
43.91190690040588
43.2384990644455
43.53958164691925
43.6831493806839
43.663177766799926
42.04350419044495
41.165059466362
41.385077338218686
41.09641961097717
40.15302961349487
39.81954206943512
40.66643413066864
40.45221113681793
39.56102013587952
38.451612634658815
37.00464829921722
36.68277130126953
35.99616912841797
34.21068532466889
32.33467398166656
31.840730443000794
32.447972764968874
31.674060735702515
30.812134623527527
30.55642415046692
31.043326954841614
30.73643238067627
30.690495238304138
31.088287281990052
31.49876555919647
31.760505828857422
32.11981388092041
31.948385672569273
31.581165657043456
32.1399503660202
31.903106179237366
30.436562519073487
28.51922019481659
28.538005747795104
30.41603879451752
31.801575922966002
31.14418939113617
31.586017737388612
31.44755623340607
30.992909407615663
30.082641792297363
30.074790635108947
30.242462854385376
30.373666081428528
30.471746940612793
30.991136484146118
30.947510876655578
30.484578208923338
30.9151012802124
30.630712752342223
30.46586067676544
29.489885606765746
28.582830867767335
28.791358275413515
29.598682513236998
29.968059811592102
29.472530055046082
29.111824727058412
29.016444745063783
28.716866731643677
29.175726323127748
29.499598579406737
29.937208886146546
29.82216948032379
29.62761459350586
29.097058062553405
28.447248692512513
28.527232751846313
28.383405876159667
28.581100087165833
28.302555780410767
28.040196413993836
28.058774337768554
28.048065071105956
27.941246881484986
27.68060709476471
26.90573066711426
26.651789298057555
26.991065864562987
26.75393995285034
26.374551067352296
27.21312195777893
28.449264783859253
27.26723184108734
24.675508623123168
23.0789769077301
23.525712451934815
23.20180112361908
23.786202087402344
24.697639098167418
26.123500771522522
27.107164669036866
26.70753918170929
28.532947602272035
29.96860882759094
29.78317403316498
29.569153604507445
30.280362544059752
30.397575945854186
29.927793283462524
30.81378399848938
32.06906758785248
32.694529151916505
32.61018103599548
32.108603153228756
31.53862202167511
31.366448874473573
31.388232369422912
31.34213373184204
31.700972480773927
31.999929747581483
31.69190680027008
31.55877921104431
31.83910032272339
31.740461196899414
31.905518569946288
32.04025970935822
32.19329371929169
32.08621493339538
31.54221749305725
30.914706139564515
30.80856908798218
31.278772950172424
31.740979614257814
31.846249117851258
31.89167069911957
31.97440484046936
31.69603500843048
31.121361527442932
30.827679286003114
30.567814888954164
29.611602745056153
28.0656888961792
28.682518515586853
30.53538362503052
31.41862566947937
31.15136351108551
31.237522892951965
30.723449840545655
29.805275354385376
29.44536566257477
29.919604778289795
30.512024416923524
28.705576062202454
27.10796503543854
26.93571401119232
28.1133003616333
29.02116858482361
29.835428342819213
30.602113447189332
29.778146262168885
28.587378764152525
27.47098557472229
26.73818691253662
26.922846717834474
27.966690282821656
29.421400179862975
30.79602156639099
31.223956451416015
31.566684560775755
32.068583865165714
32.09775386333465
32.03839221477509
31.744118127822876
33.70558255195618
36.05215492248535
37.251263008117675
37.37231428146362
37.99320342540741
38.87609893798828
39.13339617729187
39.0256770324707
38.22971741676331
37.50077538490295
37.169260292053224
37.68304788589477
38.16581558704376
38.517568063735965
38.89972085952759
39.44106679916382
39.574963994026184
39.06789908409119
39.31723107337952
38.40497295379639
36.59756474971771
35.67503547668457
35.4316995048523
34.98658962726593
35.23587107181549
35.577038269042966
34.93754228115082
33.49648681163788
32.75169373989105
32.84120293140411
32.72685701370239
32.435083589553834
31.66577163219452
30.34581763267517
29.026092376708984
28.687557258605956
28.562887949943544
28.945802421569823
29.123559222221374
28.902596364021303
28.693492913246153
28.02589672088623
26.880233507156372
26.988997650146484
28.174229340553282
28.566572427749634
27.803012766838073
27.79023470878601
28.145177178382873
28.169261937141417
27.20051809310913
26.174075226783753
25.01542745113373
25.64409993171692
25.85675057411194
25.112260041236876
24.827458133697508
24.72247262954712
24.849316911697386
24.691353578567504
24.65257586479187
24.30141020298004
24.135876212120056
24.514454865455626
25.145029616355895
25.504750814437866
25.457565083503724
25.459372882843017
25.37282524108887
25.337791986465454
25.301602306365968
25.455320959091186
25.288598155975343
25.61247166633606
26.02985821247101
25.866469178199768
25.595787816047668
25.55962965965271
25.83195216178894
26.770669746398926
28.071243529319762
29.21486876487732
29.1965066242218
28.95561858177185
29.207073712348937
29.033878417015075
29.67215407371521
30.220135197639465
30.372518768310545
30.62851815223694
31.20987156867981
31.990088949203493
32.80569332122803
31.99148652076721
30.48334461212158
29.30206892967224
28.867164025306703
28.49733137130737
27.994124703407287
28.244809327125548
27.753553824424742
26.26851083278656
26.79119812965393
26.68340398311615
25.895274930000305
26.474477910995482
27.44268153190613
28.321919479370116
29.051691818237305
29.29024390220642
29.621193842887877
29.6444127035141
29.965348219871522
30.291706891059874
29.51188153266907
28.779919724464417
28.60394971847534
28.72119282245636
29.14979739189148
29.47824649810791
29.612154479026795
30.216783699989318
30.79863214969635
30.179192843437196
29.89071720123291
30.404301509857177
30.52505741596222
30.67440791606903
30.427114806175233
30.16520275115967
29.604556732177734
28.68374493598938
28.478497076034547
28.99972041606903
29.282697319984436
29.913879027366637
30.664971470832825
30.915272464752196
31.03807195663452
30.920132441520693
29.885050196647644
28.548948035240173
27.517807211875915
26.722633285522463
26.760916996002198
26.74878011703491
26.841858234405517
27.020597715377807
27.694433970451357
27.98813326358795
27.752549443244934
27.92320935726166
27.55524612903595
27.055773429870605
27.18733365535736
26.43441195964813
25.625880665779114
24.796230425834654
24.023719816207887
23.800866055488587
23.798998456001282
24.251983170509337
24.007281560897827
23.3805401802063
23.719487199783327
23.89920051574707
23.700606713294984
23.630380988121033
23.041295580863952
22.785564222335815
23.19791341304779
22.5665948677063
22.713722004890442
24.07527873516083
24.338714141845703
23.44809812068939
23.589581413269045
24.78262068271637
26.027163786888124
25.386426634788513
24.694912061691284
25.126623425483704
25.68240788936615
25.471815996170044
24.72228476047516
23.706386590003966
22.282252850532533
21.482059264183043
21.616680154800417
21.737930307388307
21.605400452613832
21.76335041999817
21.793461260795592
22.20664617538452
22.88123121738434
23.41266053199768
23.2070529794693
22.984526977539062
22.351221656799318
21.502008838653566
21.946475248336792
22.741422567367554
22.80748908042908
22.57746465206146
22.606591401100157
22.661948094367983
22.57736240386963
22.801339950561523
23.341701836585997
23.55438024520874
23.419160623550415
23.682531552314757
25.137432088851927
27.427375407218932
28.97578737258911
28.78549983024597
30.023295741081238
31.235653624534606
31.99929413318634
31.847825546264648
31.42280364513397
31.431985416412353
30.639317674636843
29.34996418952942
28.980545191764833
29.3779198551178
29.1489749956131
27.99996491909027
27.10289981842041
27.01793870449066
26.789675650596617
26.523620657920837
26.45713532447815
26.535944676399232
26.513566184043885
26.688181295394898
26.870306305885315
26.40016511440277
25.545157885551454
25.3406822681427
25.72860197544098
25.535085139274596
25.64998866081238
25.451500635147095
25.021739177703857
25.431629137992857
26.001326155662536
25.99755072116852
25.919906845092772
26.040379462242125
26.06255148410797
26.885676522254943
28.238503766059875
28.722198433876038
28.545252680778503
28.474152841567992
28.47968219280243
28.130086393356322
27.827612380981446
28.760465836524965
29.922011299133302
29.48874122142792
28.177096076011658
26.5875803899765
25.096849765777588
25.111828484535216
24.29732228755951
23.040769324302673
22.368445076942443
22.426652212142944
22.992386269569398
23.561682906150818
23.732161326408388
23.968338313102723
23.75383966445923
23.407688341140748
23.161952471733095
23.471975884437562
23.633072991371154
23.502647109031678
24.277000970840454
24.65452642917633
24.228529706001282
23.727933721542357
23.93850233078003
23.663334202766418
23.516864523887634
23.47650870323181
23.506396689414977
23.34107852935791
23.37505501270294
23.988114924430846
24.03648910999298
23.979839782714844
23.93138027191162
24.238911156654357
24.79584878921509
25.00314619541168
26.038531579971313
26.7049440574646
26.074895339012144
24.39966778278351
22.68293179512024
23.046430234909057
24.388914217948912
24.72882287502289
25.30670757293701
25.612598142623902
25.907136101722717
25.374595990180968
24.03162274837494
23.59115970611572
23.449022898674013
22.50545953273773
22.357176065444946
22.219813561439516
22.94377058506012
24.383729948997498
24.822659668922423
24.91390727996826
24.73460461139679
24.32739625930786
24.37762797832489
24.501950912475586
25.049570417404176
25.301641702651978
26.2417098236084
27.375424251556396
28.004877066612245
28.31844621658325
27.928129839897156
28.182304968833922
29.114343142509462
29.99770579338074
30.220722603797913
30.241840362548828
30.410931367874145
30.82732132434845
31.23717748641968
31.59455206871033
31.623762717247008
31.482576851844787
31.419272022247313
31.36030455112457
30.998685708045958
29.928682222366334
28.88109709262848
28.66248327255249
27.479452323913574
27.145495414733887
27.958165726661683
28.87027156829834
29.382462968826292
28.35142397403717
27.186124448776244
26.90689793109894
26.364698696136475
26.173051447868346
25.661031236648558
25.199876055717468
25.149492650032045
25.183633432388305
24.81764790058136
24.859685635566713
24.7472856426239
24.941864128112794
23.860628542900084
22.61702383518219
22.57732605457306
22.7655148267746
22.572724437713624
22.5560631275177
22.592309975624083
22.1004714345932
21.547288427352907
21.41964915752411
20.616073455810547
19.049227080345155
17.732637844085694
18.007967615127562
18.755230059623717
18.499288773536684
17.371167154312133
16.506502776145936
16.25950113773346
16.462276406288147
16.148904247283937
16.010570158958433
16.04262234210968
16.06587571144104
16.003010320663453
15.801989336013794
15.662562494277955
16.05352810382843
16.801067724227906
17.34789131164551
17.277906937599184
18.06806700706482
19.01603753566742
19.202896962165834
18.56254360675812
17.821799969673158
17.724346303939818
18.136642503738404
18.063551864624024
18.834069175720217
19.658970065116883
20.355104274749756
21.424364705085754
22.875871586799622
23.79524097919464
24.55989589691162
26.550629234313966
28.086095752716066
28.256071586608886
28.546394815444945
29.930132508277893
31.922159061431884
33.69405083656311
34.36848937511444
33.98248425483703
33.99620953559875
33.90776569366455
34.42512118339538
34.42073461532593
34.21060365200043
34.07189180374146
33.925926575660704
34.100955862998966
33.449638390541075
32.216865100860595
31.408712701797484
31.257792043685914
31.164021553993226
31.095639533996582
31.215011839866637
31.239657220840453
31.806308927536012
32.59060203075409
32.792436957359314
32.71430142402649
33.27621081829071
33.52890480041504
33.20644334793091
32.940744299888614
32.91726743221283
33.50263802051544
33.12595341205597
32.5240122795105
32.43153531074524
32.73241044998169
32.74969044208527
32.25057796955109
32.081772685050964
32.50965682506561
32.47755762577057
32.07909922599792
31.366544003486634
30.499440116882326
29.570524854660036
29.62903447151184
29.597952404022216
27.78330252170563
26.096009736061095
25.96379002094269
25.934106202125548
24.504306378364564
22.65040033340454
20.599804844856262
19.8096977186203
21.04507080078125
22.176413545608522
22.844713592529295
22.417747693061827
22.700064911842347
23.0481413936615
23.197477607727052
23.39699411869049
23.604589700698853
23.555036149024964
23.778182973861693
23.910430727005004
23.84372514247894
23.999102721214296
23.957566995620727
23.67439001560211
23.90527853488922
23.25557942390442
22.322363958358764
22.57906801700592
23.77551860332489
24.14122181415558
23.772091507911682
24.323072514533997
24.623200440406798
24.649584946632384
24.609022903442384
24.54412537574768
24.274613003730774
24.66704644203186
25.553876829147338
26.680943231582642
27.712853050231935
27.797617993354798
27.639887733459474
27.851028456687928
28.322551789283754
28.365659365653993
29.15749050140381
30.165155835151673
30.656990551948546
30.684771375656126
30.65523313999176
30.69572491645813
30.53109010219574
30.129306583404542
30.276002011299134
30.498269505500794
30.960966210365296
30.666730518341065
29.5684623336792
28.03782867908478
27.21265881061554
27.5576743888855
27.846835079193117
28.24024338245392
28.519792470932007
28.321651310920714
27.9552370262146
28.119551768302916
28.074807171821593
27.911770977973937
27.902550754547118
28.195456519126893
28.697936182022094
29.079691934585572
29.352804880142212
29.508596367836
29.819947748184205
30.68559929847717
30.676890125274657
29.654889783859254
30.157126545906067
30.156855216026305
29.779899063110353
29.712043929100037
30.42501696586609
31.68426568508148
32.64272071838379
31.933720588684082
30.699027199745178
29.803558535575867
29.362878060340883
29.061657752990723
29.274869546890258
28.967607183456423
28.235142016410826
28.217052612304688
27.45940938949585
26.126718363761903
24.88423854351044
25.21019227027893
25.932019305229186
26.037196540832518
26.804904313087462
27.519154620170593
27.88048041343689
27.982489972114564
28.10590727806091
28.070017623901368
28.963314924240112
30.277471771240233
30.26903438091278
31.134889078140258
32.11910041332245
32.92776388168335
32.921323976516724
33.50913685798645
33.887339153289794
33.79802620410919
34.14001360893249
35.57617053985596
36.52556133270264
36.567678632736204
37.27709481239319
38.02503283500671
38.147013278007506
37.8218936920166
37.19934391975403
35.86524586677551
34.78398475646973
34.57661490917206
34.04993814945221
34.07366945743561
34.65085824966431
34.636896080970764
33.56471161365509
32.485708732604984
31.43921314239502
31.702642722129823
31.752363286018372
31.86988275527954
32.552903380393985
33.36435930728912
32.72719498157501
32.27098672389984
32.33096150398254
33.127677812576295
34.248140892982484
35.119706296920775
35.66175624370575
35.14522078990936
34.67539614200592
34.59260358810425
34.406721796989444
34.26401865959168
33.75300540924072
33.53092783927917
33.02876376152039
33.03839428901672
31.922225012779236
31.03108822822571
31.645176653862
30.420261206626893
29.046661849021913
28.156354970932007
28.521070857048034
28.637424483299256
29.023075575828553
29.721713538169862
29.61584084033966
28.6491206741333
28.906471185684204
29.25438220024109
27.971813731193542
26.97989352226257
26.367175526618958
26.537083349227906
27.31526728630066
27.73767786979675
27.747964730262755
27.962397432327272
28.11659872531891
27.59761239528656
26.667218985557557
26.110056500434876
26.01117991924286
25.532527413368225
26.010609788894655
26.633518147468568
27.425843691825868
27.177500190734865
26.24691312789917
26.0075119972229
26.36356364250183
26.187947506904603
25.968473687171937
25.39926444530487
24.25706120491028
23.291688165664674
23.290860319137572
23.86408728122711
24.161021785736082
24.084368629455568
23.95696249961853
24.449109768867494
26.030150232315062
27.085979328155517
27.523137345314026
27.63290165901184
28.6894570350647
29.630414056777955
30.03007628917694
30.365365157127382
30.42923924446106
31.050227794647217
31.721587014198303
31.41243314266205
31.099739174842835
30.82434410572052
30.616701941490174
30.08788894176483
29.05683653354645
28.462375078201294
28.794911160469056
29.341632266044616
30.353985242843628
30.803165726661682
30.094437761306764
29.848540420532228
29.994331965446474
29.88640832901001
29.99474599838257
29.939168529510496
30.510030732154846
31.386621766090393
31.285748181343077
32.0502373790741
32.13653329372406
31.141336164474488
30.09358207702637
29.81611783504486
29.81806860923767
29.86014528274536
30.223619599342346
30.73736563205719
30.982668828964233
30.668491940498352
30.75666452884674
30.923346481323243
30.271484093666075
29.920776858329774
29.947083625793457
30.16415575504303
29.78925151348114
29.588009977340697
28.87913285255432
27.54468327999115
27.833980145454408
28.535160970687866
28.059753756523133
27.0432262468338
26.107934079170228
25.718073344230653
25.22932011604309
24.02900830745697
22.871377215385436
23.37102879524231
23.79837700366974
23.287582178115844
23.57657582759857
23.619853458404542
24.116441535949708
24.575164470672608
24.773731999397278
24.511589550971983
23.711266613006593
23.10111611366272
23.117923612594605
22.72139401435852
22.544878244400024
22.585246996879576
22.27780318260193
22.57301049232483
22.524636058807374
21.93443935394287
21.949406390190124
21.20415175437927
20.60377146244049
20.739215269088746
21.242055912017822
21.70424069404602
21.835897283554075
21.194316577911376
21.13991370677948
21.25025056362152
20.876126866340638
21.482519898414612
21.736324582099915
21.56974251270294
21.441530060768127
20.666951031684874
19.934614000320433
20.027687253952028
19.83210512161255
19.130807824134827
18.352422676086427
18.676410632133482
18.544391860961912
18.42161946773529
18.47397768974304
18.545184745788575
18.624912543296816
18.67081394672394
18.65910164833069
18.85406759262085
19.28927849769592
18.924668264389037
18.058351364135742
18.625848274230957
18.787676439285278
19.147978568077086
18.652024178504945
18.092180814743042
17.70004549026489
17.45624487400055
17.448076491355895
17.454531598091126
17.436732296943664
17.522379903793336
17.567236447334288
17.78421808242798
17.81455159187317
17.454044775962828
16.767245602607726
16.617645707130432
16.888028769493104
16.989294981956483
17.02648299217224
17.15197566509247
17.13827857017517
16.850002927780153
16.42503743171692
16.875829029083253
17.149477195739745
17.869242691993712
19.221536049842836
19.126786313056947
18.83785089969635
19.178692631721496
19.42238552570343
19.454263978004455
19.538409004211427
19.194555835723875
19.143069067001342
19.190018997192382
19.516826376914977
19.311791553497315
18.415795407295228
17.785919914245607
17.345118865966796
16.977319359779358
17.12712323665619
17.328754773139952
17.426781582832337
17.304672527313233
16.87814380168915
16.51878974914551
16.653491168022157
16.265300006866454
15.907677726745606
15.735239939689636
15.56478795528412
15.466886658668518
15.497275042533875
15.56578260421753
15.509333505630494
15.524218344688416
15.599640021324158
15.508359203338623
15.185874104499817
14.829717993736267
14.876394453048706
14.83060953617096
14.834706745147706
14.623260474205017
14.462623553276062
14.70696581363678
15.039334702491761
14.65151846408844
14.214330286979676
14.586569714546204
15.454976282119752
15.4058802318573
14.753245792388917
13.707997488975526
12.535197744369507
12.630776681900024
12.855358839035034
12.759761939048767
13.171307082176208
13.458936495780945
13.31530972480774
13.427903785705567
13.674936680793762
13.848871245384217
13.418834724426269
13.623364458084106
13.984786901474
13.83841317653656
13.654093346595765
13.63919686794281
13.357142515182495
13.090610547065735
12.993792371749878
12.840386757850647
12.960052261352539
13.540726923942566
14.15681625366211
14.367503242492676
14.440486335754395
14.888478789329529
15.606827116012573
15.757205061912536
16.087294001579284
16.329379158020018
16.1757496881485
16.1702721452713
16.104249963760378
16.32789499759674
16.722359857559205
16.73037733078003
17.012097330093383
17.38113670349121
17.39273359775543
17.79614734172821
18.273778920173644
18.199183955192566
17.94499852657318
18.17310357570648
18.321476798057557
18.300755610466002
17.87054741859436
17.531799511909483
17.284180397987367
16.95984441280365
16.883855752944946
16.319407052993775
16.013221611976622
16.181125030517578
16.090794568061828
16.164505763053896
17.517017359733583
18.149773769378662
18.443913621902468
19.14877836227417
20.010363788604735
20.289240040779113
21.042779808044433
22.023641619682312
22.450743789672853
22.482190747261047
22.515747132301332
22.810345706939696
23.34420394420624
23.376498675346376
23.956267733573913
24.358248829841614
23.92482970714569
23.843863682746886
23.787901329994202
23.240001769065856
22.62896266937256
22.768969345092774
22.817526483535765
22.754519557952882
22.86434844493866
22.941279249191282
23.335766105651857
23.191911635398863
22.71540678024292
22.708970999717714
22.822605180740357
22.99379422187805
23.162589049339296
22.744345784187317
22.387406206130983
22.397929978370666
22.291849303245545
22.330397129058838
22.150254397392274
21.864775905609132
21.762676253318787
21.756654810905456
22.157636070251463
22.49043493270874
22.494146342277528
22.429980082511904
22.180145983695983
21.678654408454896
21.63372489929199
22.222254753112793
22.228128786087037
22.29223925590515
21.750884575843813
20.554612278938293
19.655340957641602
19.419060339927672
19.073921227455138
18.202435488700868
18.148932938575744
18.374933924674988
18.53231827735901
18.620667123794554
18.340500664710998
18.347217636108397
17.541694812774658
16.336957273483275
16.354237785339354
16.60644422531128
16.95832592010498
17.838061323165892
19.217960014343262
19.819959416389466
20.166295976638793
21.75049913406372
22.771847972869875
23.030659475326537
23.569862990379335
23.98973819255829
24.387808170318603
24.8217343044281
24.619857840538025
24.17085939884186
24.187468361854553
24.435699892044067
24.294851603507997
24.049737277030946
24.291610555648802
24.14298689365387
24.25276123523712
24.108589930534364
23.778062686920165
23.789457578659057
23.539709982872008
23.6356606054306
24.24714505672455
24.99270327568054
25.506939964294432
25.447532653808594
25.13885232448578
24.54418532371521
23.746199169158935
23.4478631401062
23.452680978775025
23.95585542678833
24.58829860210419
24.172143659591676
23.63595808506012
23.816129145622252
23.60106942653656
23.446463475227358
23.891552376747132
24.950580682754516
26.622409100532533
27.878164710998536
27.770826921463012
28.153510761260986
28.028912754058837
27.672903933525085
27.511821699142455
26.991133561134337
25.532271761894226
25.082491822242737
24.636346859931948
22.91654716491699
22.058262276649476
21.715806736946107
20.822041907310485
20.196111345291136
19.86140889644623
19.74007933616638
19.63041234970093
19.543983936309814
19.48417311668396
19.308936095237733
19.4292462015152
19.55970543384552
19.621707792282105
19.781180896759032
19.68650508403778
19.473254141807555
19.602999477386476
20.07756675243378
20.750832500457765
21.1706214427948
20.91312750339508
20.192390570640566
19.759714322090147
20.1308651638031
