0.05224280074995477
0.05264877001114655
0.052465162605512886
0.05271091976726893
0.053033098285086455
0.05303831828059628
0.05262088922667317
0.052806925784097986
0.05282194650790188
0.052980326922843234
0.05282439421978779
0.05266681996756233
0.05257417304965202
0.05240679097245447
0.05200941365212202
0.051842027628445066
0.05180982911668252
0.05190034019993618
0.051950743898050857
0.05216054107353557
0.05253013327135705
0.052759589717024935
0.05263822241628077
0.05268059573194478
0.052961650140932764
0.05307002258196007
0.052403628555475736
0.051474837117712016
0.05061605464026798
0.05062587305495981
0.04978003914817236
0.04889263914315961
0.048553047343157234
0.048538084204192276
0.04838897323585115
0.048001026433776135
0.04773346921545454
0.04779089537682012
0.04766765850421507
0.04741332341043744
0.04708968202990946
0.04677670170494821
0.04678194802254439
0.04668076297210064
0.04682595833321102
0.04655319825862534
0.046021238507237286
0.045752530820900576
0.04568348884407897
0.045254796805675145
0.045115183007437734
0.04501078395463992
0.044748804976115934
0.04455331573379226
0.04449610006005969
0.04446671118028462
0.04461575244553387
0.04468359859951306
0.044574145878432316
0.04445529552467633
0.04428076252748724
0.04374883650976699
0.043361029820516706
0.04334883905248717
0.0438168487866642
0.044038789902697315
0.044202674014377406
0.044184391596354546
0.043718698828015476
0.04385390141338576
0.044039351437822914
0.04397922875185031
0.04434894233592786
0.044663408066844566
0.04501253746217117
0.04523915740428493
0.045157155537744985
0.04526687890815083
0.045441200609202495
0.04594912899890915
0.046744740841677415
0.04651570172223728
0.046533757770084776
0.047044281043345106
0.04735274755978026
0.04744557429628912
0.04743766674771905
0.04758455352101009
0.047531748112523926
0.04751640490838326
0.04762968430237379
0.04762537793605588
0.04745179825928062
0.04729762668313924
0.04729570477327798
0.04740617317496799
0.04748654262453783
0.04751437995408196
0.04745659733482171
0.047447827502037396
0.04744456671527587
0.047517651961534284
0.04737020765896886
0.04738051794352941
0.04753320803807583
0.04759889369539451
0.047623676563380284
0.04771332927630283
0.04760877765074838
0.047569473708281296
0.04740181076980662
0.04715369496087078
0.04734448144736234
0.04722055440652184
0.046873479021014644
0.046477142570074646
0.046045276122749786
0.04600030807196163
0.04574632133124396
0.04546414405282121
0.04542940709216055
0.04545939246658236
0.045382459576358086
0.0450605200388236
0.045140539268031715
0.045024059005081656
0.04403456109284889
0.04334120493149385
0.04344755727041047
0.04348539773956873
0.04341635116550606
0.04327869026630651
0.04331288859539199
0.043507886416628026
0.043309689880697985
0.04312920576427132
0.04304462765168864
0.04303072121168952
0.042880743614514355
0.042601635716855525
0.04241829277016222
0.04234826890635304
0.04209660092019476
0.04195048082096037
0.04185099704773165
0.04184584232396446
0.04171690181072336
0.04183111034566536
0.0421821373666171
0.04252776316832751
0.04243035451334436
0.04226917576510459
0.04250469046353828
0.042511411297600714
0.042186052239267156
0.041428571075084616
0.041201818460831416
0.04139788786764256
0.04098631643457338
0.04078114999341778
0.04079317476833239
0.0408228863106342
0.040743952167104
0.04050416919635609
0.040783178527490235
0.04114955073397141
0.04135441124788485
0.04151610594533849
0.04194058085558936
0.04232887426333036
0.04252853424928617
0.04252057555364445
0.04265575145196635
0.04260053720499855
0.042533578340662646
0.042610785326105544
0.04256867719523143
0.04249878967006225
0.042624033630709164
0.04273117818578612
0.04262325405550655
0.04250101868703496
0.04320836859580595
0.04334604846022558
0.042476898062159305
0.0422599636670202
0.04239394259813707
0.04224401585001033
0.04218818555411417
0.042026658777031115
0.04149533228890505
0.04080460783152375
0.0404298775922507
0.040392999093746766
0.04052853443252388
0.040745830044616016
0.04094767115253489
0.04117039715347346
0.04147666034055874
0.04149753930338193
0.04134771714918315
0.04118568557780236
0.04113569302717224
0.04111285144812427
0.04107541788078379
0.04101620729721617
0.04117548219568562
0.04080262655334081
0.04070167011697776
0.04060117185523268
0.040618274227599616
0.04080549265665468
0.04145194049167913
0.041391712607000954
0.041329133789404296
0.0413391785218846
0.041523551169084384
0.041416718021500855
0.041577738321502695
0.041329139503650365
0.040899906099657525
0.04092742480977904
0.04144771257822868
0.041759940196643586
0.04154036136169452
0.04133122740022373
0.041177387798088605
0.041007470613112676
0.04111670675396453
0.04141495086834766
0.0415655448223697
0.041433492350042796
0.041473135417327285
0.041498463108437134
0.0416843802924268
0.04180174548062496
0.04184763215947896
0.04183023510791827
0.04183828538574744
0.04178094863542356
0.04194667703646701
0.042445527510717514
0.04292136951291468
0.04300672677054536
0.04290724109334405
0.042845978801487945
0.04285417939303443
0.042765174842788835
0.04292829064652324
0.04320909149479121
0.04315739502897486
0.04317354544007685
0.043154398677288555
0.043346048531820995
0.04369512213277631
0.0437959797779331
0.04361253894399852
0.04327580890152603
0.04305042089894414
0.043235603876528333
0.04356275142985396
0.04406653872050811
0.0442580226395512
0.044183748702635056
0.04407092484063469
0.04415391110465862
0.04383079114602879
0.043279905554954895
0.04329933129309211
0.04296685455716215
0.04277823100623209
0.0427666465123184
0.04247896112850867
0.04202398236258887
0.041740609339321964
0.041835096278227867
0.04211679834581446
0.04211866086057853
0.04187463872367516
0.04110324675799348
0.040633460908429696
0.04074071867216844
0.04000608464586548
0.03899754102691077
0.03894916395249311
0.039506531187216753
0.0400420652050525
0.039995725108892655
0.03989088016271126
0.039836410107673144
0.03966168567480054
0.039592033645603805
0.039689661827287635
0.039783441815525296
0.0398921165894717
0.04003615439287387
0.04014055205392651
0.04002522190450691
0.04038192788895685
0.04100514480494894
0.04138429216807708
0.041381487658945844
0.041543625541962684
0.04157027289038524
0.041424837897066025
0.04152823505806737
0.04163148237625137
0.04163395625713747
0.04160802758706268
0.041634025727398695
0.04203878626634833
0.04231684323516674
0.042343111783266066
0.04287857577786781
0.04316336634219624
0.043120171987102364
0.04320776251784991
0.043342543711187315
0.04327018304727972
0.04336324977397453
0.04335516357677989
0.04320253154612146
0.04328910696145613
0.04322117703442927
0.04281092203862499
0.04241179378819652
0.042234404108603484
0.0423292240180308
0.04232949747645762
0.04215245995495934
0.042100892841117454
0.042359497316065246
0.04252192124200519
0.042313301975373176
0.042431933998595926
0.0425462816626532
0.04307605368376244
0.04369506680348422
0.044069784921011886
0.04414994203136303
0.04477203644521069
0.04563530382118188
0.04642136898299214
0.046866822284064254
0.04710539389343467
0.0471462261659326
0.047266442229738456
0.04741557945671957
0.04754412747919559
0.04769632896175608
0.047834941584733316
0.04783243774494622
0.04760788686340675
0.047428776394808664
0.04735313222045079
0.047496417806250975
0.04737962522776797
0.04726863940362819
0.04735938156780321
0.04734891090309248
0.04771741741569713
0.04810804139240645
0.048122083037742416
0.04818904346728232
0.0479095434845658
0.04786889330542181
0.04820189047721215
0.04825064115750138
0.04802459933271166
0.04771416244388092
0.0473300741345156
0.047325719238724556
0.04728351508092601
0.04739205056685023
0.04727621375524905
0.047233250609133394
0.04750826854491606
0.047761192446341735
0.047615441900561564
0.047180229810765015
0.046883345452952196
0.04687281812890433
0.046302961598848925
0.045671618811320515
0.04567781714489683
0.04529286293545738
0.04519400143297389
0.045332320669549515
0.04512712937837932
0.04525826465454884
0.04545663907716516
0.045616114192525856
0.046077947500743906
0.04628193794749677
0.04607713300967589
0.045857627573423085
0.04564837730198633
0.04571650162921287
0.046147545966668986
0.04672118077171035
0.04670047688414343
0.046474086369853465
0.0465079978632275
0.04617747483658605
0.04576919671962969
0.04557338775019162
0.045545706639532
0.045588859230047095
0.04556555976974778
0.04565447140659671
0.04602609813853633
0.04589002417225856
0.045242555158329194
0.04520379690628033
0.04519569594296627
0.04520392319711391
0.04504315374651924
0.04508129877911415
0.044890430925879625
0.04475711757142562
0.044659523659502154
0.044660728840972296
0.04444557600189
0.044104691103566435
0.04393371176382061
0.043927566185593604
0.0441573420597706
0.04428407113184221
0.04418751501536462
0.04397802826366387
0.04395897507143673
0.044225152877043004
0.04417609986208845
0.0448040841385955
0.04522805751068518
0.04517968154337723
0.045300445302273146
0.045333150707301685
0.04527813813125249
0.045297566854278555
0.045064144663629124
0.04465624747273978
0.044451355410856194
0.04466471798892599
0.04472077978192829
0.044720354035962376
0.044970549752470106
0.045198601929587315
0.04523752532491926
0.045693172800820324
0.04628280366654508
0.046439655363792555
0.04634753234218806
0.04599194489768706
0.04575247545784805
0.045822466973331755
0.0460362997505581
0.0461486178758787
0.04621305287233554
0.046287071734550406
0.04615623882680666
0.04591362489445601
0.04580613359576091
0.04566694102424663
0.04534135098219849
0.04499076107342262
0.045054992975201456
0.04511414647917263
0.04561473022971768
0.046263427865924314
0.04630191517411731
0.046606698289397175
0.04689540811988991
0.04699450698506553
0.046835854763048704
0.046493009659461675
0.0463827359903371
0.046371771458070726
0.04630464541900437
0.04652215367241297
0.04651171771052759
0.046421749467263
0.04647787024092395
0.04656960738357156
0.04619649783242494
0.04558517769386526
0.045058080276357944
0.04504407726810314
0.04521650605078321
0.04526551172835752
0.045383062651380895
0.045488270216737875
0.04565525008249097
0.04608493820705917
0.04618147268309258
0.04610965404775925
0.046294746411731466
0.04638848046946805
0.0461357854824746
0.045485316350241195
0.04507538897916675
0.04507172901066951
0.04489229509083088
0.044783802793826905
0.044957570204860534
0.04515693452092819
0.045325724091962914
0.04533884867618326
0.04544773131608963
0.04550948593998328
0.0451549593207892
0.0449242013588082
0.04499157370009925
0.044588360646157524
0.04428690199740231
0.04422432809020393
0.04413468899088912
0.04400242939474992
0.0442395707021933
0.04463597547844984
0.0449571497150464
0.04517121824086644
0.045858519626199266
0.04623134823224973
0.04626688956690486
0.04641264099627733
0.04656094592879526
0.04691739698057063
0.047070687772938984
0.04712205898773391
0.04731891843606718
0.04713690132193733
0.04680902243941091
0.04700727966206614
0.04746062695456203
0.04779754552466329
0.047334926213952716
0.04794252133346163
0.04904673263430595
0.049481783875380644
0.049344554626150054
0.048885630834265614
0.04846086006436963
0.04848292114504147
0.04840539147262461
0.04910577925911639
0.04935802364663686
0.04928021436731797
0.04909275851852726
0.04869742895127274
0.04852325918502174
0.04868671312520746
0.04885904339782428
0.04876779218786396
0.04893939473899081
0.049192951574805195
0.04919707016029861
0.04908613450475968
0.04920221189444419
0.049294415882905014
0.04935088934900705
0.04966640483879019
0.04984734883066267
0.05011691892752424
0.05062817102880217
0.05007796508842148
0.04960195364779793
0.04944630678917747
0.04940000737493392
0.04918044075428043
0.049374073461513034
0.04961905506439507
0.0496471786161419
0.04967235742078628
0.04982703232963104
0.049744484222610484
0.04942229815700557
0.04910708161827643
0.04897130358207505
0.049024802001658825
0.04925832881999668
0.049391347597702404
0.04944278965878766
0.04955406997236423
0.049677650944213385
0.04963353507628199
0.04954458701133262
0.04939261538325809
0.04941744484123774
0.04915006461553276
0.04906932006473653
0.049045321714365854
0.04868747324391734
0.04858244277653284
0.04857321733143181
0.04876933109830134
0.04901659433438908
0.048727397973416374
0.04814617675845511
0.047533914856030604
0.04744019848760218
0.04751798907876946
0.047598219336359764
0.047842949285986834
0.04807033005985431
0.047985471417778175
0.048117990527534855
0.048589784618816335
0.04895836125593633
0.04879615900747012
0.04852890757028945
0.04829093077220023
0.0483137116197031
0.048308430276229046
0.04857048353587743
0.048944494021125134
0.04920146345510148
0.049413284915499386
0.049478216185234486
0.049386009130394086
0.049684357846272176
0.04986389892408624
0.049792691739858126
0.049865419149282386
0.0500641752226511
0.050105838717427104
0.05021378514938988
0.05006549084559083
0.05003979825996794
0.050137315816245975
0.05032999032060616
0.05125448688631877
0.05201208284648601
0.05160770795249846
0.05170982601353899
0.05178626636508852
0.052053497543674894
0.05250746681471355
0.05278875031101052
0.0528836934332503
0.05304337992798537
0.05312927262391895
0.053024377354304306
0.05334563537559006
0.05392923568899278
0.05395500575657934
0.05397019669122528
0.05436087944137398
0.05433377496839967
0.05357783528859727
0.05294520138122607
0.053058088357793166
0.053227421009796674
0.053286559995030985
0.05316119863127824
0.05293789292336441
0.052812752901227215
0.05269534021266736
0.05287283494020812
0.052984049300430346
0.052816065811202864
0.052762337385793216
0.05294544657750521
0.0531829427962657
0.05323659089801367
0.05339108248357661
0.05332856650406029
0.05359606312355027
0.053412019871757366
0.05308495847275481
0.05310302039026283
0.052851618725107984
0.05270017745730002
0.05269261252717115
0.05275124617503025
0.052872411787393506
0.05284877799684182
0.0526726952107856
0.052687747702002526
0.05245337895466946
0.05235044087166898
0.05237724402570166
0.05238760927808471
0.052315548926126214
0.05251524097751826
0.05287361242459156
0.053127364896354265
0.05290886045258958
0.05273181602009572
0.05287378429842647
0.05321029196260497
0.05325496312754694
0.053216585503541865
0.05285374922619667
0.052611209232127296
0.052411243126261976
0.05206275888893288
0.05213486043794546
0.052093171349260954
0.052052464971202424
0.051940423509222455
0.051922908497508614
0.052139989908318966
0.05236208042013459
0.052143190243514256
0.0520333107910119
0.052098476523533464
0.0524409531452693
0.05279868978366722
0.0526901633257512
0.05265978412120603
0.05278581591439433
0.05246043750725221
0.0522086759202648
0.05237823410425335
0.05257648272498045
0.05271530296711717
0.0529480963764945
0.052852014666423204
0.05282400668365881
0.05267573498771526
0.05286793041334022
0.05308322086930275
0.05316888152214233
0.05347969299997203
0.0538522327208193
0.05394915832090191
0.05428615292708855
0.05433669610938523
0.05452752566896379
0.05463851335749496
0.05473594392009545
0.05510153624927625
0.05556181069114245
0.05551133398839738
0.05493569276877679
0.055265288199880164
0.054537129607051614
0.053337016392033545
0.05291229714639485
0.05250848393130582
0.052148532038554546
0.05185988667595666
0.05140973061148543
0.05134318625903688
0.0506882753019454
0.050439283633022566
0.05043335907161236
0.050331522716442124
0.05083688796556089
0.05106569469789975
0.05098216785059776
0.05100444399344269
0.050972730100038464
0.050709830219857394
0.050342687782249415
0.05017403045087122
0.05010673051176127
0.04986530208960176
0.04979761548631359
0.04951432343106717
0.048781820494914425
0.04844753186451271
0.04811896985687781
0.04764124601671938
0.047715698250103744
0.04767755302134901
0.047767838875879536
0.04761985172284767
0.04759025767329149
0.04760054607118946
0.04752614900586195
0.0474425297731068
0.047413790934951974
0.0473700963484589
0.047816930683911775
0.04825544760329649
0.048361099021858533
0.048394321777741424
0.0485369684395846
0.048483696543844414
0.04824719701369759
0.04802903928735759
0.047954905237420464
0.047989438617951234
0.048047024701954794
0.04808589545544237
0.048187268195324574
0.04819907312514261
0.048176058267126794
0.04800927614851389
0.047996546929352915
0.04812598455231637
0.048190823076292875
0.04824542503163684
0.048236449487740175
0.048574534489307555
0.048983750133193095
0.048864727946929636
0.04899348088016268
0.04890370009175968
0.04892244401795324
0.04901178899570368
0.048973469660268165
0.04888270052906592
0.04899219001934398
0.04873541972017847
0.048562383078387936
0.04873805378039833
0.04911447085032705
0.04908860198222101
0.04931005457649008
0.04985359814949333
0.05021787123056129
0.05004383603518363
0.04988181285269093
0.050081184977898374
0.05036863053741399
0.05056912737141829
0.050577789186500015
0.05051960613578558
0.05052715514961165
0.05078613720310386
0.05099708766036201
0.05099736713862512
0.0509477113536559
0.05066991725296248
0.05067350497469306
0.05063024708651938
0.05050758453493472
0.05024943162861746
0.04903046488121618
0.048255862187361345
0.048037372554535974
0.04757541030470747
0.04763323447434232
0.04721961498900782
0.04670448534598108
0.04647159808955621
0.04634791125310585
0.04615943266020622
0.04598863185092341
0.04587921179831028
0.04528966303623747
0.04481924261082895
0.04479942655481864
0.04443683710414916
0.044194262546952814
0.04428841398155783
0.04427787063934375
0.04422740119101945
0.044370715391123666
0.0445253513957141
0.044410230598878116
0.04458252315816935
0.044612665325403214
0.04464630915375892
0.04465117034094874
0.044457263393560424
0.04416891989589203
0.04415503340016585
0.04407199256529566
0.043834114691126164
0.04360923861037008
0.043461377962375994
0.04366953212360386
0.044125617812969725
0.04409041731152683
0.04367600355239119
0.04353762567450758
0.043762914313119836
0.04397101542854216
0.043848679072689266
0.044093835404491986
0.04419131958275102
0.044085906658438034
0.04393641802482307
0.04420627619198058
0.04455794694309589
0.04499623343232088
0.04479828326613642
0.044951281251851466
0.04534365451138001
0.045371218172949736
0.045404730535228734
0.045197462686919605
0.04503253939677961
0.04525522346259095
0.045338563355035146
0.04511702405870892
0.04484827588661574
0.04498571501520928
0.04513328494213056
0.0451787137973588
0.04517599362065084
0.04531623910006601
0.04575053226843011
0.046314984285272656
0.04674246414215304
0.046755509323556904
0.04724101653904654
0.04763594012591057
0.04759872039197944
0.04743534501816612
0.04765555230958853
0.047644570019328966
0.04729192781029269
0.04684491630585399
0.04650060452579055
0.04659419354924466
0.04657738479145337
0.046345799752743916
0.04643613020598423
0.04660046714241616
0.04637532538734376
0.04623711752181407
0.04612364562053699
0.045877048454131
0.045772156098973935
0.0453541710798163
0.04515907034277916
0.044847721671685575
0.043914626018959096
0.04333703996788245
0.04305024064495228
0.04248039523430634
0.04224168092419859
0.04143450029252563
0.04120414481323678
0.041086539772804825
0.040948192889336495
0.0408443134004483
0.040536833983496764
0.04004296738887206
0.039717590857762844
0.03990166740433779
0.03945936280360911
0.0389745675760787
0.03881932420423254
0.03888105694204569
0.03885263625474181
0.0389010605373187
0.03889379327185452
0.03883515601453837
0.03871451113489457
0.03877895832934883
0.038716061502345835
0.03865890354441945
0.03865185761591419
0.03810168511699885
0.03774262824910693
0.03759766867093276
0.03744405029225163
0.037501443891087546
0.037491248269216154
0.03780043313105125
0.038246987661113965
0.03840756844787393
0.03863643221498933
0.03907390972890425
0.03933825913874898
0.03936928316310514
0.03941589529684279
0.03951010609627701
0.03948990934761241
0.0395768141472945
0.03963819134456571
0.03967169024166651
0.03969608550716657
0.03976117302721832
0.03958986698766239
0.03941810354008339
0.039301896013785156
0.0391741291328799
0.03907969900930766
0.038587214471190234
0.03822298633458558
0.03808321588381659
0.03802986165392212
0.03802959828870371
0.03795150118821766
0.03789202597865369
0.03791094159707427
0.03798973962548189
0.03805841637775302
0.038145350400009194
0.03808871308632661
0.03794379048398696
0.03792323633213528
0.03799311286828015
0.038212051662849265
0.03829032530542463
0.0380509255209472
0.037950453030061906
0.0379982608841965
0.03777013050799724
0.037173911958234385
0.036753380530280995
0.03677960616652854
0.03676200932532083
0.03695339814061299
0.03698779754515272
0.03694741740939207
0.03682870296703186
0.03657991624146234
0.036331685554469
0.03634963690419681
0.03602965816680807
0.0356292412354378
0.035642312966519964
0.03623985627025832
0.03648305395967327
0.0360552601685049
0.03632529086491559
0.037002710673259574
0.0371753517765319
0.036739396422053684
0.036411967242020185
0.036435570119647306
0.03680120342061855
0.03681112139776815
0.036292256870074195
0.03606273327954113
0.035813222292345015
0.03580202145676594
0.03571777563367504
0.036302219573408366
0.03704392626706977
0.037489232203806754
0.03743925677554216
0.03754990002780687
0.03792252118058968
0.038236720484565015
0.038595789332175626
0.03866631046752445
0.038680163485114466
0.038692819458665324
0.03886088626109995
0.03932699622469954
0.039860093411407435
0.04005203126173001
0.04008281783084385
0.04018743316933979
0.04037260686629452
0.040548050657380375
0.040782251740456556
0.040884625811013396
0.04052213591814507
0.04021778237307444
0.04019767793011852
0.04035691112512722
0.04030187811236829
0.04016500506433658
0.04024310268519912
0.04055675394833088
0.041197973660891875
0.041709116629790516
0.04204334194306284
0.042090477708843534
0.042333044370170686
0.04231276505393908
0.04234519372228533
0.042378208744339646
0.0423737306665862
0.0424052460945677
0.04224778481468092
0.04187230053881649
0.04160566338163335
0.04165521111979615
0.04147713460610248
0.041188891532365234
0.041073541218065654
0.041178762862691655
0.040866961873834956
0.04075122422829736
0.04082936704799067
0.040824749565217644
0.04063767258718144
0.04024405337870121
0.039965113595244475
0.040113935101544484
0.03973385179997422
0.03968240709975362
0.04014395379344933
0.04004864542919677
0.04006928328832146
0.040147041899617764
0.03998155982641038
0.04007694892876316
0.04041205593559425
0.040554371837642975
0.040450774183264
0.04021789952530526
0.04007207958376966
0.0400964997819392
0.039929137267172336
0.0394893800560385
0.03883320654451381
0.03873911271453835
0.03997421642066911
0.04086556117690634
0.04041002372454386
0.04192124792840332
0.0435490985319484
0.04384669795166701
0.04368057141895406
0.04367398690141272
0.04392735489993356
0.043982766081462614
0.04375094866089057
0.043760363421752116
0.04379833088314626
0.04392721273005009
0.04380629541061353
0.04430613931559492
0.04465943853778299
0.04465347788645886
0.04465048986545298
0.04481264724803623
0.045018632704741324
0.045208896650001405
0.0452945695532253
0.04527318790147547
0.04549496239807922
0.045601627798750995
0.0455929492181167
0.04584198845725041
0.046086095554637725
0.04625228899822105
0.04668741508212406
0.04685969057376496
0.0467881777085131
0.046779762029182166
0.046882290782523345
0.04718220137350727
0.04766984439222142
0.047945637210505085
0.04793642991804518
0.048073364064330236
0.048051002314314244
0.048132586215506305
0.04825324560108129
0.04843954322102945
0.0484866591647733
0.04863132193859201
0.04878202910127584
0.048950751516385935
0.0488708051352296
0.04863316593982745
0.04850283030362334
0.0484998893039301
0.04861252099275589
0.04866469252912793
0.04860332145995926
0.0486129670398077
0.04830129160487559
0.047849963703774846
0.04773798558977432
0.047751506660715676
0.04744010870927014
0.0472767146100523
0.04776699575828389
0.04788324287277646
0.04846299919765443
0.04962701061624102
0.04993567768193316
0.050370082196313885
0.05131346126145218
0.0517796305246884
0.05174027010332793
0.051875871284864844
0.05261167329910677
0.053215596266672945
0.053151413644081914
0.05339925639564171
0.05356769982550759
0.0535834156582132
0.05363545262836851
0.053557612642180175
0.053491045298287646
0.05350119310314767
0.05355044821510092
0.053551363438600674
0.053446844345889984
0.05334706938534509
0.0533320943248691
0.05334923783433623
0.053368232522043396
0.053413053842959926
0.05336961546097882
0.05319079616630915
0.05312771983037237
0.05316991544154007
0.053055528059485366
0.05303012699587271
0.053199916860321536
0.05356826106610242
0.05411501769442111
0.05465157121710945
0.05482654987135902
0.054672184570226816
0.055014665066846644
0.05585737506800797
0.05672611776040867
0.056905664859805256
0.057266847771825266
0.05736374345142394
0.05755046346806921
0.05741051211312879
0.05733433418732602
0.05685653475229628
0.056395407709060236
0.056228109954390676
0.05564386654994451
0.055038364548818206
0.054761317289667204
0.05466239511675667
0.05447248332435265
0.05416597221163102
0.05396670209243894
0.053816432965104466
0.05385487194696907
0.0536309432273265
0.05372187937260606
0.05378564940940123
0.05386471573554445
0.0534135634044651
0.05281531443237327
0.05249705039139371
0.05246946104045492
0.052534568147966636
0.05281537839095108
0.053169276125263426
0.05319622810289729
0.05317253298533615
0.05361056483234279
0.053657485553412695
0.0538062009611167
0.053348621125333014
0.053411742234020496
0.05350461980735417
0.053675257592694835
0.05379799947259016
0.053597980285412634
0.053228563447482884
0.05295806560723577
0.05280001943581738
0.05285946769989096
0.05282729824190028
0.05310610904765781
0.05336716898542363
0.05327740837645251
0.052976361070177516
0.05303135097376071
0.05269491810060572
0.0521057840262074
0.05148350455914624
0.051220729537890294
0.051144453317974695
0.05100642155157402
0.051167413440416566
0.051041992176906206
0.051189441418973726
0.051266008355887606
0.05140809936856385
0.05170140874164644
0.051997334201587364
0.052146483604446986
0.052129175465088336
0.05223928633204196
0.052308061531512066
0.052278861429076645
0.05223733269725926
0.052293243476888164
0.052510312175145374
0.05287793646682985
0.05288586176291574
0.05394447971775662
0.055356441670446656
0.05582875439489726
0.05578047960007097
0.05594186893198639
0.0556692968349671
0.05547735004627612
0.05576989651715849
0.05603319867281243
0.0562308322172612
0.05613910650485195
0.05627030925708823
0.05630902428296394
0.05598381318792235
0.05600125281896908
0.05598236014950089
0.05578602215449791
0.05562069976876956
0.05574511332670227
0.05592275355360471
0.05594652665371541
0.055535963175352664
0.054501374693354594
0.05374243576894514
0.05422594062052667
0.052550591547042134
0.05094052211730741
0.05050705911940895
0.050528850151458755
0.05053348941029981
0.05036442201700993
0.05034410899388604
0.050798538327217105
0.05142637541750446
0.05199030562536791
0.051986517927143726
0.05203035994549282
0.052129166465019805
0.0526653450448066
0.05346986616845242
0.05418277780758217
0.05463978465879336
0.05460852078977041
0.05458172168233432
0.054708798497449605
0.05469375103130005
0.05453309968695976
0.054364411289570855
0.05452720764675178
0.05425420484156348
0.054297020244412124
0.0542944239010103
0.05380900730728172
0.053577114524086936
0.053661470162915066
0.053615412509534506
0.05364879914443008
0.05338230123044923
0.05277309089084156
0.05242819671053439
0.05255380442016758
0.05252178600872867
0.05245252900058404
0.052355830281740054
0.052190976799465716
0.05211140102124773
0.05234911656240002
0.05249992489931174
0.05227458864799701
0.05211709746858105
0.05206870667519979
0.05208912254194729
0.05233237350359559
0.05289300281903706
0.05345830699428916
0.05351612696656957
0.05438506649225019
0.05574234618921764
0.056609551329165696
0.05668585086124949
0.05678083607926965
0.05656156328273937
0.05638995596673339
0.056247318444075066
0.05564089671475813
0.05561321273678914
0.05500659485696815
0.05398290135315619
0.05389032319071703
0.053451768787344915
0.05246354985865764
0.052360804944764826
0.05269286485388875
0.05258599695865996
0.05192120789783075
0.05180225606192835
0.052608183712000024
0.05265844236593693
0.052776448484510186
0.053184884228976444
0.05345021558343433
0.05376624255441129
0.05395008111954667
0.05404435781994835
0.053990861255442724
0.05413280384382233
0.05431812516297214
0.0544146484148223
0.05442314895801246
0.05444943532114849
0.05455824950360693
0.05472679052851163
0.054869197303196414
0.05481634216033854
0.054718247497221456
0.05467179817147553
0.05471505310037173
0.05476986595895141
0.054628699930617586
0.05423955037607811
0.0538588987395633
0.053787725426955146
0.05395159359672107
0.05393202078761533
0.05400001770351082
0.053720710733905434
0.05342384788673371
0.05390908818109892
0.054144576994003726
0.05439598237746395
0.05430895088240504
0.054396881023421884
0.05425014323671348
0.05417322798748501
0.05430441423901357
0.05461977614904754
0.054562402783194554
0.05434036568622105
0.05435693127918057
0.054449139796197414
0.05472168264328502
0.05524800104089081
0.05556884347344749
0.05568066203035414
0.0556607723957859
0.055802313707536084
0.05595503067946993
0.056066153363790366
0.05630865799961612
0.0561553556076251
0.05600274822674692
0.05587056742282584
0.05589449745020829
0.05552766713197343
0.054882665760815144
0.05419823788921349
0.0539097649732139
0.05367027021828107
0.05305220429436304
0.05301714149536565
0.052692121929721905
0.05265888074762188
0.05231335663469508
0.05239695522817783
0.05225066029117443
0.052151700642425566
0.05207622911897488
0.05225512765115127
0.052242123731411995
0.05233801956172101
0.052470064443768935
0.05260438006720505
0.05308843260398135
0.05337203177157789
0.05313260502181947
0.053395330775529146
0.053308351589366795
0.05331828064401634
0.053262570338556546
0.05347123660845682
0.05364034118829295
0.053605460604885594
0.05362439750344492
0.053587246323004364
0.05360534463543445
0.05330838342080824
0.053183800409315155
0.05299209966789931
0.05266427952679806
0.05246848204289563
0.05245919049018994
0.052489038745407016
0.0526674410153646
0.05279184541897848
0.052651359774172304
0.052535584571305666
0.052455943191889676
0.05222732272464782
0.051806455029873175
0.051952900912147014
0.05081174972117879
0.04951020757202059
0.04892316776560619
0.049160076203988864
0.04950871918932535
0.049596642440883444
0.04926746279117651
0.048936750643188136
0.04872145030880347
0.04848897784017026
0.04855131587712094
0.048331959531642495
0.04806872996734455
0.04814019405050203
0.048177042363677175
0.04841194369480945
0.048650776522699744
0.048652363744331524
0.04858082894585095
0.04838439347222447
0.0483061130461283
0.0484067477285862
0.048479925899300724
0.04809230844955891
0.04769458110095002
0.048107939963229
0.04834356739069335
0.04837152682710439
0.048433666907949376
0.0487266332609579
0.048891794743249194
0.04876526725594885
0.04871750183403492
0.04865198536776006
0.04856904104119167
0.04829674220178276
0.04860838153399527
0.048241261740913616
0.047359726399881764
0.04675812154542655
0.047108910691458734
0.04739297228632495
0.04741899044252932
0.04815773582551628
0.04836443206993863
0.04839283868437633
0.04839997777831741
0.048350004033418374
0.04820947168744169
0.04833740422385745
0.04820354794850573
0.04801048659835942
0.04791724393959157
0.04787295957677998
0.047999608140671626
0.04825731427175924
0.04810132263111882
0.04789510620292276
0.047871355058159676
0.04780540723237209
0.047689089273335414
0.047516283885343
0.047519268558826294
0.047668353150365876
0.04770960816997103
0.04753262455575168
0.047204457180341705
0.04702794951852411
0.04703314399230294
0.04712998382863589
0.047434761619661
0.047524810497416185
0.047495378862367946
0.047137344717048106
0.046454347791150215
0.0463944810628891
0.04555586594506167
0.044136315500363704
0.043359737833961846
0.043581709834979845
0.043726665368303656
0.04372359935776331
0.04394774636137299
0.04414055274915882
0.04432369736838154
0.04417839389061555
0.044275987254222854
0.04458156320266426
0.044583544326014815
0.0445436775626149
0.044543733733007684
0.044122032682644204
0.043769449079409245
0.043753296919167045
0.04386251258431002
0.04357992844772525
0.04284221612615511
0.04269118465599604
0.04273678740719333
0.042275080617982894
0.042118746102787555
0.0420352552132681
0.04176883853622712
0.04173363017500378
0.04176917196600698
0.041707350936485456
0.041607788016553966
0.04151704987278208
0.0414937863801606
0.04150751356617548
0.04144580140244216
0.04125871789408848
0.04108144991332665
0.041070198114030065
0.04118285635835491
0.04158953494974412
0.041961026461794976
0.04192778796772473
0.042053465379867705
0.042304015750996765
0.0421947912464384
0.04166552585549652
0.041306000041076915
0.04164910285966471
0.04139347174903378
0.040698702771915125
0.04034475065302104
0.03982352606137283
0.039387310752645135
0.039195771656231955
0.039151566260261464
0.03926357065676712
0.03908513107919134
0.03904506959370337
0.038907956265611575
0.03869214220205322
0.038660662978654725
0.03870463570463471
0.03860961806611158
0.038611094348598274
0.038473188332282006
0.038040027036331595
0.03764754645293578
0.037490045552840454
0.0375884252099786
0.03750432999338955
0.037248487330507486
0.036975688621168956
0.036748687492217866
0.036706718574278055
0.03652042075525969
0.03636776959872805
0.03639696544967592
0.03643262142897583
0.03640163108706474
0.03631311359582469
0.03619791425648145
0.03615652636392042
0.03611788449808955
0.03605359488981776
0.036077945375582204
0.03613237611018121
0.03596926843863912
0.03563464016770013
0.03558856577728875
0.03550901862792671
0.03568674010341056
0.035541815233882515
0.03538862037123181
0.035248713123146445
0.03504619148094207
0.03492775158141739
0.034166683909716083
0.033417885629460214
0.03335889770998619
0.03309594407211989
0.03303966162726283
0.03290012827026658
0.0329024179035332
0.03269143515615724
0.03249005043064244
0.03253049979452044
0.03236384677817114
0.03220092837698758
0.03222179330070503
0.03232709115953185
0.03242956092697568
0.032412385005736725
0.03223281373153441
0.031966927974717695
0.031783888903446494
0.031734450777294115
0.03150398961850442
0.03137870755628683
0.03148039990104735
0.03147563385544345
0.03145797148928978
0.03148113528266549
0.031463316571898756
0.03138571953750215
0.03152479524491355
0.031390292735304685
0.03136398046161048
0.031022694733692333
0.03058897202135995
0.03042108628083952
0.030423171427100895
0.03031020937138237
0.030077692379709333
0.029955510603031144
0.029929174120770768
0.029802036351757124
0.029745628139935434
0.02974956135964021
0.029605795480310917
0.029388732236111537
0.02926989452098496
0.029340264431666582
0.029356403222773223
0.02935752530582249
0.029372632015729323
0.029263459503417834
0.029004597567254677
0.02880147725343704
0.028730462181847542
0.02831985937664285
0.0280028927361127
0.027892355783842505
0.0277154040010646
0.027418760410510005
0.027260520063573494
0.02733015243546106
0.02688463669619523
0.026327527442481367
0.025936795980669558
0.026020486222114413
0.02561954510048963
0.025378568855812772
0.02537684622569941
0.0253003425442148
0.024439737738575787
0.02365564545034431
0.02345554787432775
0.02251438038307242
0.022099562280345708
0.022255920079769568
0.022427132977172734
0.02263388259918429
0.02263417870737612
0.022615021988749505
0.02280793617828749
0.023254672487964853
0.023609301359392702
0.023576349728973583
0.023794975692871957
0.024135678705060854
0.024414354568580165
0.02448750722571276
0.024503773621981962
0.02491760134929791
0.025590951956110074
0.026320111338282003
0.02669826550409198
0.026639016412664206
0.02660357337561436
0.026893792537739502
0.027359143727226184
0.027737679537385703
0.02810427040210925
0.028299795364728198
0.02819836955750361
0.028180370765039698
0.02794894419843331
0.02771926562767476
0.027723394421627745
0.027613303925609217
0.027620476571610198
0.027719646773766725
0.027774029048159718
0.02763211239129305
0.027387274423381312
0.027347529515391215
0.027132830950431525
0.026942721145460383
0.02694905174546875
0.02718087910907343
0.027256123630795628
0.027155865234090016
0.027205935990205033
0.027438717300537974
0.027642524264520033
0.027784636055584996
0.027850351955275982
0.027836617066059263
0.027655398357892408
0.027479664460988717
0.027512134994613007
0.02744589396752417
0.027177584174787627
0.027109880988718943
0.02688567995792255
0.026728209956781938
0.02676402957062237
0.026681221997132524
0.026763385272352024
0.02675913986051455
0.026699120845878496
0.026667978464392946
0.026638352719601244
0.02654211625806056
0.026586768050910904
0.026807610536925496
0.027145102593349294
0.027503496702993287
0.027660595048218967
0.027429608951788396
0.02700970705947839
0.02688365458510816
0.02670328744337894
0.026537120101274923
0.02654421628336422
0.026580819149967284
0.026430550698423757
0.026068424122640863
0.02578607846517116
0.02585444245603867
0.0256729349354282
0.025718891348224134
0.025835709443781524
0.025871999392984436
0.02579094720305875
0.025782853863202036
0.025838648803764953
0.02582649329327978
0.02584998257807456
0.025829952912172303
0.025774698838358746
0.025659245840506627
0.025650964718079195
0.025691028237342834
0.026031277186702936
0.026525384798878802
0.0267283551604487
0.026720820646733045
0.026863796055549755
0.026926393180619925
0.026948393024504184
0.027002715503331273
0.02717680428759195
0.027600803502136843
0.02819160613347776
0.028813368252012878
0.02923472598893568
0.029496721279574558
0.029521585319889708
0.029977710588136686
0.030864931981777772
0.03180197131121531
0.03234462604508735
0.03231877874699421
0.03263079448719509
0.03300480596255511
0.033319558358052746
0.03359776197816245
0.033843258295673875
0.03402398795122281
0.034096784556750206
0.03405842410051264
0.03413859988329932
0.034330282943556084
0.034496451177401466
0.03461333347135223
0.034694241823162886
0.034689176511019465
0.03476567408884876
0.03494044437189586
0.03515918922261335
0.035317768268287184
0.03548162693507038
0.03566650197608397
0.03579309380496852
0.03587590054841712
0.03591337495483458
0.03586989459581673
0.03582991912844591
0.03584113375516609
0.03588592571206391
0.035904026575153694
0.03587939132936299
0.03592746335431002
0.03594298969605006
0.035939567077439276
0.035858582438668234
0.03573878273484297
0.03570401328499429
0.03577169344644062
0.03576685222913511
0.03569390766788274
0.0358457401022315
0.03615615358692594
0.03630155578721315
0.0362972903996706
0.03629197719041258
0.036267316535813734
0.03631776526337489
0.036466069555608556
0.03660429265233688
0.036574757074704395
0.0367199508077465
0.03693320932914503
0.037057250740472225
0.03705868346965872
0.03701193533022888
0.03694704309455119
0.036831178062129766
0.036696368312695994
0.03661631132243201
0.03659331590170041
0.03658301878604107
0.03657783486880362
0.036581466171192005
0.036544345368165525
0.036553487017517906
0.03655049552442506
0.03660800813115202
0.03685164430178702
0.037148233480984345
0.03737363032065332
0.03748104459024035
0.03747949701966718
0.03741265622084029
0.037342406023526564
0.037315280761104075
0.03715881682001054
0.037031551365507766
0.03696177130914293
0.03696297824732028
0.03699644893174991
0.03699065999593586
0.03691610860172659
0.036797193150268866
0.03668906285427511
0.0366380991123151
0.0366350508236792
0.036611701744841414
0.03650216351728886
0.03631758015719242
0.03614451151690446
0.03613684837939218
0.0360548343800474
0.03573612527106888
0.03534342869301327
0.03508830123464577
0.035075458735227584
0.0345805468771141
0.034020220059901476
0.03384805987589061
0.03413277399959043
0.03453878239262849
0.034552161009050904
0.03407273134565912
0.03339726488222368
0.03299375298200175
0.03305292105069384
0.03328649603528902
0.033246483515249566
0.032770055459113795
0.03249212222872302
0.03228277356131002
0.03212296711513773
0.03235318967723288
0.0331023439229466
0.03394401196041144
0.03444346881005913
0.03464217481669039
0.03468945457250811
0.03467487508896738
0.03460011727176607
0.034488033837405965
0.03450285636121407
0.03474254735279828
0.0351268138398882
0.035429451536620034
0.035548436717363074
0.03551995506277308
0.03542784508899786
0.0352693214523606
0.03499703750712797
0.034621835350990296
0.03422935359179974
0.03393439669976942
0.03379235261003487
0.03376743824104778
0.03381653587799519
0.03393155082128942
0.033986229004804046
0.03389540316769853
0.03375592996017076
0.0337826125160791
0.03395283932797611
0.03401802792912349
0.03396661255741492
0.033947929329006005
0.03389693493489176
0.0338053331617266
0.033697430851170794
0.033615301721729336
0.03358556479564868
0.033544379787053914
0.03353822089033201
0.033431532385293394
0.033203831249848006
0.032940018485533074
0.032667670564260336
0.032453501477139074
0.032395934847882016
0.032503699566004796
0.03263123355805874
0.03273518338566646
0.03278411330305971
0.03280340505298227
0.03280490783974528
0.03280346957733855
0.03279089622898027
0.03274094289168716
0.032659200225025414
0.03251230147667229
0.032279209044063464
0.032010103281354535
0.03186489757965319
0.03192351505975239
0.03176613248535432
0.0318167723226361
0.03183298494899645
0.03181765334797092
0.03181492393952794
0.03179297719383612
0.031880964813753965
0.03192287384881638
0.03190684579196386
0.031509637690614906
0.03088107022456825
0.03054045429918915
0.03042955749318935
0.030177829252788797
0.030095840453868733
0.030103762247599662
0.030027238982729614
0.029765199505491183
0.029348950155545027
0.02876492794719525
0.028204406236764044
0.027799585725879296
0.027514460040256383
0.02763389456551522
0.027360382716869934
0.02660439178114757
0.025804674227256328
0.025388533927034586
0.025421821565832944
0.025115026249550282
0.024728080997010692
0.02434482482727617
0.024012408468406646
0.02375730328494683
0.02354551986558363
0.023372864932753146
0.02332603413145989
0.023273089949507265
0.023171411500079557
0.023131153028225528
0.023163370457477867
0.02323426621616818
0.023348409951431677
0.02334672007127665
0.02320590971969068
0.023077615397050978
0.023121289883274585
0.02306572088971734
0.02299018693738617
0.023019190315390004
0.02294222905067727
0.022860553428763523
0.022897052622865885
0.022938583998475225
0.022815861083799974
0.02273365217843093
0.022729072410147638
0.02275078261969611
0.022736120418412612
0.022756016118219122
0.022749388379743322
0.022760801778640597
0.02274070930085145
0.02275480818352662
0.02283369521726854
0.022998924828134478
0.02318962925579399
0.023244524245383216
0.02311228367150761
0.022954441150650384
0.02293432064005174
0.022987138028256596
0.02302452497417107
0.022900749271502718
0.0227688054041937
0.0226616098114755
0.02267865554546006
0.02254370668437332
0.02242378901457414
0.022434557151282206
0.022540071312105284
0.02261574739473872
0.0226185223122593
0.02271730172098614
0.022869610267225653
0.02303631813148968
0.023229286131681876
0.023463307685451584
0.023718221961753442
0.02396266452153213
0.02420094371191226
0.02433989200158976
0.024472357953200116
0.024505212823860346
0.024239854122279213
0.024000883887056262
0.023862332637654617
0.0238775085110683
0.024051001633051784
0.024152271858183666
0.024313539353897795
0.024827429383294658
0.025248849204508587
0.02540155894123018
0.025397569575579836
0.025516073278849943
0.0257909288269002
0.026124051719671117
0.026388483474729583
0.02662627088604495
0.02682726423838176
0.026815417977049946
0.02697736627305858
0.02713956626248546
0.027208648882806302
0.02723785046255216
0.02731199068017304
0.02736298292176798
0.027361145063769073
0.027365798040991648
0.027308715413091704
0.027283509284025058
0.027350391127401962
0.0274762667727191
0.02754056819481775
0.0274587498314213
0.0272738486120943
0.027077001999132336
0.026926051581976935
0.026865692107239738
0.026872136435704307
0.02684663092950359
0.026765404891921207
0.026471132099395618
0.026276421489892527
0.02629285765811801
0.026158164544031023
0.02606169879785739
0.025946138123981655
0.025495355643797665
0.024675655878381803
0.02393127102404833
0.02357166234520264
0.023473916214425117
0.023453451842069626
0.02347717602388002
0.023591541200876236
0.023818626080174
0.02402924888767302
0.024052987694740294
0.023831879355711863
0.023489659006008877
0.023278180243214593
0.023106642111670225
0.022946666529169307
0.02278280836297199
0.02269978540367447
0.02266591347870417
0.02264760122867301
0.022621048219734805
0.022571565608959645
0.022528168022399767
0.02249395491206087
0.022455084091052412
0.022435017256066205
0.022518145139329135
0.022723106736084447
0.022891705126967282
0.022919669752009212
0.0229274463665206
0.022964708594372496
0.022957715529482812
0.02294649513438344
0.0229402959079016
0.02298571927123703
0.02303010313073173
0.023018593457527457
0.023028669940540567
0.02307974954484962
0.023123384048230947
0.023134684874676167
0.023067448483780027
0.02301447420148179
0.02304561830474995
0.02310101625858806
0.023135707997716963
0.023167838939698412
0.02322546181152575
0.023287000964628532
0.023307118054945022
0.023267804423812776
0.02332498787669465
0.02335569749469869
0.023386180771049113
0.023452004611026495
0.02357091335696168
0.023790896055288613
0.024063291026977823
0.024235657050739975
0.024267324460670352
0.024259321836289018
0.024263691258383915
0.024374499092809854
0.024541814260883258
0.024664985121926292
0.02478020271519199
0.02485248972196132
0.02488472813856788
0.02523154748720117
0.025612887624884024
0.025795617802068592
0.02581758418236859
0.025815876182168723
0.025891347759170458
0.026033553160959854
0.02613680122885853
0.02613355433451943
0.026138282652245836
0.02613146456889808
0.026099697832250968
0.0260775695706252
0.026091524099465458
0.02613633098662831
0.026017526718787848
0.025917109234724192
0.025936760040931404
0.026006955257616936
0.02607981763430871
0.026188642345368864
0.026204367731697858
0.026166072944179178
0.026144553186604753
0.026168329075444488
0.026251111218007283
0.026303969881264492
0.026268609578255563
0.02622346875956282
0.026220703384606168
0.026220600008964538
0.026221457488136365
0.026286751782754435
0.02642296302248724
0.026554751365911216
0.02660504940431565
0.026566905326908453
0.02661720833857544
0.0266533384216018
0.02678227049880661
0.026804676924366503
0.026626349001890048
0.026616768229287116
0.02671480883611366
0.026780900228768587
0.02678069913061336
0.026852084511192517
0.026845864251954482
0.02676711611216888
0.026870634777005763
0.027010947400704026
0.027068147364770992
0.027079097704263404
0.027163222947856412
0.027285704476526007
0.02731482924660668
0.027257532888324932
0.027219186556758358
0.0272755519929342
0.02733654484967701
0.02732471328112297
0.027312247690279037
0.02734976876177825
0.027396561576751993
0.027437354925787076
0.027476553801679984
0.02739975297008641
0.02737302956171334
0.02741212594555691
0.027471534502692522
0.027541513169417157
0.02761411217856221
0.027608100206125526
0.027544016153551638
0.02764501127647236
0.02762003240757622
0.027500176165485755
0.027368649262934922
0.027269875697093084
0.02720619740546681
0.02716040933621116
0.027140694480622188
0.02716923478175886
0.02721066724159755
0.02721232996089384
0.02720503342919983
0.027232517872471364
0.0272168852109462
0.027263508854666725
0.02728930855751969
0.02714692144305445
0.02702217116719112
0.0270003938220907
0.02676998108625412
0.026687962560681625
0.0268522871658206
0.0270386825944297
0.026940009914105757
0.026873992022592573
0.026860051358817146
0.026868836998473852
0.02670079926145263
0.026573737588478252
0.02690664499299601
0.027037132013356314
0.026865481198765338
0.026885434947907925
0.02700155965401791
0.026960141079034657
0.02687281619524583
0.027022636508336292
0.027369983018143102
0.02756160151096992
0.027477199006825687
0.02736548257060349
0.02726532019209117
0.027173000178299843
0.02728042176226154
0.02736382186994888
0.027223653773544357
0.02696018902701326
0.02675961997592822
0.026729212934151293
0.026896071885712445
0.027113073201617224
0.02759961734060198
0.02819095125072636
0.02876203925348818
0.029013644072692843
0.029024063079850747
0.029068763215327635
0.02926508723059669
0.029450223454041406
0.029361643325537444
0.02955533836851828
0.02994966158294119
0.030360442808596417
0.030609145200578496
0.030567748693283648
0.030283292813692242
0.029990424609277398
0.02991065971320495
0.03001934175263159
0.030135771570494397
0.030131955621764062
0.030196593400323764
0.030307711058994755
0.030666392296552658
0.031369153576670215
0.032299325455678624
0.03310125095886178
0.03353549372404814
0.03353365752380341
0.03412950620986521
0.03537083389586769
0.03683918585185893
0.03782255546771921
0.03790045317611657
0.03818249713862315
0.03861748147523031
0.03905643037171103
0.03950282541103661
0.03991589943878353
0.04025054179714061
0.040474459168035534
0.04051332605769858
0.04055999384028837
0.04071385801420547
0.04097396884812042
0.041264124701265247
0.04140626859734766
0.04139348431723192
0.04156242129742168
0.04184265491785481
0.04220222795265727
0.04256071810144931
0.04285045292112045
0.04304739685496315
0.04314038652111776
0.04311102200765163
0.043034904537489635
0.043024862490128726
0.04306310367304832
0.04309145740000531
0.04324975893017836
0.043403432846535
0.04341098334407434
0.04328096338082105
0.04310520379454829
0.04282576268306002
0.042610053605167196
0.042654448880348354
0.042829801285406574
0.04280041403137148
0.04259362486656755
0.042379965608706695
0.04222797703463584
0.042087035158183426
0.04207416799967177
0.042200456502614545
0.041989277943503114
0.04164069095859304
0.0414452247088775
0.041424864185974
0.04145936414017342
0.041416536283213644
0.04117273403215222
0.04106627278146334
0.04122636555577628
0.041493851981358604
0.04166367081925273
0.04172282277140767
0.04173233883804642
0.041879901457577945
0.04233741939766333
0.04295762353925966
0.04337657596101053
0.043490308271721005
0.04339817115804181
0.0433131268050056
0.043688773933099584
0.044434662454295906
0.04522390316822566
0.045742817458231
0.045833768045995385
0.04578501968178898
0.045687816629651934
0.04566518815583549
0.045830420460551975
0.04611107319477014
0.04640760405221954
0.04665620782296173
0.046789733773330226
0.04681892121443525
0.04681519926758483
0.04678821597481146
0.046776691253762694
0.046734683187678455
0.04653687303303741
0.04631820644368417
0.046366881468566136
0.04658064939198084
0.04668600181816146
0.046617036141688
0.046540914858924226
0.04659176695509814
0.04678585837478749
0.04711728149326518
0.04759375509340316
0.04791166229173541
0.04792465854436159
0.04799992215121165
0.048364803518634286
0.04857999671366997
0.04860113657778129
0.048508704035775736
0.04841727940947749
0.04843599574058317
0.048425108530791475
0.04827292917179875
0.04805297100567259
0.04813387794769369
0.048349609004799274
0.048577578746480866
0.04875586148933508
0.048832838599337264
0.04886104403762147
0.048912609490798786
0.04886092707631178
0.04885268484475091
0.048815099614439535
0.04876645319978706
0.048877375565934925
0.049156533783534545
0.04930371431750245
0.04940924916183576
0.049440753847593444
0.049379117503995075
0.04924317914410494
0.049079489902360364
0.04890989717910998
0.04869419512571767
0.048436224748147655
0.04821936381864361
0.04804311480256729
0.048013837232720104
0.048162509638350455
0.04825789068941958
0.048153249844908715
0.04806775521486997
0.048044955151854085
0.048075821872334924
0.04809232780942693
0.04805873663164675
0.04800570547580719
0.048000486965756865
0.04808605878730304
0.04815777132054791
0.04789287516963668
0.047511457112850625
0.0471836520684883
0.04714171280618757
0.047208599561126906
0.04702402679133229
0.04674795171013102
0.04673694917233661
0.046750900502083824
0.0468395968421828
0.047111878816504034
0.04746535456855781
0.047635398723650725
0.04743213638314046
0.04745602593757212
0.048115235986188054
0.048905006054556
0.04963120093918406
0.050210377845214677
0.05032294666627422
0.05018469823407941
0.05015218888409436
0.05023861027671955
0.05028474514721893
0.05024434415041469
0.05012996647506952
0.04995458155171946
0.049476037258282306
0.04910378588363528
0.04905425999197178
0.04923981692059897
0.04957780472585
0.05013089066138491
0.05071152077289298
0.05076361614395864
0.051433800756931304
0.05227409996557981
0.052702890023356305
0.05273391564493068
0.05267846427042969
0.05263204716145992
0.05279746611486189
0.05322946826694533
0.05354955486720428
0.05364398195408285
0.053655856114346534
0.053671197446528825
0.05374513097922318
0.05379040049389005
0.053561217132955787
0.05285956793697551
0.05195569806732237
0.05119859310681932
0.05079213575343602
0.0508368569391314
0.05023187451646663
0.049034940600395205
0.04764674812206067
0.04678581037907861
0.04697916203760542
0.04705096607445739
0.04686286715441383
0.046544770865002645
0.04618625718750991
0.04584630047669634
0.045530697506619616
0.045279278293019164
0.04528956105001271
0.04527431024704129
0.045154646347509694
0.044972384584834796
0.04478734922595322
0.04469938804395497
0.044676003308268264
0.04449399953475222
0.04429660541936755
0.0440938960830681
0.04388047761982307
0.04368610962177627
0.043527878953609614
0.04349202268989757
0.04374716768274084
0.044268799964338544
0.044740060514304784
0.044891438765916974
0.044989876779727635
0.045070593015989285
0.045018160986946894
0.04500004101311788
0.045218814922263845
0.045488268112530934
0.04556586371036246
0.04568157646106556
0.045621459553949535
0.04607540165539831
0.04681295096757822
0.047253753235563634
0.047282847432652486
0.04726273083710111
0.047190218633040786
0.04709810225991532
0.04701191955246031
0.04700604030163959
0.04713814481976442
0.04739073746488429
0.04772013778798282
0.04805648919427767
0.04833169526653364
0.04856149149825797
0.04857189359841868
0.04841984440805391
0.04821429406176321
0.048086268281331286
0.048083125287666915
0.04808543521678075
0.047926084827631714
0.04753238707780838
0.04707413367810659
0.046828405384439976
0.04684596759965643
0.04707694911747239
0.04733657636563294
0.047108498867601156
0.04642080102232285
0.04559992638067342
0.04519100066972896
0.04523888227296993
0.04540806805132888
0.04578714677714743
0.04633757990784943
0.0466903023829218
0.04664326145546511
0.046261387800332156
0.046025955980876464
0.04598117516376078
0.04611114562954754
0.04627948010689579
0.04641306913807057
0.0465772083750926
0.046745932993944736
0.04719918871298432
0.048081774136517194
0.049225991322891786
0.050350821637548504
0.050884604647289965
0.05126798357348889
0.052609042756957936
0.05441495457082055
0.056347992906812576
0.0580212450446561
0.0590018460189458
0.059022203595377506
0.05952655631350354
0.06071804235456511
0.06146162235294469
0.06161839481675997
0.061520101208006966
0.06160587070393376
0.061879253347869964
0.06204928110935725
0.0618635018938221
0.062183985796291384
0.06324746460537427
0.06434405246633106
0.06503600087948143
0.06506038867635652
0.06506891590543092
0.06569945810362697
0.06656879068235867
0.06725552372285165
0.06786748962942511
0.06820474312407895
0.06813888023840263
0.06817406207788736
0.06820548431016504
0.06817513549467549
0.06846292892238125
0.06927192883566022
0.0701331079180818
0.07043474741163663
0.07062932352419012
0.07112336283782497
0.07215266922721639
0.07360600391286426
0.0745927061000839
0.07457633782294579
0.07522256974247284
0.07605412776349113
0.07684896934777498
0.07736935338005424
0.07749190959264524
0.07748081202385947
0.07754081932595
0.0778450960747432
0.07800450444337911
0.07801595896598883
0.07792234600172378
0.077803483143216
0.07780224015819841
0.07784217403037473
0.07797452222672291
0.0783455907437019
0.0786431756708771
0.0785810973297339
0.07894671029993333
0.07952936287852935
0.08005676819244399
0.08038020282401703
0.08037547419546172
0.08004013248020783
0.07979684649733826
0.07946118821157143
0.07918720647809095
0.07908150345669128
0.07889785713981837
0.07842004778794945
0.07775639365310781
0.07704283176921307
0.07648948515765369
0.07632692835759372
0.07653131853439846
0.07678713008994237
0.07687875056057238
0.0768909984244965
0.07691136382287368
0.07684760903939605
0.07685047291801311
0.07697837360086851
0.07678814873681404
0.07634526691865176
0.07596238591358997
0.07562629207619466
0.07502337258774787
0.07423218014999293
0.07399118905887007
0.07331649674219079
0.07216681602410972
0.07129461995442397
0.07086571437306702
0.07061817306210287
0.07056757539277897
0.07047724373405799
0.0701227994367946
0.0698031231155619
0.06980785981053486
0.070129101308994
0.07050987674389035
0.07069931552745402
0.0708093946846202
0.07094834627700038
0.07115834091673605
0.07130500918021426
0.07143536366871558
0.071610688486835
0.07175830632331781
0.07179453960270621
0.0719341629371047
0.07225591068388894
