9.973614244461059
10.08215410709381
10.187538962364197
10.197703518867492
10.129776751995086
10.038006885051727
9.957592060565949
9.911935031414032
9.870814914703368
9.798356308937073
9.722416260242461
9.648099434375762
9.555427041053772
9.49640599012375
9.509346926212311
9.51603511095047
9.448924720287323
9.375526101589204
9.398319416046142
9.485285568237305
9.507504255771638
9.456892197132111
9.451822044849395
9.505596561431885
9.504127979278564
9.39316605091095
9.238932507038117
9.139011991024017
9.110712864398955
9.104031579494476
9.110656950473786
9.160899922847747
9.252339141368866
9.323316617012024
9.328956859111786
9.343726544380187
9.430382499694824
9.507763743400574
9.489320359230042
9.396860039234161
9.342069642543793
9.410192451477052
9.543673467636108
9.65843350172043
9.737415742874145
9.752980160713197
9.704124281406402
9.656208553314208
9.644346630573272
9.634560356140137
9.584161412715911
9.51493952035904
9.49815540075302
9.543658487796783
9.58734977722168
9.594389708042145
9.577578303813935
9.566644918918609
9.614002017974853
9.697881462574005
9.679271893501282
9.533589916229248
9.418290135860444
9.379620118141174
9.297103199958801
9.161512358188629
9.105319271087646
9.154716820716859
9.17500949382782
9.088735296726227
9.003835980892182
9.023910884857179
9.075982012748717
9.100418486595153
9.154838645458222
9.21097270488739
9.214175748825074
9.258070788383485
9.391497461795806
9.509522833824157
9.561789572238922
9.603095691204071
9.654885303974151
9.693926274776459
9.699698424339294
9.666236028671264
9.661351897716521
9.763782093524933
9.911438965797425
9.981932706832886
9.926921966075897
9.776377069950104
9.607348220348358
9.446921219825745
9.305363945960998
9.276209208965302
9.356615662574768
9.39357749223709
9.360625126361846
9.374296147823333
9.472520809173584
9.57747423171997
9.583001110553742
9.491107435226441
9.45083692073822
9.531111323833466
9.606039273738862
9.570113136768342
9.458920381069184
9.357896699905396
9.345730695724487
9.413960597515107
9.459832072257996
9.494840760231018
9.634350099563598
9.837495384216309
9.981858494281768
10.082632014751434
10.176336569786072
10.22492707490921
10.2361940741539
10.278576247692108
10.387285251617431
10.510074236392974
10.576562871932984
10.602182261943817
10.589104928970336
10.470718295574189
10.29358193397522
10.20017201423645
10.190938639640809
10.131581110954285
9.965985589027405
9.774697699546813
9.655834562778473
9.639183630943299
9.678458065986634
9.68440190076828
9.616061344146729
9.549049756526948
9.608416674137116
9.793628623485565
9.944732766151429
9.956106977462769
9.881813821792603
9.795582134723663
9.697984795570374
9.558868808746338
9.391775276660919
9.276771140098571
9.24197669506073
9.199952144622802
9.116493396759033
9.056237289905548
9.03051069021225
9.024224364757538
9.086743052005767
9.214184572696686
9.304064345359802
9.343620097637176
9.420324037075043
9.5513206076622
9.700452420711517
9.821519713401795
9.845602278709412
9.76438426733017
9.636600761413574
9.518350620269775
9.45172236442566
9.448605449199677
9.482190277576446
9.497055253982545
9.451428129673005
9.359641621112823
9.257284672260285
9.1894123339653
9.20360817193985
9.279756217002868
9.333266673088074
9.303829061985017
9.2395729637146
9.293310520648957
9.525629489421844
9.785818424224853
9.92954838514328
9.96438047170639
9.91595447063446
9.80327453136444
9.718194482326508
9.705283513069153
9.65351336479187
9.47528790950775
9.263119256496429
9.14438730955124
9.11866338968277
9.121940107345582
9.157609322071075
9.280437071323394
9.454470868110656
9.55413549900055
9.55681942462921
9.575690765380859
9.65912384033203
9.707030341625213
9.645204257965087
9.548829157352447
9.488710713386535
9.429851615428925
9.367442984580993
9.334226369857788
9.295919861793518
9.224764001369476
9.15114158630371
9.083289511203766
9.00742789030075
8.95508190393448
8.983261206150054
9.07310709476471
9.137536716461181
9.135004432201386
9.079252817630767
9.007316279411317
8.947544558048248
8.869417276382446
8.768603520393372
8.725590827465057
8.765795164108276
8.83482085466385
8.917408461570739
8.99648686170578
9.011123139858245
8.950840408802032
8.883157675266267
8.868386001586915
8.896391050815582
8.939830222129821
8.982118756771088
9.005232014656066
9.043331625461578
9.11481380224228
9.168248598575593
9.23587913274765
9.386506497859955
9.506989035606384
9.432269697189332
9.293590531349182
9.049868686199188
8.813163146972656
8.694398117065429
9.009223334789276
10.208945860862732
12.2027561211586
13.898113069534302
14.204932811260223
14.9496182346344
15.904833352565765
16.527526712417604
17.661884937286377
20.230997459888457
23.525188512802124
25.896933875083924
26.770168068408967
26.86053238630295
26.941336700916292
27.441658473014833
28.65130085706711
30.208068587779998
31.05226304292679
30.925347652435303
31.603537616729735
32.29622312068939
32.59915340900421
32.55072554588318
32.39505285978317
32.36454445362091
32.518240756988526
32.76756907939911
32.99297589302063
33.11113042354584
33.18068196773529
33.328506278991696
33.517668251991275
33.59269781589508
33.46504672527313
33.221011910438534
33.06949696779251
32.95852887392044
32.98202535867691
33.122644531726834
33.30660687208176
33.54268722057343
33.76861488819122
33.89722083806991
34.027929122447965
34.278131980896
34.46050369024277
34.62467086315155
34.71871176481247
34.673039541244506
34.19927892923355
32.845229837894436
30.642227334976198
28.74060299873352
28.404774556159975
27.74030330657959
26.84286766052246
26.23258607149124
25.16802640914917
22.80110179901123
19.768738119602205
17.620156638622284
16.98293092250824
17.197339825630188
17.364441480636597
16.939022619724273
15.688579297065735
14.029130966663361
13.006550199985504
12.934518353939056
12.11599535226822
11.330007679462433
10.939207310676574
10.868837785720824
10.965636785030364
11.00481206893921
10.821184525489807
10.510272703170777
10.342693355083465
10.436886744499207
10.652723796367646
10.762594962120057
10.67830198764801
10.574991884231567
10.700914652347565
10.976238584518432
11.064590697288514
11.035755493640899
10.920860209465026
10.716541533470155
10.384317331314087
10.002494347095489
9.71803258895874
9.407830121517181
9.230885355472564
9.181894919872285
9.293584184646607
9.54706728219986
9.90834708213806
10.335574567317963
10.732807123661042
11.124013600349427
11.734029643535614
12.568036162853241
13.27821581363678
13.68494017124176
13.78223271369934
13.645279705524445
13.423927519321442
13.223202288150787
13.243037269115447
13.65611861228943
14.235900928974152
14.636529743671417
14.821259708404542
14.842392513751983
14.780728573799133
15.079318308830262
15.524974851608276
15.97006548166275
16.54032494544983
17.33161164045334
17.945326538085936
18.057006492614747
17.9576309132576
18.109235162734986
18.38249487876892
18.375683379173278
18.221873018741608
17.815789964199066
17.426667561531065
17.11034381389618
16.966488089561462
16.952628967761992
16.94549537181854
16.97006989479065
17.11670363664627
17.37991150379181
17.655329387187958
17.844063348770142
18.024698107242585
18.27715405702591
18.51076387643814
18.74642097234726
18.77636922121048
18.677775831222533
18.450848867893217
18.09507297515869
17.67437375545502
17.286129593849182
17.009566514492036
16.75647701740265
16.280875008106232
15.502238187789917
14.695989415645599
14.222384552955628
14.164234793186187
14.354861755371093
14.573797087669373
14.702395215034485
14.549033396244049
13.998874940872192
13.292466011047363
12.711254422664643
12.31061882019043
12.142090213298797
12.194785025119781
12.087495691776276
12.002359540462495
11.847420227527618
11.335778698921203
10.538642246723175
9.993946204185486
9.95612024784088
9.944370412826538
9.66437933921814
9.419867758750916
9.599818513393402
9.784822163581849
10.001824815273284
10.110109889507294
10.221542658805847
10.42782618522644
10.73402995109558
10.876298429965972
10.571224508285523
10.640124068260192
10.612464127540589
10.262112448215484
10.106085996627808
10.00076390504837
9.901858251094819
9.851177356243134
9.953477861881256
10.297262041568755
10.899167256355286
11.635634088516236
12.20277809381485
12.398729965686798
12.380927648544311
12.373839139938354
12.361096868515014
12.280406374931335
12.206948730945587
12.19046386241913
12.12448682308197
12.064710865020752
11.991384372711181
11.798022124767304
11.865168569087983
11.964229855537415
11.975149991512298
11.975878555774688
12.025578649044038
11.999285757541656
12.129368493556976
13.033689768314362
14.819984607696533
17.084430422782898
18.928529171943666
19.673351464271544
20.05611125946045
21.069855284690856
22.673201677799224
25.440415456295014
29.258299033641816
33.06695395231247
35.7816983127594
37.29899616003036
37.99428860425949
38.154979493618015
37.9067631149292
37.78625079154968
37.605736508369446
37.597313969135286
38.05101070165634
38.01307016134262
37.88084662437439
38.00690864801407
37.97081881999969
37.815875692367555
37.719983286857605
37.500197751522066
37.247115285396575
36.98238328933716
36.58582447528839
36.103056049346925
35.79964051246643
35.82802169084549
36.00652005672455
36.121502990722654
36.16998114585876
36.16755978107452
36.298792822360994
36.645525114536284
37.077575125694274
37.42488211631775
37.7064904999733
37.99537517547608
37.96901596784592
38.014699456691744
38.2197126865387
38.27473615884781
38.065245959758755
37.90281047821045
37.65543246030808
36.61453608989716
34.551585881710054
31.921009211540223
29.83638894557953
29.009354643821716
28.753838028907776
27.824713160991667
26.162504103183746
23.393870975971222
19.726466302871703
16.180458700656892
13.686667606830596
12.421269142627716
11.991991002559661
12.026031465530396
12.446847445964814
12.651528224945068
12.648512778282166
12.377938277721405
11.945326223373414
11.600378642082214
11.537386627197266
11.829175763130188
12.470388386249542
13.281843304634094
13.698586270809173
13.781402041912079
13.863485577106475
14.272567057609558
15.114245564937592
15.999889369010925
16.53415602684021
16.812765452861786
16.99822540283203
16.933260266780852
16.854696333408356
16.915964546203615
16.9403306388855
16.960427131652832
16.84009463071823
16.709458198547363
16.744181847572328
16.97133403778076
17.360072898864747
17.763502914905548
17.929659521579744
17.77952034950256
17.892819654941558
18.182022681236266
18.295562307834626
18.511227943897246
18.872392463684083
18.978215520381926
18.961849398612976
18.940905163288118
19.246383016109466
19.82407483100891
20.277257664203646
20.32853669881821
20.529550786018373
20.35551010608673
19.873012840747833
19.426752154827117
19.06195898771286
18.738392577171325
18.800399672985076
18.99708735704422
19.243666608333587
19.635431511402132
20.070695290565492
20.348034191131593
20.278053405284883
19.98160135984421
19.355761885643005
18.548952820301057
18.28423986673355
18.523450870513916
18.68588682413101
18.266790883541105
17.164881162643432
16.009628176689148
15.327797389030456
14.92019062280655
14.525195550918578
14.395699157714844
14.345904326438903
14.382844195365905
14.563439676761627
14.61496973514557
14.61780484199524
14.411325659751892
13.95879319190979
13.480886209011079
12.909516723155976
12.267999770641326
12.2480535697937
12.993423001766205
13.771054399013519
14.195032551288605
14.126621441841126
14.3745307803154
14.360588088035584
14.394232459068299
14.959118683338165
16.45393658876419
18.03827699661255
19.201548504829407
20.239442346096038
21.558053007125853
22.418004925251008
23.015673587322237
23.31238821744919
23.2670964217186
23.466922371387483
24.003088421821595
24.349906702041626
24.374918608665467
23.839232714176177
24.210318439006805
24.861364662647247
25.038482038974763
25.496828293800355
26.42268123626709
27.16910586357117
27.55284484386444
27.512393746376038
27.523982656002044
27.63313771724701
27.49883130311966
27.92022165775299
28.811366844177247
29.999621772766112
31.59064207315445
33.36506589889527
34.74111210823059
35.576382551193234
36.04642099380493
36.06972181558609
35.89614803075791
36.348692960739136
37.04301343441009
37.663402132987976
38.15250310897827
38.67469569444656
39.13718200206757
38.966703031063076
38.23132224798203
37.27286221265793
36.70955301523209
36.868178193569186
36.55377106666565
36.2724516749382
36.19193437576294
35.78446023225784
34.57161654472351
32.75882802009583
31.037072508335115
29.788596980571747
28.871933887004854
28.1415624499321
27.704654097557068
27.68566425323486
28.007775168418885
28.10883191347122
27.955566668510436
27.71078630924225
27.690176577568053
28.233349902629854
27.862298381328582
27.233933877944946
27.10445664167404
26.74345473766327
25.807403869628907
25.093181807994842
24.80585522890091
24.598131628036498
24.259442689418794
23.86494619846344
23.84414028406143
23.34962624549866
22.50652500152588
21.26836843252182
19.55556274175644
17.944177041053774
16.871986198425294
16.59903027296066
16.83767153739929
17.128945004940032
16.920035536289216
16.8353334569931
16.798878457546234
16.402467212677003
16.221011316776277
16.286296908855437
16.342137937545775
16.390953834056855
16.326090321540832
16.84107189655304
18.223288984298705
20.425884230136873
22.840233261585237
25.002523565292357
26.7390936088562
27.73351733446121
27.70473782539368
28.106999418735505
28.714190011024474
28.772053821086885
28.49647511482239
28.529115450382232
28.7300847697258
28.71574999332428
28.618932802677154
28.972940964698793
29.615283863544462
30.315896217823028
30.771722609996797
30.748939867019654
30.360098028182982
29.886636669635774
29.694521396160127
29.775439429283143
29.654563958644868
29.560958633422853
30.44629643201828
32.30820627212525
34.10414531707764
35.37561959981918
36.318970861434934
37.18220301866531
37.6831120300293
38.0188254404068
38.497482132911685
38.920990521907804
39.157924971580506
38.924700877666474
38.32298873662948
37.923969144821164
38.09641204833984
37.45989981174469
36.70307089328766
36.736737747192386
36.7908608341217
36.68079021692276
36.63845673799515
36.57973701953888
36.60453172922134
36.107359676361085
34.70337779045105
32.41607327222824
29.93260798215866
27.958236980438233
26.359641206264495
25.25947547674179
25.123630819320677
24.74654710531235
24.28292750120163
24.214444742202758
24.19999748468399
23.708006637096403
23.20013169288635
23.04831063270569
22.83071083307266
22.1474538564682
21.06846097230911
19.804693915843963
18.73518986940384
18.27150591135025
18.372461080551147
18.71753736972809
19.02523815870285
19.27514840841293
19.708190863132476
20.038894019126893
19.487178959846496
18.048791399002074
16.52137138366699
15.367834692001344
14.477191424369812
13.769843907356263
13.277179734706879
12.8586798286438
12.425861473083495
11.948355267047882
11.464420208930969
11.082733137607574
10.796342964172362
10.672567539215088
10.83372680425644
11.35107633113861
11.942916734218597
12.234202153682709
12.27427706003189
12.139421684741974
12.018651015758515
12.106085498332977
12.245816020965576
12.225785138607025
12.185620546340942
12.074324464797973
12.036937034130096
11.802947528362274
11.698677234649658
11.9100528216362
12.133751916885377
11.97647866010666
12.0537251496315
12.082594475746156
12.117922813892365
12.338874263763428
12.390327305793763
12.4691370344162
12.773468384742737
12.697756109237671
13.119461510181427
13.75632559776306
14.361604733467102
14.933260526657104
15.653946938514709
16.576099915504457
17.258528656959534
17.21756320953369
16.993009159564973
16.838283729553222
16.451410717964173
16.280762989521026
16.15614135026932
16.034939689636232
15.950643746852874
15.979190678596497
16.064048557281495
16.01063068151474
16.282730736732482
16.751633632183076
17.522088692188262
18.44888694524765
19.052542097568512
18.98520631790161
18.920896534919738
18.9219939661026
19.02563295841217
18.82726044178009
18.877204790115357
19.850741462707518
20.969098002910613
21.659443700313567
21.90621673107147
22.37409252882004
24.265338675975798
27.26521346092224
29.833749887943267
31.450131015777586
32.6698942232132
33.68403975725174
34.13778241634369
34.52203800439835
35.329036490917204
36.840033161640164
37.73879946231842
37.50749533653259
37.96226550340653
38.77687149763107
39.955504117012026
41.31562329053879
41.6528666305542
41.58714471578598
41.510010986328126
40.980346269607544
40.33434681415558
39.30703987836838
38.29916002035141
38.04255381584167
37.99814462184906
38.196084282398225
38.77838438510895
39.282659657001496
39.65615615367889
39.86357290029526
40.21507050037384
40.758176205158236
41.332383902072905
42.070946311950685
42.42011787176132
42.335513393878934
41.605872111320494
40.82762130737305
40.55436264514923
40.89057347297668
40.916550011634826
40.53198615789413
40.150551319122314
40.49721296072006
40.83295126438141
40.36618595600128
39.74540957450867
38.78001457452774
39.66747537851334
41.63044153451919
41.81575563192368
39.89342123270035
37.46290073633194
35.82075526237488
34.500248432159424
33.47938203573227
33.834754464626315
34.8430655002594
34.84531370639801
33.98558378458023
33.506408650875095
33.731210470199585
34.35881701469421
34.654163134098056
33.72129467010498
32.47344877958298
32.46959136962891
33.53644393205643
34.24037843465805
34.476036982536314
34.96659169435501
36.64263261556626
38.61290321350098
40.31653435945511
42.254397637844086
43.510870370864865
43.41687208890915
42.8864586353302
42.93781393527985
43.775927100181576
44.73654073238373
45.131728115081785
45.28851871967316
45.67053647756577
45.88549295425415
45.593620104789736
45.44786606550217
45.65192665576935
45.89768674135208
45.71430321216583
45.515000076293944
46.384751522541045
48.37235829114914
50.68074054956436
53.377804243564604
56.74813913106918
59.655027551651
60.72379749774933
61.34450646877289
62.77291231155395
64.89717817783355
68.31439363479615
72.915915453434
77.12519174575806
80.02209882974624
82.21428006410599
83.83872255325318
83.99004825592041
83.26766143083573
82.78154114961625
84.14039495706558
87.32934916734695
88.19411690950393
87.00392700195313
86.67748249530793
86.7773167181015
87.20270785808563
87.56421457529068
87.66920300960541
87.87805801153183
87.91036708831787
87.20646223068238
86.13830051898957
85.04512366294861
83.77955443620682
82.8263373208046
82.7386167883873
82.81584100961685
82.59257497787476
81.94717093706132
80.91045138120651
79.79087020158768
79.09308302164078
78.16173606157302
77.51397728204728
77.94328461885452
78.12023881912232
78.6962871837616
79.46313163518906
79.92096760511399
79.84902759552001
78.77964792251586
76.46506631135941
73.59286053419113
70.30096529245377
66.42788398504257
63.332331001758575
63.07664889574051
61.542065126895906
58.58210252046585
56.713993697166444
55.05500201463699
52.12122377872467
48.358845195770265
45.939301457405094
44.91044636487961
44.70968406200409
46.072452011108396
47.57697072982788
47.57167557477951
48.7235463643074
49.59355816364288
51.43416035890579
53.611366171836856
53.489105050563815
55.10624353408814
55.71154439926148
54.451290802955626
53.84921437740326
55.71145433187485
58.47859100818634
60.91940756320953
62.63830176115036
63.474714813232424
63.49426911115646
62.96501317501068
63.074196650981904
64.15210887908935
65.41491117238998
66.18576276302338
66.37892317056657
66.38075111627579
66.12563203573227
66.45810552597045
67.2023008131981
67.68474283695221
68.56312181472778
68.56824263572693
68.2260188627243
68.56502556085587
69.25242382049561
69.4398209953308
69.61837810993194
69.86054568767548
69.96895286798477
70.01186444044113
69.96441172122955
69.88344923019409
70.40082671165466
70.4294106721878
68.78504772663116
66.45718272686004
64.90119094610215
64.6087680029869
64.08855084180831
62.79870997428894
60.64315385341644
58.08819831132889
56.39206894397736
55.99680279254913
52.96930616140366
48.7635090970993
44.92480259180069
42.89479991912842
43.27765230894089
41.92186118841171
40.41741221666336
40.05845679998398
40.042735738754274
38.490945103168485
35.51105034589767
32.20583287000656
29.842938237190246
28.646119558811186
28.051683316230775
27.834972450733186
27.5674845290184
26.64488481760025
25.37337049007416
24.28495767593384
23.829398036003113
23.975976049900055
24.068938617706298
23.696561193466188
23.09291674375534
22.448301577568053
21.954753122329713
21.678696119785307
21.498983016014098
21.277974829673767
21.097847468852997
21.24466794490814
21.241776442527772
20.953923206329346
20.56719911336899
20.2093954372406
19.830890572071077
19.418721787929535
18.864473168849944
18.242247622013092
17.822924826145172
17.69072198152542
17.815872106552124
18.140300257205965
18.328421461582185
18.583058018684387
19.09661516904831
19.562344415187837
20.050563712120056
20.886442544460298
22.14285863876343
24.023270769119264
25.90207219839096
26.182989728450774
27.224896049499513
29.56130842924118
31.424619948863985
31.419561405181884
31.356524419784545
31.12099896192551
31.311028027534483
32.2447940993309
33.047558143138886
33.91281798362732
36.140198431015016
39.329101052284244
41.24709518194199
41.498166584968565
41.30443190336227
41.76186839818954
42.45353751420975
42.899365849494934
43.16894643545151
43.41240436553955
43.575526781082154
43.72877635478974
43.78985156059265
43.574389095306394
43.04189040899277
42.515048468112944
42.3120445895195
42.300647008419034
42.20298818826675
42.09440121650696
42.22377475261688
42.28827909231186
42.27336606740951
42.29679394960404
42.459579565525054
42.634749250411986
42.70991969823837
42.80611282348633
42.88412739038468
42.735336606502536
42.60298148155212
42.21097776412964
41.358300857543945
40.50014611721039
39.76666732549668
39.02795752763748
37.79853642702103
35.82931655168533
33.992393548488614
33.7695453453064
32.58400044202804
29.9969744682312
27.95050177335739
27.741676840782166
27.383702251911163
27.16354372739792
26.75408978462219
25.724705328941344
24.735518169403075
23.639591219425203
21.274850606918335
18.096742477416992
15.880451927185058
15.259212327003478
15.34529731273651
14.994493944644928
14.286722905635834
13.79243885755539
13.601379914283752
13.43052099943161
13.142711689472199
12.91703842163086
12.91098519563675
13.133928580284119
13.552235164642333
13.9869895529747
14.236132776737213
14.37488951921463
14.588035821914673
14.802634196281433
14.795826971530914
14.6053968501091
14.3038658618927
13.879778325557709
13.4392022895813
13.094690735340118
12.7952747964859
12.464821510314941
12.135393309593201
11.843820157051086
11.954584181308746
12.217633521556854
12.481633594036103
12.761259467601777
13.046129727363587
13.2545046043396
13.5525772023201
14.005059351921082
14.38044416666031
14.539498112201692
14.613716433048248
14.715481677055358
14.77384383916855
14.691145524978637
14.475599458217621
14.219418048858643
14.02846260547638
13.865467543601989
13.796917538642884
13.865450172424316
13.85176742553711
14.07920006275177
14.710952484607697
15.357573149204255
15.566144683361053
15.399206919670105
15.425835576057434
15.388488290309907
15.459521968364715
15.421757349967956
15.148323690891266
14.787609717845918
14.211459031105042
13.578151462078095
13.023648953437805
12.58562464952469
12.32527791261673
12.285627672672272
12.388064618110656
12.443081495761872
12.335111536979674
12.545703222751618
12.98654613494873
13.620546715259552
14.318733549118042
14.94552404165268
15.477446868419648
15.932621049880982
16.25357100248337
16.291356561183928
16.595121426582338
17.110168046951294
17.780844342708587
18.663146646022795
19.43893500328064
19.40950901269913
19.698809406757356
20.78292751789093
22.502237927913665
24.846597497463225
27.2299120259285
28.761560389995577
29.457886984348296
30.09828022003174
30.897904827594758
31.378524124622345
31.31904121160507
31.46624609708786
31.916379137039186
32.38918397665024
32.97148143529892
33.33064270496369
33.27935726881027
33.07015540599823
32.999385511875154
33.18756544351578
33.30649942398071
33.39919014930725
33.252308638095855
33.12247116804123
33.15620512247086
33.09041379928589
33.16124789953232
33.313613443374635
33.423907680511476
33.48761792421341
33.57840750455856
33.67209945678711
33.75430938243866
34.02828176021576
34.648777112960815
35.04603513479233
35.03375414133072
34.63654544591904
34.04843585729599
33.391415452957155
32.729853267669675
32.33800513982773
32.230176553726196
32.50256007194519
32.13204788684845
31.327049930095672
30.34796823501587
29.322588407993315
28.312614421844483
27.959702081680298
27.304708998203278
25.7688427066803
23.90306141138077
21.737322158813477
19.51373924970627
18.02801862001419
17.435586831569672
16.990536227226258
16.332873463630676
15.845318026542664
15.809288282394409
15.672783615589141
15.22796427488327
14.631772768497466
14.130087130069732
13.806090061664582
13.579078712463378
13.391589770317077
13.220746111869811
13.106280467510224
13.166402847766877
13.434011721611023
13.77478996038437
14.069028673171998
14.35835087299347
14.72348603963852
14.91946534395218
14.830366582870484
14.571931517124176
14.287154653072356
13.855574324131013
13.466616744995116
13.372787146568298
13.457352604866028
13.42094628572464
13.173726089000702
12.832611989974975
12.486922702789307
12.309663591384888
12.41402761220932
12.798520798683166
13.186779396533966
13.617640676498413
14.232098972797393
15.24285551071167
16.427668349742888
17.60753144979477
18.39264888048172
18.738746016025544
18.778589448928834
18.924209439754485
19.022548305988312
18.697071599960328
18.135643310546875
17.624983508586883
17.261982243061066
16.95057806968689
16.65567563533783
16.404076340198518
16.23550988674164
16.15967528343201
16.08976316690445
15.996119565963745
15.98035249710083
16.020563025474548
15.940455086231232
15.681841790676117
15.390583748817443
15.242525362968445
15.21310136795044
15.11139036655426
14.882873463630677
14.66422378063202
14.528307869434357
14.37771152973175
14.16184626340866
14.066338920593262
14.281826329231261
14.674178986549377
14.948171820640564
15.134491052627563
15.144044225215913
14.849093902111054
14.345898232460023
13.934580216407776
13.842981729507446
14.018384552001953
14.27066195011139
14.340044567584991
14.148981881141662
13.745928847789765
13.16695487499237
12.420554416179657
11.550691254138947
10.565540444850921
9.463217051029206
8.368411490917206
7.584737029075622
7.435835957527161
7.768290479183197
7.867530665397644
7.949545621871948
8.035198981761932
7.952357833385467
7.938935146331787
8.218337407112122
8.587789466381073
8.736562938690186
8.784661259651184
8.949214820861817
9.146112630367279
9.288429861068726
9.42529495716095
9.504473814964294
9.451624801158905
9.394994034767151
9.526419734954834
9.81855775117874
10.069743385314942
10.203947222232818
10.300980587005615
10.357234201431275
10.302648091316223
10.170387825965882
10.040048797130584
9.94427737236023
9.848352444171905
9.688514893054963
9.497459642887115
9.363089747428894
9.305254144668579
9.320497672557831
9.40841604232788
9.528458378314973
9.609882862567902
9.589832043647766
9.487588534355163
9.427889211177826
9.509956419467926
9.700345914363862
9.891448965072632
10.037361140251159
10.142472670078277
10.162902779579163
10.124418704509734
10.165049507617951
10.287879078388213
10.312442951202392
10.12119313955307
9.806075587272645
9.570245976448058
9.50389773607254
9.545180611610412
9.60670871257782
9.527736651897431
9.279816224575043
8.921864349842071
8.975297193527222
9.275300815105439
9.353586177825928
9.151619439125062
8.967516074180603
8.981391808986665
9.170919842720032
9.426710000038147
9.637286868095398
9.784777188301087
10.035352478027344
10.616800565719604
11.403327209949493
11.898688995838166
11.877912743091583
11.757844932079315
11.798826508522033
12.08244036436081
12.626702673435211
12.924259827136993
12.87850925207138
12.996342644691467
12.89300137758255
12.978613843917847
13.673774576187133
14.400717401504517
14.395334541797638
14.376775805950166
14.229529409408569
14.105629851818085
13.931002213954926
13.70002727985382
13.626263003349305
13.813778810501098
13.92791175365448
13.916311831474305
14.460024642944337
15.293150863647462
16.11889468193054
16.902311420440675
17.55944809436798
17.668005194664
18.51135809659958
20.631785757541657
23.568261959552764
26.374426107406617
28.21565158843994
28.881202781200408
29.016213715076447
29.483376333713533
29.745516412258148
29.838024504184723
29.9396187710762
30.059666335582733
30.050873351097106
29.92091645002365
29.63284322977066
29.414427604675293
29.348025178909303
29.222681019306183
28.756889238357545
27.844127576351166
26.808492646217346
26.092610037326814
25.937245767116547
25.931580493450166
25.86995444059372
25.75548060655594
25.513492226600647
25.401070115566252
25.369785137176514
25.045685312747956
25.054599013328552
25.099332625865937
24.651740090847014
23.916918210983276
23.73371476173401
23.785296192169188
24.171650795936586
24.75739234447479
25.322237672805787
25.662510447502136
25.73122384548187
25.556738262176513
25.335839047431946
25.35974901676178
25.011813049316405
24.183075375556946
23.488892059326172
22.929057850837708
22.302315826416017
22.199865970611572
21.70119294643402
20.163624024391176
17.662668461799623
15.105865454673767
13.53663477897644
13.156132698059082
13.052248873710631
12.630482015609742
12.466947946548462
12.861744060516358
13.853534393310547
15.206481437683106
16.549310116767884
17.28087998390198
17.314130110740663
18.14394607543945
19.457454957962035
21.583680200576783
25.210257148742677
29.56664158821106
32.31904826164246
32.45478715896606
33.39595767498017
33.871533818244934
33.85361162662506
33.69242820262909
33.556117701530454
33.428609466552736
33.760232610702516
35.00951033592224
37.20441696166992
39.93298018932342
42.217960872650146
43.39485615253449
43.478389925956726
43.6822949886322
44.07469529151916
44.623937258720396
45.94072117805481
48.499331746101376
51.75035171031952
54.67640865802765
56.5857520198822
57.06162288188934
56.91397295475006
57.43126702308655
58.096321849823
58.753161344528195
59.64584251403809
60.72419487476349
61.54835706233978
62.02736595153809
62.67833852291107
63.85073256015777
65.33285609722138
66.90492049694062
68.32937106609344
68.64973874568939
69.65018032550812
71.40223940372466
73.04610516548156
74.54810156345367
76.42218857288361
79.40286586761475
83.31872072696686
85.25981215000152
84.47739441394806
82.87329850196838
80.06914805412292
76.1480304479599
73.79173710346222
74.51919309616089
74.65487602710724
75.15648187637329
76.0776602268219
77.09420940876007
78.07609524726868
79.3546723985672
80.50733608722686
80.45229558944702
78.66883748054505
75.69587580680847
73.56359327793122
73.34348160743713
74.48807142734528
74.88872356414795
74.90590101242066
75.14425477027893
74.71418927669525
72.51471577644348
69.25056648254395
66.50745636940002
65.08958054065704
64.76968805789947
64.60472207069397
64.06374257087708
63.174973940849306
62.05784358978271
61.3273321056366
60.6909334564209
59.90588406085968
59.241991987228396
58.67247363090515
57.748628611564634
56.379821248054505
54.95434206008911
53.99111048221588
54.13242641925812
53.06628705978394
50.54600317955017
47.928496026992796
45.71647485256195
43.755080018043515
41.13733904838562
37.80043989181519
35.75472101211548
36.54551701068878
37.27193759441376
36.89224649429321
36.61163242340088
36.51044467926025
35.67991360664368
34.79638050556183
33.986888155937194
33.25814342021942
32.61153748035431
31.471642813682557
30.359440932273866
29.232797651290895
28.548526420593262
28.57777412891388
28.964127464294435
28.709620809555055
27.78052559375763
26.5577667760849
25.85799479484558
25.501847400665284
24.701534781455994
23.509834990501403
23.078598618507385
23.297017135620116
23.074131970405578
22.556761970520018
22.60468363761902
23.556589217185973
24.71426676750183
25.61594464302063
26.14730128765106
26.10297469139099
25.944985618591307
25.901313500404356
25.770497136116028
25.5271414232254
25.329240732192993
25.036158318519593
24.983687314987183
25.25030908584595
25.452616963386536
25.743900489807128
26.43304505825043
27.039346537590028
26.930507283210755
25.877311596870424
24.811328377723694
24.36107855796814
23.992028694152832
23.284389395713806
22.87623926639557
23.441912002563477
24.40228507041931
25.12935021877289
25.905080523490906
26.2467031955719
26.446196761131286
26.30397156715393
26.200174136161806
26.519031782150268
26.207242159843446
25.856951689720155
25.51936216831207
25.5012797164917
25.649862713813782
25.943724980354308
26.438569483757018
26.900197796821594
26.683148102760313
26.302057700157164
25.875784101486207
26.41525191307068
27.127113933563233
27.001902084350586
27.760888161659242
29.554775390625
31.11496156692505
32.10235917568207
33.30845577716828
35.178543615341184
36.80034272193909
36.939852614402774
37.4034289932251
38.14202910423279
38.71613840579987
39.1382329082489
39.37398763179779
39.511113686561586
39.15922951698303
38.52623912811279
38.52563537120819
39.36732604026795
39.98254012107849
39.58643365859985
39.21276128292084
39.80808433055878
40.49035458564758
40.76680124759674
40.607606468200686
40.09534077644348
39.38466748714447
38.633112969398496
38.030337615013124
37.5099861907959
36.71117315769195
36.84309546470642
37.2812796497345
37.81691628932953
38.15783390522003
38.60332395553589
39.35100746154785
39.81255136013031
40.142833375930785
40.22706026554108
40.354089422225954
40.427715229988095
40.150181188583375
39.688344707489016
39.89113585472107
39.824735956192015
39.69807376861572
38.884664106369016
38.434317994117734
38.87054133415222
38.46890905857086
36.912979707717895
35.0985104227066
33.249731798172
31.28473081588745
29.27119463443756
28.149378356933592
28.74726725101471
28.962324891090393
28.849836072921754
28.76821362018585
28.310477991104126
27.953631410598756
28.599307675361633
29.76049250125885
30.568228793144225
30.482222061157227
29.374193415641784
28.213766508102417
28.282402687072754
28.482405400276186
27.762008323669434
27.039083285331728
26.9602535533905
27.40274542808533
28.11972874164581
29.11917241573334
30.293428201675415
31.174731826782228
31.5842049074173
31.95159004688263
31.25586078643799
30.538160848617554
30.13762234687805
29.77489260673523
29.31191282272339
28.92009030342102
28.707680172920227
28.577748355865477
28.371229891777038
28.015866031646727
27.571653509140013
27.20855318546295
27.159384107589723
27.239704337120056
27.584025955200197
27.983281598091125
28.515436358451844
28.583645601272583
28.4538853597641
28.4935147190094
28.662680716514586
28.78798306465149
28.767084608078004
28.328950233459473
27.572850317955016
26.561787676811218
25.61976155281067
24.838103666305543
24.180167508125304
23.620616545677183
23.27341182231903
23.225317220687867
22.440174522399904
21.25785891532898
20.50625021457672
20.473685417175293
20.757813181877136
20.778694734573364
20.294232306480406
20.2538445854187
20.960394940376283
21.577942543029785
21.44462655067444
20.752840309143068
19.675354022979736
18.38721752643585
16.88421850681305
15.761729435920715
14.866430616378784
14.799581727981568
14.961903128623963
15.101876106262207
15.45884997367859
15.7251296377182
15.723432693481445
15.553303289413453
15.487606649398804
15.599645738601685
15.712709126472474
15.749644923210145
15.823940696716308
15.966726341247558
15.934567847251891
16.03031795024872
16.194808616638184
16.205255103111266
15.933704891204833
15.447232065200806
14.875821552276612
14.32032783985138
13.963946661949159
13.864823265075684
14.028583984375
14.356456732749939
14.778611311912536
15.297374739646912
15.639080176353454
15.7548015832901
15.625056972503662
15.455657033920287
15.788882441520691
15.781103739738464
15.697330594062805
15.758451824188233
15.578505477905274
15.558393058776856
16.11899829864502
16.901050724983214
17.10998097896576
16.677346816062926
16.073673815727233
16.044777455329896
16.325648674964906
16.3400013256073
16.322011919021605
16.415407290458678
16.87210567474365
17.242949109077454
17.966796402931212
18.517962884902953
19.077232875823974
19.149729685783385
18.595850191116334
18.039749794006347
17.693407549858094
17.731331520080566
17.82963004589081
17.52100516796112
17.102364430427553
16.748110709190367
16.587877111434935
16.535587821006775
16.649485111236572
16.269580059051513
15.774055242538452
15.448930172920226
15.402189855575562
15.53751518726349
15.734650530815124
15.929752550125123
16.081384053230284
16.317913269996644
16.54834825992584
16.49456307888031
16.09641785621643
15.690075187683105
15.490072317123413
15.308847980499268
15.073602108955383
15.082952756881713
14.737772679328918
14.69030279636383
14.82814296245575
14.84082354068756
14.887919883728028
14.648536539077758
13.973777089118958
13.267240996360778
13.1341255569458
13.431059551239013
13.693453769683838
13.454502954483033
13.151671776771545
13.246030921936034
13.434309778213501
13.368662467002869
13.01765179157257
12.625929951667786
12.087781147956848
11.20142765045166
10.671745820045471
10.626409993171691
10.689109721183776
10.818445329666138
11.01419988155365
10.961614718437195
10.76626250743866
10.8507075548172
11.117817902565003
11.436722512245177
11.529564752578736
11.54593198299408
11.644518165588378
11.677301206588744
11.888477191925048
12.232795205116272
12.338946866989136
12.201524538993835
12.547223782539367
13.352339134216308
14.394640526771546
15.253933482170105
15.743699836730958
16.16519896030426
16.73174684524536
16.995575017929077
16.851284985542296
17.053037672042848
17.27690365791321
17.291723432540895
17.540703959465027
17.503876037597657
17.43358636379242
17.53477957725525
17.52212643146515
17.173458132743836
16.758254985809327
16.531811575889588
16.478318195343018
16.339103937149048
15.960730395317078
15.755585618019104
15.777855877876283
15.681551542282104
15.537241554260254
15.489442958831788
15.557794680595398
15.854823002815246
16.287256779670717
16.800869355201723
16.904198064804078
16.91565047264099
17.256512117385864
17.58695098400116
17.589603419303895
17.569005784988402
17.733398990631102
17.668874430656434
17.437592611312866
17.397600860595702
17.38213822364807
17.241628708839418
17.04076208114624
17.03703040599823
16.71585916042328
16.15729535102844
15.809483060836792
15.733843941688537
15.297613167762757
14.682240228652955
14.126729626655578
13.800427494049073
13.662805104255677
13.487606015205383
13.226855268478394
13.279721932411194
13.643318114280701
13.616646914482116
13.594788708686828
13.506938381195068
13.270337200164795
13.165627374649048
13.05593677520752
12.945036225318908
12.996513419151306
13.082515959739686
13.09050274848938
13.015850100517273
12.914769344329834
12.876427474021911
13.012907991409302
13.058364367485046
13.004215755462646
13.036422762870789
12.994527435302734
13.043848700523377
13.035469765663146
12.750821790695191
12.286761960983277
11.82203404903412
11.78326630115509
11.855040183067322
11.773990936279297
11.752399387359619
12.292671766281128
13.105434370040893
13.569776153564453
13.811869950294495
13.942398557662964
13.924774889945985
13.953469052314759
14.04191089630127
14.18721052646637
14.347741560935974
14.454673957824706
14.507185053825378
14.555688261985779
14.615506930351257
14.647942771911621
14.49549557209015
13.97656732082367
13.161957697868347
12.338078684806824
11.845597500801086
11.554586338996888
11.233277254104614
10.831067605018616
10.482008347511291
10.315302782058716
10.474014163017273
10.745424580574035
10.868438186645507
10.891406717300415
10.927121195793152
11.056084418296814
11.406604590415954
11.87002511024475
12.269703121185303
12.413555388450623
12.422510666847229
12.46888780593872
12.435683097839355
12.234367322921752
12.132412147521972
12.402591576576233
12.636724963188172
12.616437211036683
12.419138760566712
12.40137583732605
12.644183568954467
12.613785037994385
12.442634291648865
12.319651494026184
12.105258803367615
11.509251608848572
10.61697027683258
9.867060589790345
9.491088852882385
9.327546286582947
9.159113626480103
8.902865509986878
8.79973081588745
8.753096985816956
9.155600471496582
9.63329158782959
9.605474410057068
10.091140627861023
10.314041886329651
10.298262934684754
10.527548079490662
10.908701477050782
11.528119077682495
12.358522009849548
13.126958460807801
13.869877967834473
14.501685075759887
14.664552335739137
14.887920899391174
15.143932127952576
14.95660858631134
14.764719052314758
14.575679941177368
14.567373075485229
14.458151755332947
14.268134756088257
13.95574486732483
13.591405572891235
13.29708737373352
13.155141158103943
13.095838165283203
13.067757663726807
13.171668047904967
13.359557647705078
13.32465491771698
13.088798489570618
12.757939119338989
12.647454614639281
12.725078825950623
12.735001392364502
12.705007743835449
12.801594076156617
12.922651920318604
12.872593235969543
12.745425248146057
12.7420294713974
12.82711477279663
12.868505835533142
12.870350613594056
12.864106483459473
12.883937602043153
13.072765483856202
13.220851311683655
13.339363737106323
13.116027269363403
13.031202311515807
13.47774311065674
13.216024141311646
13.136466341018677
13.390739283561707
13.372721467018128
13.000411357879639
12.285603084564208
11.457700257301331
10.650519185066223
9.791858773231507
9.043192162513733
8.801966543197631
8.579890513420105
8.540912623405456
8.938218698501586
9.250686564445495
9.583016157150269
9.804260096549989
10.031031856536865
10.105420870780945
10.114068994522095
10.121851253509522
10.182756390571594
10.351027431488037
10.599392738342285
10.71172935962677
10.5011190700531
10.290437211990357
10.25863757610321
10.33640908241272
10.330055766105652
10.362843008041382
10.221706495285034
10.300442390441894
10.452030258178711
10.520612449645997
10.540262713432313
10.557115712165832
10.57759202003479
10.62499710559845
10.743794322013855
10.947221884727478
11.194470944404602
11.443009552955628
11.63729838848114
11.698303713798524
11.61254385471344
11.416829099655152
11.097907395362855
10.660796670913696
10.227755727767944
10.022555894851685
9.929832253456116
9.767661156654357
9.706312637329102
9.827923827171325
9.942102088928223
9.942249879837036
10.037641787528992
10.393784894943238
11.099695391654969
12.29472548007965
13.886704535484315
15.212978119850158
15.76746621131897
15.663820633888244
15.338014011383057
15.039199719429016
14.88812708377838
14.92848515510559
14.984110045433045
14.948298139572143
14.915413918495178
14.937066679000855
14.889693632125855
14.704981756210326
14.683710560798644
14.746646094322205
14.76463854789734
14.737218332290649
14.979972319602966
15.230687398910522
15.610781545639037
15.745308351516723
15.70492287158966
15.559026308059693
15.384171981811523
15.327924823760986
15.3612526845932
15.269087824821472
14.971399230957031
14.690904655456542
14.430972065925598
14.319469304084778
14.24918002128601
14.217001848220825
14.32587423324585
14.55990068435669
14.76871388912201
14.892481908798217
15.025722126960755
15.070314593315125
14.951126627922058
14.80173719882965
14.753757033348084
14.80217010974884
14.789178671836853
14.930381879806518
14.957463998794555
14.659427876472472
14.098030300140381
13.232837047576904
11.880069017410278
10.372876930236817
9.821786856651306
10.025675773620605
10.655800647735596
11.686614122390747
12.89432240009308
13.889415011405944
14.590849108695984
14.938368105888367
14.87328073978424
14.617477612495422
14.33348916053772
14.192411913871766
14.248990263938904
14.34576997756958
14.453630528450013
14.399165263175965
14.167468919754029
13.862432608604431
13.51808618068695
13.155244765281678
12.833081769943238
12.692521924972533
12.806003794670104
13.054770226478576
13.266618957519531
13.408956456184388
13.546102318763733
13.622461581230164
13.738966431617737
13.711577129364013
13.56525797843933
13.345456094741822
13.089597625732422
12.835834913253784
12.711153240203858
12.785333642959595
12.998802843093872
13.20604926586151
13.309909286499023
13.235497407913208
12.9603146982193
12.713719844818115
12.776165246963501
12.766926245689392
12.700168108940124
12.770051441192628
12.795720539093018
12.581484112739563
12.40867371559143
12.610192370414733
12.666751141548156
12.674810862541198
12.41360152244568
11.591354012489319
10.409942011833191
9.335120286941528
8.570918684005738
8.131802034378051
8.12809302330017
8.116012740135194
8.291983842849731
8.667622776031495
9.037488570213318
9.387963972091676
9.658476181030274
9.7419721698761
9.783683137893677
9.779902186393738
9.795548386573792
9.884504141807556
9.992981457710266
10.211956510543823
10.568840675354004
10.836412620544433
10.831721682548523
10.81614278793335
11.149863338470459
11.68868604183197
11.966283211708069
11.775867371559142
12.02928837776184
12.45797257900238
12.68921799659729
12.717482447624207
12.799133644104003
12.750777821540833
12.58994917869568
12.467523965835571
12.471420316696166
12.590597705841065
12.805548648834229
13.029759821891785
13.14299582004547
13.164705953598023
13.165506629943847
13.144125247001648
13.129815192222596
13.189956769943237
13.327695713043212
13.413710780143738
13.21219606399536
12.689597597122193
12.396386966705322
12.2099080991745
12.16761709690094
12.166963343620301
12.241859922409057
12.503814611434937
12.756911854743958
13.080130400657653
13.208435192108155
13.28136173248291
13.389612274169922
13.41025396823883
13.301304454803466
13.282418117523193
13.361350321769715
13.525630712509155
13.600838584899902
13.514492211341858
13.56977469444275
13.581105680465699
13.258713006973267
12.654857568740844
12.415222191810608
12.270842247009277
11.882223658561706
11.492374062538147
11.535689806938171
12.100594811439514
12.222222232818604
12.238114442825317
12.563970332145692
13.079717383384704
13.254118328094483
13.193739190101624
13.05121452331543
12.89536461353302
12.792770485877991
12.731255970001222
12.49456967830658
12.22135491847992
12.18348325252533
12.363227071762084
12.564477858543396
12.657008528709412
12.672022805213928
12.67640589237213
12.63748791694641
12.533535733222962
12.494126930236817
12.58992154598236
12.516629996299743
12.649514904022217
12.831685724258422
12.830549206733703
12.62260826587677
12.42493676185608
12.359570150375367
12.31961567401886
12.095080556869506
11.729081087112426
11.264336547851563
10.763280606269836
10.445479164123535
10.497350482940673
10.763760476112365
11.191556663513184
11.870919432640076
12.761794023513794
13.371757621765136
13.413656115531921
13.10703432559967
13.297289113998414
13.386011719703674
13.295608191490173
13.402316641807555
13.215885305404663
13.012241730690002
12.979728093147278
12.865569067001342
12.457134861946106
12.056440887451172
11.75186032295227
11.754110083580017
12.239257974624634
13.1016201877594
13.961100397109986
14.415866751670837
14.498324394226074
14.656992464065551
14.818998789787292
14.645843319892883
14.420153951644897
14.30079158782959
14.20680389881134
14.033776602745057
13.879543323516845
13.749078311920165
13.665439138412475
13.637504415512085
13.654792098999023
13.650178871154786
13.581469430923462
13.59093276977539
13.823379025459289
14.147162861824036
14.304379677772522
14.204329166412354
14.006539950370788
14.007610902786254
14.128857641220092
14.230954055786134
14.367500596046447
14.525987935066222
14.491108884811402
14.276859722137452
13.998825716972352
13.685641145706176
13.227479610443115
12.711275148391724
12.462928442955016
12.543701605796814
12.37859576702118
12.268347644805909
12.420830564498901
12.39151373386383
12.418323655128479
12.224472141265869
11.859599914550781
11.688786120414735
11.78618595123291
11.735045647621154
11.58519781589508
11.329948897361755
10.80126992702484
9.948469305038453
9.097288036346436
8.668119349479674
8.555691022872924
8.372125616073609
8.183572840690612
8.182366766929626
8.290200185775756
8.29199872493744
8.322695369720458
8.619312753677368
9.168362731933593
10.015982475280762
11.045864806175231
11.950961561203004
12.468408017158508
12.546766667366027
12.620137848854064
12.5017884349823
12.167966780662537
11.895007557868958
11.752059979438782
11.835741300582885
11.935653824806213
11.82603048324585
11.798940525054931
11.862847909927368
11.941844940185547
11.913828072547913
11.811596779823303
11.788412013053893
11.938782634735107
12.261426653862
12.626291193962096
12.779389424324036
12.5999889087677
12.712101602554322
12.729878506660462
12.7400914144516
12.75790391921997
12.652173309326171
12.582183990478516
12.516106996536255
12.361012406349182
12.193876843452454
12.118206028938294
12.099525346755982
12.329020743370057
12.650374150276184
12.959361414909363
13.252929010391234
13.481027841567993
13.585033993721009
13.726308522224427
14.015787959098816
14.195359296798706
14.156636295318604
13.94984525680542
13.90752191543579
13.995997428894043
13.790494737625123
13.19357072353363
12.377388491630555
11.455784106254578
10.6018558883667
10.089968485832214
10.063106813430785
10.072459444999694
10.181740465164184
10.393409299850465
10.593911352157592
10.85309452533722
11.04565435409546
11.2288587141037
11.46600347995758
11.435434217453002
11.211044597625733
10.962867908477783
10.903255953788758
10.97715744972229
10.845140309333802
10.34344310760498
9.546873726844787
8.782342524528504
8.554553747177124
8.930919427871704
9.023082933425904
9.028557338714599
8.925617761611939
8.825172657966613
8.873130779266358
8.8459982919693
8.986422247886658
9.345073552131653
9.662791118621826
9.59411114692688
10.009231371879578
10.42509036540985
10.443118290901184
10.016189246177673
9.708858013153076
9.543911170959472
9.65995771408081
10.013006687164307
10.689717240333557
11.657915573120118
12.70549801826477
13.49929343700409
13.897561087608338
14.053930258750915
14.362829670906066
14.782455172538757
14.980391778945922
14.879948830604553
14.647058691978454
14.808042964935304
15.144716281890869
15.226947093009949
15.124985585212707
15.30377866268158
15.340435466766358
15.01284592151642
14.805709657669068
14.65024202823639
14.541341595649719
14.419070701599122
14.394760808944703
14.391902441978454
14.307918109893798
14.255729007720948
14.373794150352477
14.58071053504944
14.795823526382446
14.930165462493896
14.860812220573425
14.749024176597596
14.830206146240235
15.073093037605286
15.224881644248962
15.27822521686554
15.456498289108277
15.76545307636261
15.744012045860291
15.430000524520874
15.212536969184875
15.399463772773743
15.08314076423645
14.518362979888916
14.23463285446167
14.392170782089233
14.540817394256592
14.740851941108703
14.79513458251953
14.583490419387818
13.959767398834229
13.106404781341553
12.349819073677063
11.821834101676941
11.525013732910157
11.314057145118714
10.918365879058838
10.637194890975952
10.340359907150269
10.422175307273864
10.713912482261657
10.509802374839783
10.120137748718262
9.985490694046021
10.10870216846466
9.93840693473816
9.802362408638
9.90176941871643
9.864331674575805
9.894258012771607
10.01537446975708
10.22773229598999
10.385337090492248
10.472204790115356
10.504618854522706
10.605565476417542
10.516912369728088
10.515458111763001
10.777818279266357
11.002727479934693
10.97505823612213
10.774287509918214
10.54173571586609
10.335224990844727
10.213185753822327
10.16196403503418
9.96320836544037
9.838152289390564
10.192800612449647
10.399404864311219
10.690964035987854
11.53841992855072
12.672770771980286
13.750560054779053
14.550411620140075
15.10884753704071
15.460554566383362
15.360759801864624
15.42776213645935
15.821100006103515
15.907973399162293
15.646590428352356
15.558651738166809
15.502234025001526
16.086168885231018
16.786140241622924
17.104949717521666
17.282953419685363
17.879396786689757
18.231906185150148
18.46601520061493
18.754275288581848
18.791706581115722
19.259842700958252
19.643617615699767
19.437386498451232
19.884292483329773
20.50526307582855
21.33943067550659
22.95733118057251
25.064214334487914
26.45559455871582
26.621671938896178
26.840411739349364
27.60530493736267
28.886507296562193
30.602707152366637
31.57025387763977
31.07399951457977
31.66005187511444
33.0540194606781
34.65711750984192
35.950317192077634
36.96731767177582
37.910602049827574
38.62689433574676
39.01741708755493
38.953521165847775
38.54877483844757
38.47028522968292
38.1316845703125
37.10163883686066
35.8591374206543
35.088223705291746
35.35833087921142
36.83302206993103
38.92394040584564
40.85796532154083
41.58589791297913
41.27057341098785
40.85847990989685
41.57083639144898
42.86860828876495
43.995881524086
43.50079887390137
42.99836035728455
42.843850560188294
43.03366303920746
43.61853620052338
44.7640838432312
46.44114210605621
48.82445168495178
51.84534431934357
53.792280535697934
54.51163213253021
55.42758182048797
56.26252068519592
57.06634454250336
56.96056838035584
55.36389709472656
53.086094136238096
51.848670139312745
52.047391057014465
52.3355925989151
52.38173692703247
52.11944126605987
51.58298909664154
51.41120111465454
52.34635863780975
52.54003942012787
52.40072666168213
52.01976648330688
51.578537907600406
50.968297262191776
50.15856450557709
50.20633100509644
50.74898316860199
51.29463146686554
51.303336358070375
51.49505570888519
51.95465468883514
52.289815750122074
52.28500970363617
52.345218472480774
52.19322998046875
51.742407822608946
51.194557456970216
50.63109038352966
49.92133804321289
49.63089238166809
49.672974381446835
49.040597677230835
47.77006689548492
47.01180737018585
46.926571702957155
46.90337433815002
47.29692700862884
47.27267234802246
46.589930295944214
45.43034076690674
43.52470383644104
40.83680464744568
37.81366536617279
35.38533920764923
34.0447686290741
33.34787374019623
32.3381209897995
31.09439233779907
30.188370923995972
30.309635276794435
30.918600602149965
31.43154317378998
31.700591850280762
31.50002854347229
30.71228210926056
29.598442039489747
28.644387764930727
28.42053603172302
28.602640638351442
28.566104273796082
28.59185008049011
29.133257880210877
29.55409052848816
29.049394841194154
30.544001092910765
32.32800535678864
34.2382161951065
36.53095157146454
39.208010449409485
40.85379337787628
41.140742740631104
40.91027931690216
41.562848281860354
42.094070739746094
41.90452819824219
40.196141147613524
39.20150256633759
39.05407460689545
39.5854737329483
39.80253499507904
39.92103876590729
40.17658511161804
40.36733566761017
39.81112179756165
40.05607796669006
40.52183394908905
40.798571906089784
40.897090516090394
40.635606956481936
40.13263373851776
39.866373414993284
39.91607926368713
40.0490126657486
39.9548042011261
40.47414273262024
41.03329345703125
41.0523738861084
40.832513785362245
41.04940356254578
40.676587896347044
40.057856998443604
39.2002433347702
38.47243975162506
38.03704843044281
38.054687666893
37.98628675460815
37.750084290504454
37.0431782913208
36.07865074634552
35.11239151477814
33.81928181171417
31.999203219413758
30.763720626831056
31.15802634716034
30.191556763648986
28.518571014404298
26.734895677566527
24.928801641464233
22.880931248664854
20.970340538024903
20.763509664535523
20.89137731552124
20.60098989486694
20.090420880317687
19.398943610191345
19.42922846317291
18.30359622001648
17.129772667884826
16.506174554824828
16.3056653881073
16.121820049285887
15.763919606208802
15.314709615707397
15.451038360595703
15.400323419570922
15.108140563964843
14.66367880821228
14.350111136436462
14.301897487640382
14.396076664924621
14.556734495162964
14.886486091613769
15.554900403022765
16.574973940849304
16.477948436737062
16.481713042259216
18.063210887908937
20.247679076194764
21.460336689949035
21.921483449935913
22.254153304100036
22.74962739944458
23.225308961868286
25.560276288986206
28.10044095993042
29.48533703804016
29.630327672958373
29.632111945152282
29.75527616024017
30.48691608428955
31.600117783546448
32.42473805904388
32.26778117656708
32.08049712657928
31.76056550979614
32.2688805437088
33.52671476840973
35.47746883869171
37.94256179332733
39.93932250022888
39.73369671344757
40.17616352558136
40.83096096038818
41.40298027992249
42.32705763339996
43.48562795639038
44.67509573936462
45.070814323425296
44.88018696308136
45.353363304138185
46.00459135055542
46.51781686782837
47.05612373352051
47.29491070270538
46.89579316616059
47.01685652256012
48.100293126106266
49.685813565254215
50.85589854240418
51.33212329864502
51.50404467105866
51.423073410987854
50.61950980186462
50.101873927116394
50.47145013332367
50.18609657764435
48.28903449058533
46.09696374416351
44.74260530471802
44.462094736099246
44.47936237812042
43.93786905288696
44.36842047691345
43.78119388580322
42.56798953056335
41.79462245941162
41.91974404811859
42.23225778102875
42.24044990539551
41.34604699611664
40.31672252655029
39.929832119941715
40.38531398296356
40.44406371593475
40.1219366645813
39.130415744781494
37.295221672058105
34.40336585521698
31.389106554985048
29.4824783372879
29.2530194234848
29.027534818649293
28.210971355438232
27.1122283411026
26.202899765968322
25.273040170669557
24.38728988647461
23.963975625038145
24.0224498462677
23.73968313217163
23.63910478591919
23.748602833747864
23.783049387931825
23.477273139953613
24.568550915718077
25.418298745155333
25.391775336265564
25.625763573646545
27.22777328968048
29.478792872428894
30.71801347732544
30.36548019886017
31.251592326164246
31.820975413322447
31.939854550361634
32.074843139648436
32.1182274723053
32.328992500305176
32.71616099834442
32.90708886623383
32.543607602119444
33.087525973320005
33.13348184108734
32.312289175987246
31.12464584827423
30.778689002990724
30.491136837005616
30.96305525779724
33.6277346277237
39.474044594764706
46.622777256965634
51.71419393062592
52.665451350212095
55.107471513748166
61.01911466598511
68.99291178226471
79.19113856315613
90.77829838275909
99.75272837638855
102.63689368247987
105.20777655601502
110.14356812000274
114.69580438137055
117.49121437549591
118.40919036388397
118.40805431365966
118.18750029563904
118.4138366651535
119.21019467353821
120.1638471031189
120.24787269592285
120.08116660118102
120.32465684890747
120.2794388628006
120.11456408500672
119.39517673015594
118.30155013561249
117.68754602909088
116.34918150901794
114.5848836183548
113.98392834186554
115.6495916223526
117.11288581848144
118.31736546039582
118.7291199541092
118.72743896484376
119.13536878585815
118.99812611103057
119.86217810153961
123.25583998680115
129.23141651153566
135.1317127275467
138.79382065296173
140.2818878221512
140.8810126209259
140.65062014579772
141.35822493076324
142.05526653289795
141.15811891078948
137.22055234909058
131.39268314361573
127.02041023254395
126.44115745067596
124.20542593955993
118.2986980342865
110.1853928232193
99.93299465656281
88.57804270744323
79.55654101848603
76.86155208587647
75.10356033802033
71.26538770198822
68.34662427425384
67.51619401931762
68.25010399341583
69.25488446712494
69.36512177467347
69.86815532207488
70.40501613616944
70.52025155067444
70.74595353126526
70.22779096603394
70.3449932718277
72.11453321933746
74.06704887866974
77.14804811954498
79.96755372524261
78.87982733249665
80.05514224529266
83.42693517684937
87.62376553535461
92.23992149829864
96.6914543056488
99.63163407802581
100.22848819732666
100.32185367107391
101.11624359130859
101.01464196205139
102.45019918441773
103.8379780960083
102.45777373313904
97.08723580360413
94.20981657981872
93.64688457012177
93.72377464294433
94.74631099224091
95.65207348823547
95.61593646526336
94.58014875888824
93.55772178173065
93.30344433307647
93.79972640991211
94.77515554904937
96.12474526882171
97.81602730751038
99.03003111362457
99.82035850048065
100.42552145004272
100.8643875360489
100.82834326267242
101.1041796207428
100.98102025032044
100.12597661018371
99.16489353179932
98.7767904138565
99.22781037330627
100.70628184795379
101.06292523860931
100.1192794084549
98.95879208564759
98.74770730018616
99.25351365566253
98.75870406627655
97.78211530208587
96.25298735618591
93.94320998191833
92.07541351318359
92.83347004413605
91.22746030807495
88.03415237903594
84.38981210708619
80.24806400299072
75.75497839450836
72.0337770318985
70.79158265590668
71.44424941539765
72.37738342285157
73.2088626909256
73.0122019481659
72.92449022769928
73.27149628162384
76.06672807693481
77.29088562488556
77.66780128479004
77.2143372297287
79.0281581068039
84.11082772254944
90.97304953575134
95.60207963466644
95.48536232948304
101.63950795650481
110.41992938995361
118.05048575878143
124.2249213886261
131.05271365165711
137.80906514644622
139.8689866924286
143.07022706508636
151.98344362735747
163.52552119731902
176.65762238025664
190.8281090068817
201.34821112155913
203.60375387668608
206.89902532100677
216.18419469356536
230.44745952129364
247.72617610931397
264.94856933116915
279.32263343811036
288.6765172958374
292.16092361450194
293.28905438899994
296.7076570224762
299.23711839675906
299.6282158613205
298.67732628822324
299.4040730047226
299.3846810770035
299.8510682964325
303.2130537843704
307.02442058086393
310.0234335851669
313.5000847816467
318.09476414680483
322.27410637378694
324.95683807373047
327.6520206260681
327.59920525074006
324.80957970619204
321.9943348503113
319.84085863113404
317.73452290058134
315.56223224639893
316.2023821973801
315.5904836273193
311.7715861511231
306.30776263237
303.5034305000305
305.4955656480789
300.4191040468216
291.42173944950105
282.32795557498935
274.7271723794937
266.92388221263883
259.47462675571444
257.1650305938721
254.33983003139497
246.40962683200837
235.7373532295227
222.05965756416322
206.64607987880706
195.61139749050142
193.45407756328584
190.04478256702424
180.5762433719635
166.56478590011596
150.06398706912995
134.10286139011384
120.86967112064362
111.79628716468811
108.35340028285981
106.9936134004593
102.94023622035981
99.85428448200226
99.17926014423371
100.07623533248902
99.25200689315795
98.90147930145264
97.77257226467133
93.39208737373352
87.97990008831025
83.06894260883331
78.1619365644455
73.35391254901886
68.7420827960968
65.06441128730773
63.11468888282776
62.6062268781662
62.68192210674286
63.08147779941559
63.7869833278656
64.28254771232605
64.22618660926818
64.1789432477951
63.225376677513125
61.847168745994566
60.96612288475037
60.333783974647524
59.24774021625519
57.86141090393066
56.7410775232315
56.54665708065033
56.54726856708527
56.20745141506195
56.05811221122742
56.75385091781616
58.181091928482054
59.37277445793152
60.131823372840884
61.55667984008789
64.17034634113311
65.62799647331238
64.50642864227295
64.4077239561081
64.20123177528382
63.83636291503906
63.95446803092957
64.52155899524689
64.93843779563903
65.05457624435425
65.11382853984833
65.11085308551789
65.22314551830291
65.14872215747833
64.71840752601624
64.32903066158295
64.45048223018647
65.0100681066513
65.48735065937042
65.48298957824707
65.0897789812088
64.67519981861115
64.81664051055908
65.09490057945251
65.05660009860992
64.270979013443
63.31752368927002
63.10822766304016
63.12520677566528
62.20636476993561
60.50270495891571
59.09873076915741
60.02982382297516
59.548934354782105
60.342169852256774
63.353885741233825
64.68406319618225
63.163936939239505
65.17094838619232
68.5869448184967
73.37133664608001
79.99335631847381
86.47925637722015
90.10818393230439
90.60665302753449
89.91718094348907
88.78844601631164
86.52343710899353
86.13789775848389
86.25806504249573
85.68246614456177
86.85832447528838
90.67749966621399
91.4981828212738
90.89111292362213
91.54939631462098
92.3582157611847
95.1230391407013
100.4995010137558
105.13904218196869
105.54542297363281
108.33178937911987
112.22008676528931
115.26467437267303
117.75073122501374
119.86230618476867
121.39952823638916
122.42648168563842
123.06212078571319
123.15067781448364
123.44787732124328
124.49572710990905
125.61273834705352
125.96774685382843
125.36691638946533
125.27117702484131
124.89530255317688
123.55513928890228
121.83042418003082
120.30322726726531
120.34053822994233
120.44269489765168
120.14514837741852
119.87175100803375
118.53144663333893
114.89843740463257
111.63878900051117
111.19053690433502
107.74545513629913
103.73569515228272
99.63011744976043
95.61572810173034
91.88254380226135
90.20112197875977
91.11931252479553
92.70571305751801
93.46676101684571
94.25194967746735
92.86108609199523
90.72486912727356
88.90466850280762
86.63079631328583
84.07589859485626
83.40606582641601
84.0637687587738
83.13517350196838
81.15936351776124
76.67219304561615
69.76710132598878
64.16461176395416
63.58939560413361
61.3072563123703
57.90873385429382
54.875775241851805
52.32142804145813
50.23427728652954
48.46462330341339
46.71354730129242
45.20594712257385
44.63969524383545
44.56201150417328
44.15330117225647
43.705649456977845
43.45465215206146
43.90278546333313
44.198606247901914
44.489114527702334
44.39277355194092
43.91994478225708
43.869708580970766
43.287293434143066
43.829545073509216
44.25471713542938
44.99825412750244
45.268872556686404
45.56767231464386
46.63280210494995
47.26537363529205
47.65502950191498
47.775587849617004
46.81109463691711
44.589569430351254
42.1845582485199
40.33734742641449
38.62623670578003
36.63753418922424
34.968693552017214
34.16592952251435
34.10562259674072
34.58271378993988
35.20173937320709
35.63162990093231
35.49134792804718
34.81648226737976
34.11910748004913
33.74467842102051
33.587608079910275
33.52179525375366
33.63268117427826
33.775275220870974
33.37269406795502
32.91554885864258
32.85709938049317
33.375364999771115
33.995780563354494
33.956848287582396
33.17123234272003
32.77060469627381
32.96798107624054
33.61347121238708
34.324115905761715
34.91596081256866
35.10374250411987
34.85918174743652
34.25850760936737
33.5461014842987
33.173311157226564
33.29676506519318
33.582801790237426
33.68241609096527
33.62520738601685
33.19739315509796
32.419881868362424
31.637254424095154
30.834583592414855
29.819595484733583
28.795432863235472
28.03504469871521
27.385638766288757
27.068356523513796
27.404041113853456
27.2544096326828
26.89854923248291
26.870696830749512
27.046158123016358
26.879053716659545
26.235456223487855
26.132710852622985
27.535174431800844
30.673081312179566
35.54537482261658
39.69795361042023
40.72669222831726
41.170731954574585
43.586536841392515
47.49538707256317
53.54781693458557
60.81073018074036
66.5793443107605
68.39967653274536
70.31746089458466
73.04002790927888
73.2036074924469
73.34323822021484
74.02237932682037
74.6032576417923
75.4161363363266
76.31537772655487
77.34058502674102
77.77011052131652
76.9160667848587
76.16649621009827
75.95471405029296
76.49563858985901
77.90070510864258
79.68027361869812
81.14047169208527
82.1192984008789
82.94318586349488
83.97616689682008
84.96896380901336
85.43529522418976
85.47349230766297
85.23786912918091
85.35578926086426
85.84198445796966
86.54496129989624
87.22237185955048
87.82287800788879
88.1193385887146
88.10442860603332
88.02046043872834
88.24092035770417
88.75155210494995
89.04439887046814
88.78874148845672
88.97802448749542
89.29438859939575
88.40812048435211
85.10086542606354
79.40412341117859
74.01074832439423
72.29085304737092
71.91278828144074
69.83222380638122
66.16950750827789
60.44312403202057
53.65341191768646
48.19124753952026
46.343578429222106
44.382047333717345
41.453391346931454
40.910243349075316
40.39958508491516
39.507922263145446
39.34213391304016
40.08089757919311
41.307844567298886
42.653627738952636
43.90582560539246
44.93276947498322
44.94625890731812
44.60915560245514
43.675464143753054
44.56739535331726
47.16495255947113
49.8025175523758
51.338891320228576
51.33055998325348
50.843535356521606
51.8152189207077
52.94172482967377
53.84497748851776
55.373211002349855
56.883018283843995
56.23608626365662
58.71295023441315
62.96370415687561
65.83728298664093
66.74156174659728
68.32210275650024
72.35652253627777
77.66033737659454
83.02329566955567
88.29131271839142
92.17334276676178
92.58050458431244
93.43805332660675
95.36324053764343
98.22813275814056
101.59776539802552
104.56769073963166
106.45148897647857
107.6447699546814
108.56004007816314
109.31903619766236
109.94038705825805
110.55696826934815
111.3168671989441
112.18261128902435
112.96678843975067
113.61577383995056
114.0066926431656
113.91369688510895
113.33642141342163
112.14840148448944
110.80540086746215
108.96489167690277
106.87301381111145
105.51797320842743
105.54677973747253
106.38958942890167
107.32999805927277
108.69108241081238
107.77506728649139
104.61764797210694
101.10937819957734
98.50448026180267
97.45569472789765
97.69178081512452
96.75870963096618
95.8088641691208
95.71352389812469
96.02995653629303
96.6266263628006
98.98180881977082
97.14879865169524
92.14395065784454
89.81754186153412
89.57048317432404
87.86897762298584
84.90142520427703
79.42383415699005
74.78376509666442
71.16535603523255
68.78564853668213
70.34407937526703
73.84967576980591
77.97518569946288
79.86570112228394
78.32529904842377
75.8546407365799
75.37751363754272
75.34387125968934
74.96844495296479
74.43603998661041
74.00297364234925
73.5080338048935
72.88973789691926
72.39187733173371
72.03930166721344
71.52023794174194
70.8624599790573
70.36810307502746
70.10684989929199
70.15398202896118
69.84168144226074
69.31615083694459
68.74442595005036
67.70929166793823
66.73938331127167
65.79771489143371
64.81960628032684
64.11671286582947
64.03751986026764
64.29684571266175
64.08235090732575
64.19258975028991
65.0082529115677
65.1838566493988
65.37465877532959
65.87314742565155
65.78455160617828
64.71099161148071
63.78085339546204
64.46588740825653
67.10984776973724
70.86660026073456
72.06594441890716
71.48091051101684
72.43034879684448
73.29747832298278
75.06602897644044
74.81897104263305
73.13863162994384
71.88231715202332
69.64603074073791
64.87899582386017
58.584709310531615
53.751331424713136
52.20852159023285
52.27578857421875
50.89386018276215
48.962315669059755
47.78951692104339
47.37138409137726
47.367341442108156
47.46885260105133
47.528711133003235
47.55412467479706
47.619504570961
47.96663419723511
48.590059976577756
49.06250280380249
49.13225417613983
49.10187761306763
49.53756484508514
50.59500171661377
52.46040056705475
54.97549368858338
56.883188652992246
58.23997208118439
59.31771402835846
59.4804012298584
58.173807582855225
58.50825109958649
60.527675552368166
61.73004598617554
60.70469901561737
60.656894760131834
60.89582315444946
61.26407068729401
62.064957146644595
62.885350823402405
62.298809504508974
59.43161960124969
55.29922606945038
52.07814319133759
53.17181376457214
59.85195363998413
66.39700973510742
68.79060059547425
68.67231100082398
68.41764602661132
68.98461141586304
75.40114838600158
86.02246786117554
94.70783241748809
98.5117724275589
100.19362174987793
102.71570506095887
104.66214770317077
105.21586394309998
109.95851474285126
115.33253253936768
119.07861753940583
121.16475693225861
121.58284844398499
122.86999150753022
128.63880678653717
134.45566898822784
135.73981077194213
138.05928131103516
142.023803730011
144.0956112909317
145.57481348991394
149.13804850578308
151.16085387706755
149.7885908126831
147.44952989578246
145.2973219060898
144.79086368083955
145.31460976600647
145.17386016368866
151.3606658267975
159.07241884231567
164.75332467556
167.1328237724304
167.5232806921005
169.46828848838805
171.3231630706787
172.63659767627715
173.96139248847962
175.65698048114777
177.73239579200745
180.12061024188995
182.57759546756745
184.47393984794616
183.38694330692292
178.4246880578995
172.81686094284058
169.78449972629548
168.49133022785188
167.29347210884094
166.51942868709565
160.76112457752228
151.44962109565733
144.18625035762787
141.93351521968842
141.85948004722596
140.87451377868652
140.52593423366545
141.60767689704895
138.2148964691162
133.09785145282746
128.80986220359802
125.40734331607818
124.66302882671356
124.6134012556076
120.31915139675141
114.89892646312714
113.19657567024231
110.42301916122436
105.66873139858245
103.42109413146973
101.87122144222259
98.4250439119339
96.4575387096405
97.0480983018875
98.11929297924041
99.43059227943421
99.4871499824524
98.33049201488495
97.76471889019012
91.51842830181121
82.29702683448791
74.07780318737031
70.15023097515106
70.11978057861329
68.48881878852845
66.62381616592407
64.36446626663208
61.47924883842468
58.2518274974823
55.47736413955688
53.54323486328125
52.1152180814743
50.85643939495087
49.60706041336059
48.22537999629974
46.91193576812744
46.2601317691803
46.41991364479065
46.94898945331573
46.43877783775329
45.325462160110476
44.05456851005554
42.81002655982971
41.6759902381897
40.73535204410553
39.60432821273804
37.77873342514038
35.65112949371338
34.307982769012455
33.71582959651947
33.66533353328705
34.31956937789917
34.13567862510681
32.72632780075073
31.378625121116638
31.158181037902832
31.487772970199586
31.58733983516693
32.22846663475037
32.77703812122345
33.19438695907593
32.66480723381042
31.9825821018219
31.36405744552612
30.751364130973815
30.010901460647585
29.314639430046082
28.831945919990538
28.508094716072083
28.68060472011566
28.720716071128845
28.97232831478119
29.230289855003356
29.522849464416502
29.005688486099242
28.352796516418458
28.425590419769286
29.180156621932984
30.143411169052126
30.624578261375426
30.224379463195802
29.27239570617676
28.656907701492308
28.93001606464386
30.161500725746155
31.59570746421814
32.742520403862
34.14710478305817
36.30928655147552
38.821873054504394
40.78528871536255
41.20019762039185
41.75717517852783
42.216899394989014
42.43811346054077
45.04552586555481
51.081791033744814
56.92609333515167
58.134882197380065
61.82667680263519
67.68125668048859
72.2627713060379
73.81357277870178
73.9217238855362
76.90529411792755
82.65865444660187
90.51081884384155
98.28752415657044
103.79752855300903
105.84073265075683
107.21123475551605
113.12841140747071
118.53532938480377
118.71570606708526
122.52426387786865
127.30667845726013
130.15660987854005
133.31630323410033
139.7707570552826
146.412490940094
147.80394383430482
152.5609006690979
160.4200057888031
167.20150551319122
171.48394069194794
173.83584593296052
175.19236393451692
175.51031667232513
175.43969442367555
178.74479597568512
183.84691535949707
187.8872758436203
189.0845975160599
187.7331226158142
186.72512525081635
186.39093829154967
186.7956363248825
186.82265370368958
185.42461588859558
182.79264983654022
181.20135353565217
181.02002613544465
181.27298942565918
181.28152760505677
180.73733218193055
177.47927157402037
171.25165143489838
165.92596929550172
165.40875081062316
162.4291638469696
156.86564186573028
151.99404046058655
149.9605635499954
149.40274516582488
145.75253499507903
139.96955607891084
132.5389389371872
125.1450961112976
119.92394028663635
118.48609033584594
118.31942306518555
114.10256411552429
110.0977825832367
111.0112850189209
107.72996397972106
102.67871446609497
99.42356250286102
96.21848832607269
89.98136638641357
83.25134845733642
81.97638329029083
77.60866597175598
69.87456609725952
62.53429677009583
57.48132950782776
54.454350242614744
52.67448499202728
52.291429514884946
52.708326473236085
50.02431353092194
45.55105352878571
41.865317220687864
40.30947358131409
40.432578477859494
39.357751035690306
37.870736818313596
36.03612097263336
34.24162806510925
33.300416913032535
33.6568359708786
33.7186060667038
33.70270331859589
32.52924072742462
31.300128774642943
30.707717108726502
30.66478406906128
30.83008599281311
30.999058442115782
31.22192828655243
31.55658808231354
31.967635049819947
32.375668807029726
32.59013404846191
32.57159257411957
32.57533818721771
31.957056593894958
31.166350450515747
30.398967237472533
29.650133967399597
28.601195888519285
27.395580034255982
26.119217171669007
24.5212251663208
22.812189002037048
21.75375946521759
21.468462843894958
21.467995705604555
21.577082285881044
22.011201610565184
22.46787296295166
22.442395725250243
21.822908248901367
21.44618221759796
21.482853331565856
21.52708516597748
21.804027853012084
21.79031958580017
21.00682349681854
19.68000681400299
18.491387524604797
17.87742434978485
17.72885142326355
17.65820128440857
17.525838928222655
17.597303500175475
17.535492386817932
17.380277733802796
17.314504432678223
17.519532136917114
17.88811604976654
18.182296619415283
18.386664237976074
18.58800666332245
18.58229109764099
18.532658171653747
18.438663420677184
18.068685822486877
17.444559926986695
16.66675000667572
15.945018320083618
15.449742350578308
15.058846616744995
14.502723684310913
14.632220726013184
14.929199957847596
15.079150280952454
15.175268621444703
15.206146955490112
15.519640116691589
16.036443438529968
16.187221751213073
15.889679536819457
15.749216890335083
16.35610869884491
17.305566992759704
18.247492599487305
19.125131058692933
20.290869603157045
21.229392795562745
21.00466416835785
21.215849595069884
22.1319633436203
23.339301180839538
25.458368906974794
28.522005076408387
31.291854519844055
32.888575382232666
33.524785256385805
34.24108497142792
35.11784995079041
35.24187783718109
35.236036028862
35.2982390832901
35.41413754940033
35.62038160800934
35.553855481147764
35.04052916526794
35.25729390144348
36.28111031532288
37.65062447071075
38.67933198928833
38.76844583034515
38.88156943798065
39.520392327308656
40.022032241821286
40.3853375339508
40.671582508087155
40.778418803215025
40.80135419845581
40.77075837612152
40.637196297645566
40.53718389034271
40.80262809276581
40.71970784664154
40.765749459266665
40.946005415916446
40.93859585285187
40.939565324783324
40.616589970588684
40.0140605545044
39.71312009811401
39.89618790149689
40.21215434551239
40.0308144235611
39.28459520339966
38.35421739578247
37.26688550949097
35.75387738227844
34.58998196601868
34.90450303077698
35.08593897819519
34.830479416847226
34.083171267509464
32.38116408348083
29.816047301292418
27.2580419921875
25.74469003200531
25.213823318481445
24.504954266548157
23.623277864456178
23.476761913299562
23.437532963752748
23.36870472431183
23.273548011779784
23.01762924671173
22.930869994163512
23.37688501358032
23.52796865940094
23.21360691547394
22.319904718399048
21.213588376045227
20.824003987312317
20.685683822631837
20.409916353225707
20.236012315750123
19.988723216056822
19.796389112472536
19.798203344345094
19.815371708869932
19.635216112136842
19.23248544216156
19.05193384170532
19.24030230998993
19.519560837745665
19.710990328788757
20.0378883934021
20.624658198356627
21.05547362804413
20.919665813446045
20.961869773864745
20.91252851486206
20.80418203830719
20.723888030052183
20.560252318382265
20.283725085258485
20.608211464881897
21.179429268836977
21.60087432861328
21.687325620651244
21.454871644973753
21.04409329891205
20.465562839508056
19.952622179985045
19.600649847984315
18.983730964660644
18.338636870384217
17.799571099281312
17.832851853370666
18.50762284755707
19.572340960502626
20.742208738327026
21.643162889480593
22.343293170928956
23.342395300865174
24.701271953582765
25.920196833610536
26.658933215141296
27.060629186630248
27.431800613403322
27.49405243396759
26.929854249954225
27.864507303237914
28.826729941368104
29.24808738231659
29.573489122390747
30.071203064918517
30.346483564376832
30.327728815078736
30.616851892471313
31.06580063343048
31.779748005867006
32.58438927173614
33.351386790275576
34.00649570465088
34.45364789009094
34.52101666927338
34.18165542125702
33.79737261295318
33.94476713180542
34.093157081604005
34.50228377342224
35.003242588043214
35.39985070228577
35.839116735458376
36.4192938375473
36.352103972434996
35.778466992378235
35.415990371704105
35.35995349407196
35.642204070091246
36.28792938709259
37.1813934469223
37.841054234504696
38.25622092247009
39.09010621070862
39.98010075092316
40.516620597839356
40.31386173725128
39.67845601081848
38.921594214439395
38.537901906967164
38.861373815536496
39.53865391254425
39.83714831829071
39.42260881900788
38.499419136047365
37.30771787166596
36.11070686340332
34.42465623855591
33.16492158412933
33.32445305347443
32.52771484375
31.368574895858764
30.76161412715912
30.138213057518005
30.395036420822144
31.505334701538086
32.91075984001159
34.1447452545166
35.83901896953583
37.71338325023651
38.487350764274595
37.436218423843385
36.76352786064148
36.00808007717133
35.46671785831452
35.321758079528806
35.67370093345642
36.82103737831116
37.7967829990387
38.161403827667236
38.339922952651975
38.72366118907929
39.17155647277832
39.42825801849365
39.54675372123718
39.66096838951111
39.715557975769045
40.28111980438232
41.42888755321503
42.85359925746918
44.374784665107725
46.06823243618012
47.61332562923431
48.469031524658206
48.84862943172455
49.43809905052185
50.459768409729
51.66849407196045
52.59301564693451
52.69366252422333
52.10029629230499
51.43541174888611
51.29391545295715
52.39485063552856
55.00680704593658
58.02771661281586
59.69454472541809
60.308427128791806
60.86178464889527
63.41635704517365
68.51180577754974
75.02608319759369
80.15586345672608
82.82618728637695
82.11678537368775
81.69573717594147
81.105645070076
79.59349806308747
78.94200354576111
79.27524599552154
82.10773344516754
88.21426211357117
94.30912894725799
99.32553485870362
101.94746292114257
101.95576773166657
102.5811683511734
102.13290515899658
100.99009395599366
100.02079995632171
99.21266128063202
98.06418782234192
97.23085233211518
96.48699193954468
96.9401743030548
98.61011075019836
99.87513339996337
99.5361764240265
97.96809781551362
95.8345998620987
93.28073181152344
91.5424509191513
90.42080538749696
89.45053948402405
88.13104787826538
87.78794174671174
87.98677046775818
88.13420598506927
88.33048837184906
89.09986734867095
90.29418043613434
91.2378660440445
91.38447518348694
90.17623414993287
87.43388461112976
84.70219847202301
83.97493977069854
85.06757079601287
86.50117854595184
85.53740108013153
81.5363692188263
76.13162170886993
71.64263493061065
69.37314083099365
69.43570667743683
68.91672080516815
68.91198817253112
69.82860295295716
69.00805819034576
66.07373075485229
62.32439026832581
57.46186111450195
52.55368377685547
49.20991142272949
48.237142152786255
49.22205704212189
48.496363401412964
47.94890788078308
48.22778432369232
48.89614818572998
49.57109380722046
49.92606060504913
49.660658512115475
50.46844009399414
51.211632604599
50.2431565284729
48.733416604995725
48.77834569454193
49.85065752029419
50.28041228294373
50.65510988712311
51.88021747112274
54.28811927318573
55.40178013324738
56.856112904548645
58.43248306274414
57.14390756607056
57.74908442020416
57.67406621932983
56.292229475975034
55.93676317214966
55.72204036712647
55.9431836938858
57.45405855178833
59.78733105659485
60.23949758052826
61.60164092540741
63.78895816326141
64.73045271396637
64.74291613578797
64.90630668640136
64.8653199338913
63.98418749332428
64.52747166156769
65.92596822261811
67.28492324829102
67.79468924999237
67.1750473022461
66.64623210430145
67.37274008750916
67.27589405536652
66.76718395709992
66.33030099391937
65.75578892230988
64.79909308910369
63.948680305480956
63.92202426910401
63.73560875892639
63.74964716911316
64.51664764404296
65.54510358810425
66.86681282520294
68.29739559173584
68.68190730094909
67.78134243488311
67.05007808208465
67.98008108615875
68.787036652565
69.26822808265686
70.48565402030945
71.90322261810303
71.92186321735382
70.97753485202789
71.44758873939514
71.10987895011903
68.87356147766113
68.97173792362213
67.59327302455902
67.8012489748001
69.76115569114685
70.77699265480041
71.92262382507325
72.81021287441254
72.06148756980896
69.9426982498169
69.50184030055999
68.11896502017974
66.00553980827331
65.5459361410141
66.71497753620147
68.34302874565124
70.17505014896393
72.40637764453888
72.84456604480744
72.02981823444367
70.46945408821107
69.35691944599152
70.09655957698823
71.82950894355774
73.45716468334199
75.06115463733673
76.48487200260162
77.46392529964447
78.1031843662262
78.49496294498444
78.27589890956878
78.6058307647705
79.35507497310638
79.90516035079956
79.8963557100296
79.70934462070466
79.6478385400772
79.81291505813599
80.3227831172943
81.28690742969513
82.22551992893219
81.27023470401764
80.5020686674118
79.66562773227692
78.71674172401428
77.78813116550445
76.567719039917
74.61518686771393
72.47236683368683
71.56244262695313
72.02006797790527
72.76874183654785
73.32571251869201
73.139835729599
72.25943016529084
71.11051212787628
69.88057990074158
68.6009049987793
67.47955282211304
66.92568393230438
66.91691195487977
66.48694473743438
65.85537375450134
64.71726873397827
62.576163120269776
59.79187214374542
57.35144561290741
55.588753724098204
54.124648270607
53.650942282676695
54.044910707473754
54.636545147895816
54.21705040931702
52.56796667098999
50.27312527656555
48.61317114830017
47.759220499992374
47.19512499332428
46.138101649284366
45.17536964893341
47.04136234760284
50.29249398708343
53.61265881061554
55.4059027338028
55.57729646682739
54.455723962783814
53.87514587879181
54.02961757659912
53.42104549884796
52.19381682395935
51.4857843208313
51.61529372692108
51.19082363128662
50.8763171005249
50.6417240524292
50.369613404273984
50.23694171428681
50.472225584983825
50.679207515716556
51.066969623565676
51.844602103233335
52.47127842903137
52.87670841693878
53.15677801132202
53.101403427124026
52.492980704307556
51.44524801254273
50.32210754871368
50.06532437324524
50.479228940010074
50.69683646678924
50.89939039230347
51.096304159164426
51.467367515563964
52.23480467319489
53.196577072143555
54.08645111560821
54.967478985786435
55.90853232383728
55.936604518890384
55.33003562450409
54.45040075778961
54.030124759674074
54.47302281856537
55.45457095146179
55.81618411064148
55.286476392745975
54.32153377532959
53.89517254829407
53.589996190071105
52.41207238197327
50.068429222106936
47.30064092159271
45.5205685043335
44.981123576164244
45.737720260620115
45.925443935394284
44.96492431163788
44.319840483665466
44.23634835243225
44.033482146263125
44.10263312339783
44.17118672847748
43.94297602176666
43.72763023853302
43.67615338802338
43.521667919158936
42.9992334651947
42.63790204048157
42.07952760696411
40.784093866348265
39.49298911571503
38.482006888389584
37.6365199136734
37.01309853076935
36.80450904846192
37.049927020072936
37.57666058063507
37.512851643562314
37.23459790229797
37.07245512485504
36.78370141506195
36.05953600883484
34.693766288757324
33.20886799812317
32.51311291694641
32.672392444610594
32.872189121246336
32.452911515235904
32.431551456451416
33.14369998931885
34.290909237861634
35.78718877792358
37.371235747337344
38.489675879478455
38.96338439941406
39.116003003120426
39.03956904888153
38.935150928497315
41.22018976688385
43.9151021528244
45.588269319534305
45.91252970218658
45.179516563415525
45.02895116329193
46.609299955368044
49.71306317806244
52.36088573932648
52.67558656692505
53.178155975341795
53.923982038497925
53.992747144699095
53.620563898086544
53.093044056892396
52.71835189342499
52.52043032169342
52.71615039825439
53.578544778823854
54.34920200347901
55.04945427417755
57.202373332977295
59.243507227897645
60.193846049308775
60.51950797080994
60.742793035507205
60.79016400337219
60.616621403694154
60.17757077217102
60.69188209056854
62.287817902565
64.29235695838928
66.03013764858245
66.94373784542084
67.0879571390152
67.64971606731415
69.11164443969727
70.76758273601531
72.01609024047852
72.64230317115783
72.69393276214599
73.5812770652771
75.30994853973388
77.27867296218872
78.13692162036895
77.1106933259964
75.63077213764191
75.82292212486267
78.8411633682251
83.03740294456482
84.58193811893463
83.83092056274414
81.95774156093597
80.98155859947205
82.52726742744446
83.14214483261108
81.45196671485901
78.38295591831208
76.03949025154114
75.98579195022583
75.7433038520813
75.59154124736786
76.07710245132446
76.7478839635849
77.49932198047638
78.07906549453736
78.48615510463715
78.67655673027039
78.5319014263153
78.6234211063385
78.4238980770111
76.44803294181824
74.20879275798798
73.03212724685669
72.76080241203309
73.00658793449402
73.68172167301178
74.50619490146637
75.31246883869171
75.04583878993988
73.66374408245086
71.88727540969849
70.00048886299133
68.62074576854705
68.54649361133575
68.43367332458496
67.52553795814514
66.26103996276855
65.19944364070892
64.70072950363159
64.62617819786072
64.00029738426208
62.49125002861023
60.09353382110596
58.03443285465241
57.30866495132446
57.74477706432342
57.48796562194824
55.545101046562195
53.73633590221405
52.52980044841766
51.20458060741424
52.162149839401245
55.771192593574526
56.5325839471817
58.762155680656434
66.8139218044281
75.28258858680725
82.65987268924714
90.84056633472443
99.17169929027557
104.02665575504302
103.2900693321228
106.71067094802856
110.82699800491334
113.73833846569062
115.43678512573243
115.80792053222656
114.98161235332489
114.0983312368393
113.99569993495942
114.52912229061127
115.50400259017944
116.39397717475892
116.92231657028198
117.10299170017242
117.16770911216736
117.46657078742982
118.2818538236618
119.42684310913086
120.28217077255249
120.58946299552917
120.77015374183655
120.69432006835937
120.73784961223602
120.83231776714325
120.29383254051208
119.35279272079468
119.07755045890808
120.05801604747772
121.10069149017335
121.14664804458619
120.68350179195404
119.93731993675232
119.0518670797348
118.68586388111115
118.57385776519776
118.21954288005828
117.4946483373642
115.93919997692109
114.54181950569154
114.1765672302246
112.8711738204956
109.04017525196076
106.66981980800628
104.4134394645691
97.40705152511596
89.36420667171478
81.28697629928588
72.57475988388062
63.981673464775085
58.4701282453537
59.25151168823242
57.47666314125061
56.483771333694456
56.49975604057312
55.21019975185394
55.81744777679443
58.38866806507111
59.95803848266601
60.03413054943085
59.54574282169342
58.59494913578033
57.88631302833557
57.44308871746063
56.72015046596527
55.27656032085419
53.861867361068725
52.169592475891115
50.83807090759277
50.40760337352753
50.39964699268341
50.21848051548004
52.0545927476883
53.34643066883087
52.959072651863096
52.81691662311554
52.59318254470825
52.07907505035401
52.112830967903136
52.993378596305845
53.74754134654999
53.3066792011261
53.30950349807739
54.126123795509336
54.785550017356876
54.54369624614716
54.149011464118956
53.74859715461731
53.37985239028931
52.97926119327545
52.52045891284943
52.19873453617096
52.25123014450073
52.20638660430908
50.892192945480346
49.413290734291074
48.880378422737124
49.77585873603821
50.75634731292725
51.317656660079955
51.91965692043304
51.56783267021179
49.26279117584229
45.74175506591797
42.577313475608825
42.24515864372253
42.047246570587156
41.36894180297852
41.34830347061157
41.79007674217224
42.33707329273224
43.08304793357849
42.979752202034
41.88857003211975
41.34566757678986
41.71088618278503
42.0737558555603
42.6764575958252
43.03336340904236
42.832109708786014
42.546330933570864
42.64844250202179
40.977582416534425
39.330191679000855
39.42126231193542
39.32401551246643
39.095765886306765
38.91878125190735
38.18870749950409
36.72792049407959
35.43780024528503
35.34135453701019
35.03087872982025
34.47926684379578
34.44836263179779
34.866085624694826
34.60251832008362
34.89154654502869
35.49069242954254
35.49914792537689
35.018996696472165
34.80598750114441
34.29430516242981
34.13189636230469
34.4840735244751
34.71421182155609
34.61474636554718
34.21410479545593
33.78008629322052
33.53166910648346
33.44899806499481
33.525745191574096
34.00422860145569
34.12270917415619
33.751637105941775
33.066683177948
31.90085651397705
30.445567836761473
29.57523678302765
29.33220441818237
29.15502989768982
28.93089852333069
28.82149899482727
28.89048010826111
28.569653067588806
28.09349552631378
27.735034375190736
27.84110296726227
28.238451209068298
28.574646472930908
28.841359763145448
29.270276427268982
30.02708070755005
30.90233814239502
31.15537992954254
30.88705846786499
30.300520310401918
29.77323799610138
29.368273611068727
29.222163047790527
29.344534130096434
29.61110311985016
29.704775071144105
29.38716823101044
28.79403790473938
28.3698873090744
28.886898765563966
28.83596242427826
28.272350282669066
28.24657811164856
28.820182309150695
29.079484486579894
29.48138261795044
29.616079750061036
29.21847756385803
28.52073401927948
27.714988927841187
26.93479660987854
26.377155632972716
26.03986327171326
25.710784554481506
25.220327258110046
25.120510959625243
25.49228846549988
26.38860309123993
26.87399555206299
26.92235981464386
27.75390743255615
28.44210629940033
28.728557357788088
28.962937059402467
29.2513463306427
29.583308038711547
30.01109363555908
30.34614736557007
30.491740150451662
30.292769961357116
29.75080168247223
29.044209833145143
28.43063009262085
27.966214985847472
27.727457280158998
27.6023131608963
27.232192597389222
26.549489130973814
26.70762496471405
27.250397872924804
27.528871936798097
27.652901978492736
27.818709750175476
27.99432020187378
28.084680094718934
28.22651427745819
28.447142629623414
28.497675890922547
28.58346974849701
28.467583718299867
28.165363011360167
27.727299647331236
26.886462292671204
26.359047050476075
25.692387962341307
25.311263785362243
25.078637981414794
25.182949929237367
26.16610641479492
28.103750982284545
30.476521887779235
32.27724836349487
32.54728504180908
33.601481895446774
36.751471843719486
40.7445761346817
45.08345649242401
49.462917914390566
52.9849223947525
53.53409845352173
53.686099185943604
54.35633972167969
54.67930854797363
54.71213469982147
54.7248854637146
54.743084902763364
54.9886779165268
56.02410381793976
58.05067258358002
60.32908808231354
61.58722819328308
61.356172909736635
62.012127523422244
62.94151791572571
64.33967561721802
67.13725079536438
70.52934690952301
72.39225687503814
72.55276578903198
73.45284373283386
74.01434924125671
74.01346524715423
73.5990204668045
72.95032902240753
72.1760059928894
71.51882177352906
71.1052566576004
71.28690181732178
71.36877831935882
71.00319805622101
70.7840535068512
70.7478806734085
71.29426809310912
71.67386263370514
72.13629122734069
72.1879370212555
72.19923045158386
72.1790286397934
71.46852855682373
69.73990429401398
67.3224763250351
65.23499442577362
64.67891007423401
63.53876943588257
60.4857536315918
56.108461346626285
50.91461086750031
45.48543595314026
41.511784410476686
41.099082016944884
40.263419375419616
38.83582335948944
38.10020144939423
37.61434180736542
36.810327639579775
36.24553188323975
35.56134683609009
34.32221209526062
32.39624167919159
30.260410861968992
28.801198630332948
28.98480419635773
28.240436644554137
27.032117414474488
25.227954239845275
21.961751317977907
18.063064374923705
16.581660747528076
16.53737895011902
15.526901793479919
14.741757497787475
14.340229125022889
14.170434374809265
14.235984315872193
14.478066840171813
14.579808707237243
14.478564839363099
14.678969945907593
16.00341890335083
18.928393602371216
22.4810471868515
25.466802926063536
26.271463027000426
26.770226402282717
29.254012179374694
34.00018947601318
40.87398011684418
47.41478514671326
50.759002656936644
51.15529619216919
51.010456743240354
51.223015480041504
51.44931030750275
52.86596546173096
55.1245329284668
57.50391098022461
59.82922696590423
61.80564920425415
62.805468430519106
62.53778175830841
61.90773087978363
62.2084041929245
63.743571944236756
66.08491882324219
68.14796650886535
68.58892278194428
69.18379183769225
69.60939719200134
70.00175940513611
71.25193735599518
71.92928622245789
72.41950656890869
73.91344937801361
75.55389465332031
76.24317007064819
75.99741248607636
76.53487464427948
76.6123827123642
76.55499400138855
77.0156185388565
77.93637624263764
78.80629076004028
79.09509476184844
78.86634047985076
78.62013164043427
78.75041902065277
79.54109425544739
80.18459474563599
79.7480678319931
77.74126911640167
74.449184756279
71.05464376926422
70.34085834026337
70.49955465316772
69.22550846576691
66.04089643955231
60.48713916778564
54.638351712226864
51.54492228031158
51.285649514198305
51.595653090476986
51.5199692773819
51.2180992269516
49.795659618377684
47.765235919952396
45.84157282352447
44.49828177928924
43.77715086460113
43.15885739803314
43.33734612941742
44.224967317581175
43.97507802009582
42.02131804466248
39.26389213562012
37.25129991531372
37.228009219169614
37.36187638282776
37.57180171966553
37.79211347579956
37.27740267753601
37.16590337276459
36.49649150371552
35.04792730808258
33.84326066493988
33.628438668251036
34.168362846374514
33.99408886432648
33.85000661373138
33.73012710571289
33.26869104385376
32.3627939748764
31.36139974117279
30.741493253707887
30.823009881973267
31.34199555873871
31.965344738960265
32.28340253353119
32.23433623313904
31.81521713733673
31.022026085853575
31.585321197509767
32.90326826572418
33.12609682559967
32.18921896934509
30.53958252429962
29.712820487022398
30.929639887809753
33.86420022964477
35.88355878829956
35.7298279428482
38.51013610363007
41.69754803657532
43.43581849098206
43.37167660713196
44.40178036212921
45.992120008468625
47.89070803642273
50.15488123893738
52.55525721549988
53.14586765766144
52.301822147369386
51.78506537437439
51.74671507358551
51.71738995552063
52.14685526847839
52.533032841682434
52.7814835691452
53.06559016704559
53.3274632024765
53.471019072532656
53.77230101108551
54.434248385429385
54.67152130126953
54.24846098423004
53.88690611839294
54.23149288654327
55.18032231807709
56.183209452629086
56.953029437065126
57.54879319667816
57.992552280426025
58.26076056480408
58.457888102531435
58.28800718784332
57.9557040309906
57.50211116313935
56.89983043193817
56.37761854171753
56.36176721096039
56.77749628543854
55.76589853286743
54.40424819946289
53.54513821601868
53.328017473220825
53.70205785274506
53.473891468048095
51.83859440803528
49.278795642852785
48.17919664859772
49.442417039871216
47.57312315940857
44.78845593929291
43.05600955009461
43.529124889373776
43.240580172538756
42.634928011894225
41.47045516014099
39.26558606147766
36.52154661655426
36.12048060894013
37.14212315559387
38.269432282447816
38.96991681098938
38.97894958019256
38.6361656665802
37.9206702709198
37.60393068790436
37.61271653175354
38.01590398788452
38.620746517181395
38.67152752399445
37.973570108413696
37.60463606357575
37.622992911338805
37.947689204216005
38.35732278347015
38.70178644657135
39.28290470600128
40.28493743419647
41.00356604576111
40.48764451980591
41.52069230079651
43.59058262348175
45.800943388938904
48.00949914932251
50.52374581336975
52.708416814804075
53.47524909973144
52.86051948547363
52.70696716785431
52.91116764068604
53.08346960544586
53.519836854934695
53.566677365303036
53.76920461654663
53.27804980754852
52.67353597164154
51.328797578811646
50.436270871162414
49.83266608715057
49.43231498241425
49.41483833789825
49.64972584724426
49.11363690853119
48.016297717094425
46.65171084403992
45.348007740974424
44.470876989364626
44.40573111534118
43.904693574905394
43.32962121963501
42.631390962600705
41.86694498062134
42.42743922710419
43.415398378372196
44.865346355438234
45.96641635417938
46.45354191303253
45.99527020454407
44.74038177013397
44.06326207637787
44.79656407356262
45.70290919303894
46.467522888183595
45.83519770145416
45.187781763076785
44.306589670181275
42.987963347435
41.55031248569489
40.89215722084045
41.79368921279907
41.11172245502472
39.11025403499603
36.908593320846556
34.62077512264252
31.8228798866272
29.520397057533263
28.89584053993225
29.595006232261657
29.800000195503234
29.921244287490843
30.16836221218109
30.059674439430236
30.147344303131103
29.809905610084535
29.794744544029236
29.780652794837952
30.834687361717226
31.56632815361023
32.12547541618347
32.74301661491394
33.27087021350861
33.642439155578614
33.809463744163516
33.96843442440033
34.213533196449276
34.202604608535765
34.06489248752594
34.17806802272796
34.26041781425476
34.01072113990784
33.665665264129636
33.690188245773314
33.164375410079955
32.02429929256439
30.778300189971922
29.817342700958253
29.297962527275086
29.252107038497925
29.879930830001832
30.67289258003235
30.834174032211305
30.44264045238495
29.8911554479599
29.9941446685791
29.192491974830627
28.603953671455383
28.64150544643402
28.829724588394164
28.61240963459015
27.988250970840454
27.499213061332703
27.474352836608887
27.51373188495636
27.56526297569275
27.682434301376343
27.550418739318847
27.29746123313904
27.198582434654234
27.10951401233673
27.162190108299257
28.0057488155365
29.494104270935058
30.518935327529906
30.50163103580475
30.56936900138855
30.548362193107604
29.66850381374359
28.281879014968872
26.97345400810242
26.14351605415344
25.822054591178894
25.71460277080536
25.625000762939454
25.581532731056214
25.375608677864076
25.299568357467653
25.57384298801422
25.941230645179747
26.060364499092103
26.09776963710785
26.301046233177185
26.565069489479065
26.920670366287233
27.50481551647186
27.72726990222931
27.22644178390503
26.29905918598175
25.28384804725647
24.64363473892212
24.488039808273314
24.48649803161621
24.3744291639328
24.13559823036194
23.975288844108583
24.3720728969574
25.16539783000946
25.48428903579712
24.745140137672426
25.430757255554198
27.68325740337372
31.035185766220092
34.79018834114075
38.18669205188751
39.63638346672058
40.08858440876007
41.80594705581665
43.22002290725708
44.06926040172577
44.95395034313202
45.62915286540985
45.236663670539855
43.92299805641174
42.706553287506104
42.671803646087646
42.77816902637482
42.99877706050873
43.878492603302
45.27754520893097
46.353565640449524
46.521557607650756
46.0467258310318
45.55583197593689
45.51757732391357
45.8163819694519
46.66537546634674
47.553636813163756
47.3529567527771
47.024920024871825
46.7217964887619
46.63044910430908
46.52210319519043
46.27090006828308
45.8829590177536
45.43277780056
45.22977687358856
45.58489001274109
46.41086762428284
47.55812991142273
48.33379000663757
48.211229133605954
47.51175244808197
47.042404880523684
47.16579669475556
47.527702741622925
47.644368152618405
47.28207410812378
47.233125214576724
47.93910261154175
47.01843598365784
44.42171916484833
41.3778111743927
38.92465115070343
37.71908941745758
38.58313594341278
39.93486587047577
39.096826643943785
37.44706512451172
35.92662021160126
34.510580315589905
33.283032593727114
32.42821255207062
32.17755494117737
32.68705436706543
33.14004660606384
33.30272557735443
33.15952045440674
32.92420527458191
33.340419840812686
34.92064199924469
36.968142786026
38.17422014713287
38.74230412006378
41.61831073760986
45.586519589424135
48.865820255279544
51.14610342502594
53.260310583114624
54.30354804039001
54.46512123584748
54.50895057201385
54.980024704933165
55.804127340316775
56.09567533969879
56.71961506843567
57.75223661899567
58.182562608718875
57.55214832305908
56.69313862323761
56.11163161277771
56.15165656089783
57.11537178516388
58.7313298368454
60.12707329273224
60.54865886211395
60.2298263502121
59.912694988250735
59.526154217720034
58.754858264923094
58.362723474502566
58.89550328731537
60.30343937397003
61.79730031490326
61.8233291721344
60.15097540378571
58.439423141479494
57.6735843038559
57.80309843063355
59.29852705478668
61.25116879463196
62.79580275058746
63.61694288253784
63.92821626663208
64.2800098657608
64.88985320091247
65.1396053981781
65.32438707351685
66.09274078845978
65.95990364074707
65.06225935935974
64.73531084060669
65.54048924922944
66.217425365448
63.55136991977692
59.17999282360077
55.17007669448853
52.52331807136536
51.12804594039917
50.764082489013674
51.25797483444214
51.480847029685975
50.680707821846006
50.42259860515595
51.09653618812561
50.99583640575409
49.916878633499145
49.22222880363464
49.64002269744873
50.26209254264832
50.36615180492401
49.60530641078949
48.818140110969544
47.72767161369324
46.84236312866211
46.90932988166809
47.26382559299469
46.86364575862885
46.60165319442749
46.73034956932068
46.7202384185791
46.11004509925842
44.38819298744202
41.9249439907074
40.05975127696991
39.273683633804325
38.99773118019104
38.85073371887207
39.241818947792055
38.64440545558929
37.34972005367279
36.27755707263947
35.832599177360535
35.55289228916168
34.7938054561615
33.520510430335996
32.89934957504273
32.67322202205658
31.447414474487303
29.84930227279663
27.799402785301208
25.377327847480775
23.12293598651886
21.84872685432434
21.76347945690155
22.145987339019776
22.240974187850952
21.611468782424925
20.58654315471649
19.669304480552672
19.18469473838806
19.932904319763182
21.754216647148134
22.015886778831483
21.617860593795776
22.501111340522765
24.03525197505951
25.81704333782196
27.687048320770263
29.0385879611969
29.05386523246765
30.15621323108673
31.78429503440857
32.68032341480255
32.21104819774628
31.771240730285644
31.72690840244293
32.582965764999386
34.142037649154666
36.19995953559876
37.493028597831724
37.56847427368164
38.016492333412174
38.393510918617245
38.773481278419496
39.23195683002472
39.27341033935547
39.17443618297577
38.83832540035248
38.50164340019226
38.68931737422943
39.42174186706543
39.78009925365448
39.51708687782288
39.896031637191776
42.04052960395813
44.2317542886734
44.051814823150636
47.07144696712494
51.2283936548233
53.96609149932861
54.524761118888854
54.71792860507965
54.81655156612396
54.985330357551575
55.66839663028717
56.506269207000734
56.691016597747804
57.46610511302948
59.48006415843964
61.69658792495728
61.88181798458099
60.15737541675568
60.04066387653351
60.53921869277954
61.0540974187851
61.80890763759613
60.41449067592621
60.5774010515213
63.227085423469546
66.43493144512176
67.0146319770813
65.91147585391998
65.38394289493561
65.19951795578002
66.23778855323792
68.45809116840363
70.81183627128601
71.92848774433136
71.95830709934235
72.20964328289033
72.72719094276428
73.0978911113739
74.56558112621308
76.79338064670563
80.03221655845643
83.6244135761261
85.46301568984985
85.6429516029358
87.45260780334473
88.85608146667481
88.2215541601181
87.84621308803558
88.31723323822021
88.9213552904129
87.06173181533813
87.02804210186005
89.40444415092469
87.64495229244233
84.16248026371002
81.91627749919891
81.43909155845643
81.72379935264587
83.0240978717804
84.81087084770202
86.01022587776184
86.32068104743958
86.2391315126419
86.1399350643158
85.54613718509674
84.48827459335327
83.88843971252442
84.14115062713623
83.39039391040802
82.79245562076568
80.90231756687164
79.8752920627594
83.86434600830079
87.34442801952362
86.3682508468628
82.83599450588227
82.40309509277344
82.96897809505462
83.2398945236206
83.61747104644775
82.31831438064575
79.59442752361298
77.05092308044433
75.22647206306458
74.12149006843566
73.56434564590454
74.05725390911103
74.06403967857361
72.62880606174468
70.4400061416626
67.34863802433014
63.877290234565734
61.95679202079773
61.868664751052854
60.6157592344284
59.35328683376312
59.101921114921566
58.74667720317841
58.5145698595047
58.236422419548035
59.599421305656435
59.39511750221252
58.80063121318817
58.583269958496096
58.36325510978699
57.8579217004776
58.05606731414795
58.03640908241272
57.138883953094485
55.51914002895355
53.86730257511139
52.93355954647064
52.78934159755707
52.254672474861145
50.98617563247681
49.598923535346984
48.90328469276428
48.884294371604916
48.99502617359161
48.56351338863373
48.57949100017547
47.28935386657715
42.58394134044647
36.59311674594879
32.994218621253964
32.94165323257446
32.053404836654664
30.90992705345154
29.678478841781615
29.52104863643646
29.529194765090942
29.52695683002472
29.104122228622437
28.449826922416687
27.470644311904906
26.35287923336029
25.55229772090912
25.2427601146698
25.293681926727295
25.472802844047546
25.65294955253601
25.963788137435913
26.32887598991394
26.066995949745177
24.886160473823548
23.957694272994996
24.453623118400575
25.59181911945343
25.91832563877106
25.07114070892334
23.372171473503112
21.621086201667786
20.230821833610534
19.25441171169281
18.80917532444
19.162785811424257
19.496260666847228
19.826163172721863
20.235526223182678
20.947705755233766
21.75983139038086
22.26297456264496
22.597128081321717
22.4305366563797
22.315223660469055
22.56626483440399
22.72354172706604
22.559295558929442
22.417273049354552
22.488980736732483
22.577403769493102
22.717150454521178
23.129958968162537
23.094137949943544
23.071572995185853
23.55815273284912
24.037375063896178
24.057096629142762
24.09155827999115
24.376879382133485
25.407061676979065
26.28336609363556
26.289500575065613
25.90282018661499
25.720348052978515
25.70567966938019
25.47264585018158
24.680435857772828
23.858681807518007
23.155196375846863
22.66164822101593
22.35959855079651
22.13738245010376
21.974081830978392
22.03138062953949
22.03876253128052
21.340159869194032
20.162686781883238
19.796941752433778
20.061512937545775
20.18067385196686
19.952486824989318
19.629445452690124
19.355183053016663
19.16614905357361
18.799025988578798
18.143550424575807
17.471305899620056
16.81108036994934
15.752086839675904
14.397452178001403
13.359477491378785
13.381951475143433
14.18592469215393
14.45190791606903
14.228951210975646
13.963583245277405
13.805520391464233
13.76393753528595
13.659954304695129
13.364046783447266
13.042084097862244
12.868279433250427
13.19706976890564
13.581225957870483
13.60072069644928
13.717228350639344
14.547110538482666
15.781271052360534
16.304613723754883
15.833742952346801
15.062318305969239
15.285843348503112
16.098567118644713
17.200243282318116
18.449799208641053
19.694917764663696
20.987420663833618
21.672736086845397
21.648724727630615
21.516195545196535
21.733497385978698
22.05114981174469
22.360249037742616
22.870899930000306
23.849777235984803
25.141097521781923
26.299696416854857
26.67426118850708
26.50036539077759
26.583244400024412
26.905497283935546
27.31781690120697
27.913823261260987
28.63894732952118
29.336573696136476
29.69715754032135
29.704407539367676
30.028884320259095
30.591458911895753
31.376702780723573
32.31423899173737
32.758429388999936
32.68261215209961
32.95077314376831
33.3528808259964
33.61785603523254
33.86274306774139
34.052095494270326
34.11183616161347
34.270404720306395
34.79156656265259
35.61569547176361
36.31742696285248
36.60218978881836
36.6489057636261
36.83732950210571
37.669379391670226
39.83268306255341
43.43491244316101
47.03413676738739
48.538852133750915
49.62936593532562
51.95140992164612
54.325844612121585
56.84914339542389
59.76772773742676
62.65118308544159
65.1638777589798
67.61657529354096
70.0984830570221
72.45636776924134
74.44280666351318
75.45196103572846
75.22181424617767
74.15577951908112
72.98360385417938
72.13750712871551
71.63886046886444
72.16422247409821
72.81997356891632
72.70464357852936
73.11025975704193
75.09798502922058
77.9146888923645
80.5170103931427
82.52893161296845
83.5330780506134
83.20058900356292
83.84651110172271
85.35740253448486
87.69610084056855
90.47789106369018
93.3020027589798
96.41367606639862
100.04223292827606
103.42848819255829
105.57925909042359
106.47536298751831
106.58172294616699
106.95289889335632
107.2675332069397
107.13253313064575
106.83507975578308
106.53011552333832
105.89867081165313
104.89087346076965
103.40961143016816
100.35742350578307
96.49022731304169
94.44917996883392
95.33317635536194
95.11098295688629
92.48049541950226
91.62329438209534
92.14319766521454
93.0794610595703
94.19096860408783
95.30440876960755
95.43354581356049
93.6977889919281
91.0003185081482
88.78122163772584
87.5427566576004
87.3473582458496
87.75291548728943
87.86528875350952
89.0077216386795
90.38021985054016
90.38051668643952
89.57153744220733
89.41368918895722
89.07145023345947
86.6665699005127
84.32995553970336
83.38135268688202
82.77500094413757
82.48222064971924
82.72826263904571
81.37244776248932
79.13340500354767
76.4689437007904
73.8887124490738
70.33773693561554
68.50895871162415
66.87637954711914
64.83662075042724
63.04313728809357
62.080944271087645
61.974401383399965
62.87693694591522
65.58086415290832
68.98444155693055
70.84250662326812
70.73312036991119
72.03441672325134
76.18825706005096
81.6961593389511
85.85960801124573
86.3189138841629
84.81547146320344
84.00035670280457
84.9627871274948
87.14671688079834
87.1475864124298
84.84821442604066
80.92206111907959
76.36749713897706
72.20869312286376
69.52182417392731
68.67757321357728
68.67759224414826
68.93479803562164
69.57689933776855
70.22824616909027
70.26454835414887
70.07868324279785
68.81005990505219
67.62850826263428
67.14941139221192
67.30182319164277
67.77498722553253
68.06375665664673
68.94660720825195
68.97772744178772
67.58053454399109
65.99302453994751
65.64750442504882
65.98165115833282
66.66165466308594
66.841775598526
66.38508944034577
66.00997822284698
66.98965119361877
65.83029267787933
63.610294241905216
61.93769801139832
61.44107914447785
61.575834221839905
61.6078093624115
60.35125936508179
56.985069608688356
52.83619265556335
50.33572927951813
50.2181804895401
49.20924106121063
45.29901021957397
39.55930902957916
35.25132213592529
33.93558701038361
33.56832840919495
32.53379609584808
30.86804015159607
28.719613089561463
26.65853313446045
25.149512391090393
24.30622586250305
24.134804754257203
24.563702635765075
25.209490723609925
25.80162443637848
26.288724002838133
26.10284122467041
25.85424283981323
26.477074098587035
27.231350598335265
27.735869102478027
28.066065764427186
28.08626504421234
27.947376041412355
27.818258996009828
27.208901600837706
26.58922008037567
26.15535544872284
25.764340000152586
25.757656893730164
26.4854234457016
