9.982548809051513
10.03093461036682
9.894348845481872
9.675338220596313
9.605061235427856
9.71612999677658
9.826979186534881
9.800550894737244
9.66736902475357
9.511253061294555
9.351951308250428
9.217423441410064
9.198020884990692
9.304787404537201
9.389060225486755
9.323801472187043
9.187961094379425
9.116573684215545
9.098602652549744
9.076647152900696
9.014959580898285
8.90103024482727
8.846198446750641
8.91246919631958
8.927195491790771
8.812995159626007
8.778700621128083
8.929757239818573
9.088963136672973
9.116448154449463
9.084630126953124
9.116198136806489
9.221730403900146
9.320878877639771
9.395298314094543
9.533870949745179
9.749570853710175
9.8990651512146
9.898456597328186
9.828205740451812
9.747389101982117
9.638379437923431
9.5347190284729
9.487815446853638
9.478598771095276
9.47188545703888
9.48517983198166
9.551289994716644
9.635841886997223
9.664527311325074
9.619403448104858
9.560399615764618
9.55424262046814
9.571181898117066
9.537060804367066
9.486714420318604
9.49115056991577
9.521316907405854
9.535082011222839
9.537502915859223
9.53201468706131
9.513680276870728
9.450778131484986
9.333475818634033
9.245819609165192
9.263259985446929
9.355772452354431
9.444577505588532
9.459602806568146
9.371204509735108
9.239237656593323
9.154910051822663
9.12773270368576
9.153583707809448
9.299348752498627
9.54349359035492
9.71973031759262
9.788126375675201
9.87033301115036
9.942209577560424
9.856934812068939
9.651037328243255
9.514257700443268
9.498676390647889
9.473197576999665
9.366561996936799
9.268005545139312
9.248400566577912
9.276231968402863
9.327728617191315
9.39672418832779
9.44408813714981
9.478833832740783
9.538150453567505
9.541053338050842
9.418353898525238
9.291996030807494
9.261583223342896
9.26891351222992
9.30277578830719
9.37322108745575
9.389304749965667
9.359771676063538
9.426431210041047
9.582105753421784
9.641081488132476
9.515739178657531
9.344663333892822
9.316161766052247
9.457975497245789
9.636046602725983
9.727265655994415
9.742736678123475
9.747167129516601
9.747004675865174
9.723773987293244
9.680372242927552
9.620533938407897
9.558781540393829
9.567351114749908
9.706508836746217
9.872598354816438
9.889211015701294
9.754515180587768
9.604405117034911
9.503131566047669
9.414964101314546
9.290053248405457
9.141669189929962
9.067557680606843
9.13460117816925
9.280310156345367
9.374322896003724
9.357278826236724
9.31560146331787
9.33986328125
9.380276956558227
9.3758238530159
9.334349942207336
9.215965521335601
9.027026407718658
8.955624477863312
9.075277349948884
9.184931797981262
9.195226199626923
9.247324893474579
9.367246272563934
9.409921734333038
9.317827789783477
9.169001274108886
9.06345336675644
9.067070362567902
9.146748797893524
9.199272785186768
9.209402363300324
9.26262220621109
9.400378901958465
9.563399322032929
9.6648992228508
9.692053756713868
9.708838768005371
9.751503341197967
9.801054589748382
9.83379902124405
9.839485712051392
9.852290563583374
9.924174637794495
10.029572985172273
10.108319692611694
10.135131137371063
10.07919317483902
9.954598624706268
9.878693206310272
9.915571322441101
9.967316889762879
9.949065339565276
9.901457443237305
9.86165640592575
9.829106891155243
9.843534517288209
9.902575409412384
9.914163122177124
9.892745258808135
9.96316908121109
10.092243146896362
10.124125833511352
10.043003721237183
9.96129107952118
9.935170347690581
9.974168283939362
10.103054957389832
10.2124857711792
10.131412577629089
9.958155472278595
9.906525795459748
9.935595076084137
9.907676250934601
9.873289766311645
9.941878242492676
10.076429259777068
10.167146894931793
10.187255506515504
10.200461728572845
10.230628671646118
10.183683626651764
10.018093292713166
9.868315558433533
9.831070690155029
9.850051190853119
9.848359003067017
9.788654062747955
9.706082320213318
9.657995376586914
9.608555345535278
9.549700999259949
9.563235051631928
9.633625824451446
9.65187594652176
9.594745917320251
9.540081107616425
9.55614027261734
9.648348438739777
9.765508134365081
9.828101177215576
9.799305109977722
9.707364010810853
9.613748676776886
9.590073873996735
9.636646811962128
9.656615312099456
9.62390438079834
9.624533319473267
9.643883526325226
9.581931030750274
9.472773926258087
9.436384136676788
9.507647693157196
9.626027989387513
9.723253402709961
9.792781665325165
9.856253309249878
9.905561413764953
9.912824866771698
9.855028412342072
9.752431581020355
9.673065078258514
9.658785154819489
9.685396127700805
9.692292742729187
9.64644984483719
9.577713630199433
9.500236616134643
9.385550105571747
9.291453866958618
9.329253771305083
9.433515207767487
9.448007256984711
9.416256408691407
9.436454482078553
9.431402323246003
9.331127107143402
9.20795535326004
9.17743305683136
9.294651448726654
9.459946715831757
9.501054811477662
9.409059891700744
9.334281256198883
9.350202848911286
9.36938235282898
9.31559589624405
9.231414186954499
9.161120545864105
9.113038988113404
9.155364875793458
9.33987828016281
9.570852286815644
9.69652848958969
9.660508573055267
9.52086300611496
9.370101535320282
9.256933290958404
9.192492470741271
9.196189908981323
9.264732823371887
9.322726943492889
9.321709136962891
9.300323917865754
9.2629341340065
9.169523179531097
9.03742006778717
8.939392778873444
8.934351661205291
9.005169324874878
9.101480352878571
9.210894317626954
9.297315995693207
9.312982873916626
9.300901515483856
9.333701238632202
9.410087506771088
9.4669082570076
9.455050880908965
9.387177832126618
9.296677355766297
9.207665150165559
9.14189401626587
9.08876568555832
9.019694540500641
8.98163300037384
9.089323945045471
9.332588820457458
9.501530249118805
9.458753819465636
9.34423647403717
9.337944362163544
9.41487001657486
9.484774601459502
9.547071633338929
9.603303110599517
9.599780378341675
9.522223131656647
9.447317428588867
9.407111291885377
9.2904611992836
9.067399032115937
8.925555605888366
8.962848677635193
9.06058218240738
9.16246014356613
9.30999276161194
9.467812671661378
9.581054139137269
9.640354568958282
9.641803226470948
9.622280285358428
9.588889801502228
9.470263473987579
9.31054392337799
9.245020153522491
9.26312801361084
9.257843058109284
9.202668695449828
9.157720911502839
9.145376532077789
9.107499055862426
9.052258920669555
9.057187762260437
9.088388700485229
9.026594500541687
8.873094499111176
8.80579475402832
8.92257917881012
9.081265120506286
9.167770512104035
9.239075148105622
9.324000511169434
9.371834213733672
9.380072131156922
9.391335060596466
9.406107995510101
9.403043262958526
9.39623053073883
9.391661047935486
9.34331541776657
9.252879254817962
9.22082270860672
9.272775058746339
9.309911322593688
9.31210511445999
9.361315140724182
9.472867755889892
9.577088215351104
9.633909640312195
9.696145458221435
9.813480720520019
9.90411494731903
9.897163949012757
9.879927914142609
9.898971724510194
9.901496419906616
9.90684849023819
9.94997262954712
10.005163526535034
10.04251891374588
10.033442342281342
9.99883186340332
10.030720157623291
10.141276726722717
10.222964425086975
10.243092775344849
10.292204258441926
10.388176422119141
10.433014521598816
10.413801844120025
10.444037821292877
10.538932614326477
10.586291525363922
10.573538455963135
10.576929805278779
10.563662490844727
10.460025746822357
10.34923589706421
10.344890604019165
10.384175553321839
10.386234593391418
10.406808845996856
10.471513147354125
10.485630369186401
10.397192652225494
10.258027534484864
10.099083392620086
9.919196319580077
9.796195619106292
9.832465813159942
9.961038043498993
9.998776156902313
9.922467565536499
9.864051749706269
9.867654342651367
9.866468677520752
9.800348553657532
9.67082334280014
9.579690227508545
9.629390482902528
9.738583774566651
9.753149902820587
9.703637349605561
9.714678437709809
9.755939288139343
9.697377576828003
9.537215049266814
9.379512228965758
9.266063821315765
9.225602190494538
9.290757377147674
9.35870083808899
9.31142049074173
9.219976646900177
9.203510789871215
9.221858966350556
9.164004299640656
9.051015040874482
8.993139519691468
8.975526835918426
8.883894741535187
8.750452268123627
8.74158519268036
8.850564277172088
8.910887670516967
8.929453461170196
9.015376899242401
9.094429833889007
9.049306669235229
8.944975452423096
8.892010626792908
8.874799048900604
8.85544320344925
8.890692653656005
9.006890292167663
9.08873541355133
9.06279024362564
9.050477907657623
9.122789301872253
9.1352503657341
9.029586369991302
8.976946876049041
9.046053702831268
9.073718221187592
8.993996376991271
8.956806948184967
9.032278227806092
9.10001303434372
9.08620266675949
9.071815674304963
9.106931519508361
9.113887016773225
9.034386508464813
8.925652735233307
8.870924305915832
8.856801850795746
8.81800751209259
8.792707641124725
8.841302161216737
8.884973638057708
8.878910088539124
8.929837563037871
9.062126226425171
9.168493762016297
9.213824622631073
9.23935289144516
9.266864421367645
9.294562969207764
9.30824922323227
9.325624632835389
9.376767709255219
9.3890167760849
9.255042657852172
9.071739737987519
9.07326904773712
9.274733774662018
9.453265423774718
9.485581572055816
9.472489058971405
9.51173389673233
9.536391668319702
9.468126204013824
9.377460422515869
9.350911889076233
9.320754637718201
9.229550704956054
9.188628056049346
9.268539402484894
9.385961685180664
9.480240302085877
9.545887815952302
9.532418575286865
9.44838953256607
9.434591391086578
9.536635699272155
9.628810911178588
9.649706416130066
9.662291853427886
9.658659183979035
9.517995128631592
9.267385907173157
9.1523366522789
9.257695703506469
9.390622615814209
9.445324018001557
9.491161646842956
9.53823741197586
9.536757588386536
9.510976490974427
9.487940890789032
9.417816438674926
9.322047128677369
9.308902692794799
9.340883650779723
9.290044775009155
9.185025465488433
9.135681040287018
9.176078004837036
9.278537769317627
9.366347239017486
9.377556626796723
9.370424149036408
9.43900634765625
9.550666768550872
9.590908234119416
9.527320821285247
9.432909498214721
9.366700377464294
9.311785464286805
9.263668866157532
9.296906673908234
9.446938617229462
9.57912478685379
9.553673458099365
9.482535104751587
9.5320330452919
9.611309499740601
9.598777773380279
9.580600681304931
9.622780594825745
9.648756289482117
9.611079170703889
9.529884848594666
9.427982997894286
9.35479390144348
9.34213329076767
9.348189334869385
9.368891348838806
9.491783361434937
9.752312517166137
10.013135919570923
10.068950033187866
9.901433699131012
9.689490406513213
9.548081336021424
9.483310713768006
9.511997647285462
9.602620623111726
9.637953412532806
9.588601055145263
9.571003317832947
9.609953927993775
9.598109793663024
9.556917960643768
9.600586814880371
9.706427795886993
9.765964410305024
9.74274055480957
9.686969826221466
9.661456143856048
9.699509820938111
9.799381566047668
9.90167819738388
9.928836483955383
9.887215480804443
9.850131342411041
9.844723258018494
9.856863632202149
9.88242829799652
9.884792478084565
9.82216462135315
9.723890480995179
9.6601646900177
9.683227837085724
9.773891952037811
9.886541600227355
10.012832968235015
10.07569850921631
10.008123991489411
9.938184514045716
9.971368947029113
10.011464936733246
10.006340479850769
10.038744497299195
10.103003139495849
10.114748353958129
10.079968402385711
10.011421875953674
9.847533681392669
9.605394711494446
9.451379234790801
9.508306803703308
9.699346997737884
9.87821483850479
10.000638966560365
10.102200601100922
10.206063675880433
10.282609496116638
10.32412970304489
10.40577003479004
10.538775691986084
10.613016846179962
10.581248469352722
10.52294350385666
10.516954259872437
10.548711156845092
10.574649710655212
10.613753633499146
10.676447031497956
10.70327629327774
10.648848037719727
10.539985308647156
10.4412624502182
10.38338472366333
10.30400185585022
10.138509538173675
9.991272735595704
9.985755565166473
10.026959676742553
10.014667887687683
10.007643179893494
10.020958309173585
10.00403478384018
9.973288760185241
9.954831535816192
9.885912272930145
9.723160166740417
9.573337445259094
9.527831456661225
9.518971354961396
9.512001585960387
9.575591151714326
9.660673789978027
9.649262969493867
9.597726724147797
9.600030009746552
9.612296340465546
9.62386860370636
9.728408920764924
9.917932856082917
10.014294157028198
9.920068204402924
9.776919457912445
9.739972548484802
9.776666548252106
9.795275416374206
9.786716413497924
9.76693694114685
9.701321692466736
9.558238437175751
9.405275492668151
9.352041475772857
9.395524349212646
9.440479111671447
9.451945259571076
9.471493322849273
9.495923166275025
9.46898431301117
9.401786115169525
9.352046921253205
9.30647308588028
9.215959987640382
9.101755158901215
9.047184004783631
9.1210630941391
9.293043880462646
9.395596823692323
9.326023769378661
9.230973436832429
9.259696898460389
9.342250049114227
9.380458080768586
9.388984794616698
9.394066066741944
9.412805280685426
9.498266875743866
9.657970535755158
9.80048210144043
9.837317345142365
9.779809148311616
9.677261662483215
9.541983647346497
9.449862220287322
9.50452623605728
9.617793400287628
9.646385865211487
9.654857733249663
9.722623269557953
9.737349400520324
9.620397624969483
9.473047695159913
9.405538980960847
9.433719172477723
9.482421913146972
9.452520906925201
9.378214008808136
9.36759037256241
9.415146658420563
9.454101800918579
9.456757426261902
9.429349627494812
9.415298945903778
9.455897548198699
9.50722554206848
9.467184805870057
9.337899208068848
9.26320377111435
9.304887139797211
9.351334304809571
9.357429931163788
9.4282492852211
9.571296784877777
9.628510158061982
9.528747663497924
9.405842761993409
9.417250881195068
9.552478439807892
9.677774202823638
9.710412518978119
9.652966585159302
9.540346975326537
9.457392914295196
9.491979746818542
9.599477157592773
9.636761598587036
9.556611878871918
9.444033799171448
9.379989445209503
9.385101721286773
9.431155467033387
9.486868329048157
9.605007193088532
9.796812179088592
9.899137804508209
9.851784625053405
9.823074910640717
9.861820571422577
9.868543322086333
9.864057109355926
9.888057646751404
9.897886860370637
9.88640331029892
9.823581838607788
9.677253863811494
9.567413320541382
9.589197156429291
9.64114848613739
9.614338228702545
9.545922629833221
9.547338333129883
9.630059156417847
9.650051198005677
9.512961823940277
9.320050382614136
9.215683605670929
9.193527281284332
9.155164985656738
9.107509360313415
9.12204868555069
9.145938532352448
9.086849586963654
9.01817765235901
9.0850905418396
9.268336634635926
9.388603448867798
9.338412246704102
9.242950236797332
9.270395979881286
9.364603729248048
9.410551974773407
9.453912830352783
9.491206712722779
9.397012422084808
9.211315231323242
9.067303307056427
8.92777732372284
8.759476144313812
8.6634050655365
8.65104145526886
8.625512249469757
8.576738884449005
8.534625279903413
8.482818276882172
8.443288366794587
8.414597680568695
8.338293151855469
8.271228775978088
8.280609631538391
8.294333250522614
8.317815737724304
8.435873601436615
8.573247215747834
8.609841542243958
8.584794602394105
8.586818144321441
8.594195322990418
8.545635979175568
8.504150383472442
8.5900958943367
8.76646657705307
8.894601287841796
8.979079627990723
9.12552770137787
9.311619594097138
9.435288445949555
9.483147437572478
9.471527242660523
9.386376130580903
9.292035028934478
9.316097340583802
9.456054060459136
9.550074012279511
9.512520377635957
9.462495510578156
9.516537091732026
9.616657996177674
9.650860049724578
9.610028836727142
9.566200113296508
9.516269791126252
9.389776840209962
9.267312576770783
9.2855814576149
9.3592219042778
9.393826258182525
9.529739949703217
9.826729030609131
10.078586564064025
10.15089275598526
10.15864309310913
10.211437520980835
10.244446020126343
10.169286670684814
10.031890408992767
9.938860907554627
9.89370271205902
9.831693966388702
9.790340230464935
9.860180761814117
9.990675764083862
10.028256826400757
9.95565042734146
9.948217325210571
10.096865735054017
10.22892037153244
10.176264915466309
10.030966327190399
9.960018932819366
9.946649026870727
9.858256306648254
9.686970093250274
9.558772480487823
9.522485489845275
9.523801388740539
9.529068491458894
9.554544379711151
9.628606343269348
9.726911790370941
9.780675513744354
9.750331223011017
9.62394697189331
9.453154773712159
9.353928396701813
9.314034793376923
9.221007330417633
9.117730417251586
9.113872990608215
9.1780624127388
9.252649874687195
9.378183612823486
9.58553735256195
9.812752192020417
9.977165274620056
10.037947766780853
9.986942331790924
9.846828877925873
9.674235475063323
9.531412680149078
9.467098326683045
9.50312806367874
9.583409559726714
9.614957282543182
9.601566803455352
9.612848415374756
9.668704071044921
9.742448122501374
9.780935008525848
9.73692818403244
9.624434609413147
9.476016132831573
9.30934177160263
9.187567927837371
9.172767748832703
9.211551132202148
9.223367328643798
9.222856080532074
9.222486774921418
9.164238665103912
9.054694030284882
9.017955193519592
9.10064710855484
9.17033254146576
9.130132863521576
9.056781237125398
9.024354777336121
9.018115606307983
9.07459850549698
9.231607522964477
9.394430406093598
9.493987336158753
9.603029863834381
9.766536870002746
9.88886289358139
9.867308700084687
9.763961102962494
9.718667180538178
9.731554610729217
9.71333194732666
9.655388700962067
9.584809768199921
9.47999581336975
9.31948098897934
9.154168467521668
9.096171905994415
9.195822246074677
9.360370490550995
9.475773723125458
9.544264068603516
9.617126479148865
9.683225102424622
9.69026087284088
9.633728063106537
9.571965005397796
9.537719712257385
9.511740863323212
9.478655986785888
9.43116489648819
9.36232459306717
9.283042747974395
9.251190779209137
9.373293979167938
9.629623050689696
9.779805657863617
9.68860795021057
9.542549057006836
9.537954578399658
9.621742186546326
9.67241758108139
9.675769431591034
9.64339476108551
9.58743227481842
9.565406739711761
9.59733196258545
9.65892386674881
9.771961438655854
9.89807699918747
9.877537548542023
9.677860696315765
9.468281953334808
9.364451327323913
9.340837955474854
9.337813768386841
9.345029518604278
9.435190744400025
9.600534682273866
9.662887828350067
9.573338861465453
9.507747535705567
9.561734974384308
9.667643225193023
9.747737319469453
9.779887533187866
9.785653698444367
9.786805851459503
9.769889965057374
9.713714661598205
9.602595617771149
9.403900909423829
9.125166118144989
8.870766108036042
8.774610877037048
8.858382039070129
8.989690446853638
9.046662049293518
9.037391786575318
9.048072168827057
9.149189116954803
9.292288482189178
9.34948534965515
9.294564247131348
9.210755794048309
9.138898804187775
9.066411247253418
9.017246532440186
9.019867298603058
9.04573506116867
9.067656452655791
9.098943510055541
9.158161387443542
9.263391282558441
9.3894633603096
9.441850879192351
9.37617043018341
9.26700719833374
9.210813665390015
9.225411901473999
9.271855101585388
9.352751622200012
9.49034152984619
9.62554649591446
9.704473056793212
9.77956295490265
9.85120079755783
9.807190201282502
9.663730988502502
9.601127669811248
9.679881436824799
9.757320899963378
9.727010595798493
9.67747884273529
9.708625173568725
9.746804311275483
9.718755838871003
9.680334641933442
9.64713387966156
9.554446303844452
9.437681236267089
9.441712129116059
9.591758925914764
9.733440554141998
9.770962073802949
9.786613817214965
9.842072741985321
9.872917242050171
9.858381254673004
9.83383774280548
9.7712149477005
9.665930907726288
9.594833352565765
9.599112083911896
9.625869314670563
9.612567241191863
9.596250765323639
9.661434826850892
9.77368988275528
9.811423947811127
9.771854736804961
9.773378887176513
9.831316595077515
9.817349956035613
9.71251015663147
9.706390602588653
9.927111246585845
10.210443346500396
10.296139998435974
10.198812747001648
10.123123326301574
10.06797959804535
9.899251279830933
9.679369659423829
9.541346130371094
9.462035357952118
9.42735899925232
9.521954686641694
9.697736110687256
9.738794720172882
9.558188419342041
9.343681418895722
9.28181219816208
9.29203456878662
9.243620150089264
9.21085473537445
9.275857334136964
9.354960081577302
9.393652553558349
9.468422076702119
9.609115862846375
9.743277339935302
9.813147447109223
9.79306925535202
9.684637796878814
9.570173895359039
9.56294647693634
9.683067948818207
9.84774959564209
9.976914720535278
10.045223257541657
10.058159523010254
10.041206607818603
10.040555334091186
10.117677490711213
10.282836551666259
10.410904259681702
10.362045481204987
10.187702577114106
10.06765207529068
10.087765445709229
10.165386605262757
10.18464793920517
10.163384227752685
10.165890970230102
10.11405324935913
9.899056022167207
9.582369270324707
9.333100481033325
9.182805693149566
9.17337105512619
9.293831923007964
9.462148339748383
9.556109917163848
9.534897654056548
9.473326034545899
9.416895377635957
9.318198592662812
9.206648783683777
9.20494386434555
9.290080807209016
9.312704994678498
9.279399991035461
9.306097238063812
9.359728846549988
9.348871209621429
9.33928572177887
9.46270149230957
9.699424877166749
9.887609651088715
9.933670608997344
9.88329214811325
9.808310856819153
9.751602828502655
9.720630819797515
9.667844519615173
9.541721544265748
9.35498255968094
9.162113518714905
9.006904513835908
8.923639180660247
8.945266678333283
9.054424827098847
9.146421983242035
9.117135450839996
8.99249494791031
8.9037055850029
8.946582312583923
9.111558392047883
9.278188500404358
9.26559198141098
9.077985484600067
8.981076371669769
9.055387594699859
9.06321970462799
8.979848232269287
9.052050294876098
9.290703847408295
9.453633136749268
9.493484597206116
9.433665142059326
9.338669981956482
9.261721479892731
9.21168113708496
9.189389674663543
9.217603406906129
9.283778765201568
9.336950702667236
9.362922804355621
9.402282099723816
9.481679220199585
9.560270397663116
9.539486124515534
9.410664970874786
9.370876433849334
9.562981042861939
9.811619620323182
9.841921191215516
9.64449803352356
9.462505977153779
9.448627066612243
9.528905143737793
9.607255997657775
9.67443293094635
9.713023731708526
9.67480565071106
9.594529695510865
9.585475389957429
9.656141033172608
9.713688087463378
9.771004209518432
9.899778809547424
10.047814335823059
10.150853881835937
10.216601529121398
10.197239463329316
10.08786083459854
10.002976908683777
9.963639676570892
9.949125168323517
10.055072934627534
10.233074464797973
10.247632694244384
10.111390075683595
10.060416707992553
10.125386848449708
10.173701696395874
10.179574325084687
10.191511676311492
10.218712921142577
10.235891902446747
10.215542380809785
10.175674922466278
10.200369625091552
10.323798451423645
10.423438277244568
10.38475587129593
10.302371070384979
10.293111834526062
10.290558009147643
10.240545091629029
10.216481430530548
10.255501585006714
10.294171943664551
10.240245084762574
10.059935824871063
9.822556371688842
9.659715979099273
9.656661419868469
9.756637456417083
9.81779053926468
9.759482822418214
9.623208923339844
9.498794839382171
9.429260125160217
9.445315351486206
9.552064402103424
9.657815783023834
9.723555672168732
9.829483885765075
9.947245748043061
9.924042456150055
9.740828332901001
9.525627644062043
9.383777487277985
9.385886151790618
9.518458080291747
9.642047927379608
9.68856195449829
9.702779841423034
9.681012976169587
9.626061022281647
9.590381517410279
9.566729006767273
9.549980483055116
9.579659118652344
9.616417269706727
9.58620144367218
9.520657742023468
9.50779155731201
9.565596189498901
9.636709640026092
9.649212369918823
9.560284461975098
9.420421581268311
9.360733425617218
9.40996450662613
9.417072231769561
9.306664323806762
9.247569758892059
9.354733040332794
9.469899117946625
9.457664813995361
9.443206105232239
9.575378897190093
9.783984830379486
9.923754985332488
9.967082297801971
9.952171144485474
9.901338384151458
9.83996279001236
9.828537280559539
9.912120869159699
10.04366588115692
10.124521913528442
10.087709729671479
9.967104346752167
9.888816292285918
9.885634405612945
9.837407190799713
9.692603628635407
9.578013100624084
9.618842515945435
9.748276362419128
9.793203752040863
9.70213898897171
9.562312867641449
9.462068831920623
9.408843548297883
9.362529807090759
9.343904519081116
9.40047440290451
9.498648972511292
9.58222234249115
9.625097286701202
9.586935470104217
9.46982278585434
9.38590163230896
9.415471580028534
9.464333333969115
9.40844468832016
9.300617637634277
9.301465911865234
9.432674765586853
9.533107166290284
9.51023890733719
9.465033502578736
9.510366306304931
9.613364367485046
9.62927503824234
9.478807332515716
9.299642629623413
9.278929734230042
9.372905373573303
9.399744162559509
9.296383974552155
9.140201423168183
9.034000723361968
8.982901442050935
8.89877512216568
8.789471714496612
8.747003102302552
8.746591444015502
8.733926961421966
8.790557973384857
8.988950510025024
9.240184633731841
9.397410473823548
9.410430207252503
9.359093301296234
9.33804969072342
9.341933615207672
9.335615677833557
9.34466204881668
9.392097210884094
9.42273317337036
9.383609845638276
9.335513019561768
9.384128885269165
9.510770695209503
9.571804056167602
9.514059102535247
9.44422845363617
9.460032961368562
9.568898901939392
9.695536692142486
9.709982616901398
9.578316338062287
9.432441048622131
9.397314701080322
9.45435938835144
9.498530478477479
9.465121238231658
9.417698388099671
9.453717558383941
9.528624274730682
9.537481489181518
9.503863642215729
9.521189892292023
9.621798198223114
9.79729378938675
9.990995285511017
10.062605760097505
9.936974146366119
9.729748809337616
9.615946135520936
9.62655240058899
9.631572618484498
9.562883996963501
9.539297337532043
9.650727167129517
9.806501817703246
9.898264787197114
9.906948308944703
9.830870261192322
9.682218217849732
9.523589882850647
9.432270405292511
9.437730150222778
9.491339499950408
9.545293099880219
9.600663993358612
9.637073421478272
9.633723826408387
9.640302398204803
9.75422667980194
9.979817838668824
10.125108263492585
10.041548428535462
9.864718954563141
9.784111618995667
9.800624096393586
9.879131379127502
10.017326409816741
10.07954273223877
9.966479716300965
9.87482901096344
9.98793964624405
10.16386637210846
10.197119843959808
10.10684072971344
10.0580877327919
10.136505451202392
10.23590835094452
10.196161859035492
10.044408075809478
9.949167504310608
9.928997497558594
9.852133944034577
9.686244294643402
9.496497209072112
9.329499363899231
9.256437571048737
9.323523378372192
9.444819626808167
9.533940823078156
9.60295224905014
9.65128154039383
9.666355192661285
9.689207351207733
9.735945472717285
9.75513839006424
9.707246134281158
9.62537812948227
9.577560892105103
9.580807104110718
9.608858916759491
9.641435298919678
9.661445004940033
9.670971603393555
9.671655235290528
9.638724291324616
9.570974264144898
9.509610674381257
9.473461136817932
9.399334542751312
9.291732366085052
9.326852757930755
9.534228782653809
9.67118947982788
9.612983698844909
9.491770360469818
9.409192242622375
9.339914002418517
9.312366781234742
9.401563501358032
9.53856177330017
9.581329090595245
9.53248694896698
9.499415318965912
9.51508945941925
9.502054748535157
9.389557566642761
9.226340689659118
9.1491068816185
9.206212875843049
9.318341813087464
9.459546689987183
9.628328166007996
9.750080862045287
9.829200258255005
9.923133132457734
9.983225724697114
9.964059624671936
9.930255482196808
9.930813977718353
9.938102927207947
9.957730298042298
10.01496248960495
10.066452267169952
10.06021405696869
9.993819403648377
9.907687110900879
9.878584179878235
9.935107650756835
9.995601980686187
9.971948409080506
9.8781507897377
9.784670507907867
9.708683080673218
9.616414453983307
9.501328265666961
9.391121747493743
9.314196026325225
9.27376908302307
9.25693150281906
9.249252109527587
9.188969521522521
9.023054604530335
8.862594063282012
8.902553300857544
9.138373398780823
9.321112883090972
9.269472358226777
9.09212005853653
8.979695262908935
8.947230796813965
8.934461369514466
8.951671106815338
9.020344874858857
9.143511431217194
9.308921821117401
9.447019319534302
9.497594573497771
9.488442027568817
9.4805308842659
9.471823613643647
9.407868671417237
9.304377377033234
9.198309650421143
9.063713593482971
8.962679791450501
9.02868686914444
9.241724541187287
9.434316709041596
9.506297171115875
9.524005880355835
9.561532571315766
9.560432951450348
9.457987611293794
9.328699269294738
9.302405920028686
9.399731559753418
9.5168447971344
9.577057945728303
9.595741760730743
9.598384222984315
9.598657371997833
9.626640450954437
9.692602822780609
9.772075510025024
9.875967626571656
10.036312193870545
10.178832430839538
10.171901803016663
10.014461119174957
9.81635228395462
9.676395981311797
9.652458341121674
9.71990114927292
9.776730041503907
9.744918336868286
9.641027669906617
9.55705982208252
9.541749024391175
9.533635609149933
9.50527482032776
9.53020720243454
9.608488190174103
9.651932351589203
9.635097529888153
9.588592872619628
9.5471018409729
9.543079066276551
9.570416297912598
9.583038883209229
9.568724269866943
9.575135231018066
9.650071921348571
9.80944156885147
9.978221154212951
10.005463271141052
9.87977501630783
9.750334930419921
9.705871832370757
9.723556759357452
9.754529740810394
9.77148606300354
9.805303690433503
9.902706642150878
10.019537897109986
10.086118476390839
10.133730664253235
10.18390472650528
10.157197415828705
10.038916344642638
9.946815793514252
9.945138895511628
9.953304221630097
9.903401310443877
9.843564388751984
9.806729497909545
9.740442559719085
9.651621565818786
9.65458144903183
9.798552038669586
9.991541316509247
10.148180782794952
10.26653960943222
10.311498947143555
10.206343216896057
10.018898377418518
9.949296398162842
10.06697541475296
10.242251734733582
10.345396585464478
10.341455905437469
10.235678143501282
10.108472471237183
10.06888905286789
10.078063132762908
10.04459055185318
10.005014085769654
9.988939728736877
9.944217875003815
9.884635934829712
9.859799835681915
9.850330226421356
9.798829836845398
9.676270139217376
9.56704490184784
9.583532845973968
9.651080238819123
9.611975238323211
9.493042802810669
9.454068746566772
9.53164627790451
9.600050308704375
9.581712222099304
9.514565110206604
9.42393468618393
9.316192269325256
9.229341864585876
9.187654814720155
9.188814885616303
9.204962725639342
9.16124792098999
9.044683978557586
8.98804000377655
9.078819079399109
9.221334948539734
9.329003281593323
9.461236786842345
9.670724606513977
9.87804417848587
9.979855563640594
9.974264121055603
9.909790139198304
9.820309193134309
9.756947271823883
9.773291664123535
9.8563290309906
9.928252608776093
9.916485984325409
9.844156494140625
9.82746461868286
9.91431170463562
10.019525547027587
10.063580405712127
10.062410287857055
10.056905119419097
10.05112396478653
10.077225003242493
10.202544949054719
10.389484333992005
10.500037851333618
10.492757904529572
10.458594710826874
10.486104316711426
10.563730497360229
10.584526870250702
10.504178078174592
10.41675651550293
10.395912435054779
10.370581181049348
10.205105206966401
9.917424910068512
9.726786296367646
9.752291958332062
9.854801456928254
9.912364530563355
9.965722796916962
10.03796201467514
10.071747694015503
10.036458477973937
10.004865829944611
10.10620189666748
10.337638640403748
10.507411901950837
10.515494141578674
10.496199667453766
10.521753950119018
10.467731728553773
10.255166029930114
9.991132650375366
9.853672485351563
9.885797293186188
9.952254631519317
9.945252358913422
9.915902268886565
9.941262056827545
9.976043493747712
9.92465627193451
9.803231449127198
9.686144194602967
9.550959177017212
9.377142634391785
9.25640299797058
9.217053542137146
9.174000816345215
9.152373449802399
9.220175576210021
9.249570455551147
9.132041330337524
8.992402119636536
8.944948890209197
8.951654047966004
8.966896405220032
8.996901407241822
9.046462733745575
9.113754496574401
9.193072617053986
9.24441594362259
9.234067578315734
9.212982158660889
9.254680485725403
9.331943850517273
9.37015098810196
9.373824324607849
9.38172155380249
9.364619905948638
9.28445407152176
9.193907673358916
9.176337943077087
9.23465484380722
9.320530433654785
9.390693850517273
9.393801138401031
9.350183758735657
9.346006879806518
9.367897024154663
9.376008434295654
9.413941676616668
9.491521880626678
9.575902352333069
9.658170075416566
9.717288434505463
9.718347780704498
9.655839323997498
9.579182877540589
9.544899427890778
9.531531233787536
9.499344556331634
9.482941431999206
9.541938226222992
9.693509349822998
9.888740825653077
10.044774553775788
10.119502575397492
10.101441185474396
9.990452053546905
9.876281430721283
9.885831286907196
9.962546896934509
9.927520215511322
9.792616407871247
9.73190773487091
9.76940188407898
9.770025649070739
9.722863111495972
9.7562819480896
9.868441064357757
9.930524015426636
9.91849447965622
9.903436770439148
9.904272181987762
9.8924422955513
9.85683397769928
9.796621961593628
9.719185309410095
9.672754921913146
9.69311982870102
9.724231927394866
9.682534904479981
9.57698322057724
9.47295304298401
9.368620429039002
9.246660315990448
9.15469300031662
9.089351615905763
8.991132872104645
8.890195016860963
8.84563127040863
8.834344975948333
8.827737758159637
8.83858998298645
8.860260531902313
8.901764268875121
9.039628863334656
9.265678188800813
9.424653239250183
9.439371478557586
9.391036064624787
9.351569418907166
9.28872001171112
9.153329191207886
9.005558853149415
8.929268765449525
8.901108696460724
8.897971131801604
8.948348023891448
9.014180121421814
9.021377980709076
9.011710586547851
9.10370014667511
9.272104151248932
9.34928453207016
9.2690154504776
9.118575496673584
8.997198610305785
8.937714836597443
8.92774451494217
8.966284799575806
9.056993863582612
9.174691760540009
9.282306995391846
9.357013978958129
9.398015100955963
9.422894237041474
9.475680084228516
9.571715579032897
9.614612476825714
9.523010165691376
9.395077497959138
9.351748583316803
9.358712763786317
9.38279599428177
9.465259606838226
9.558549129962921
9.596817424297333
9.630321865081788
9.679274554252624
9.686613743305207
9.657974417209624
9.620500531196594
9.54036952972412
9.434106888771057
9.38266028881073
9.366277389526367
9.295402326583861
9.188268940448761
9.153179922103881
9.227310099601745
9.321371095180512
9.361297461986542
9.387993297576905
9.431288526058196
9.4630317568779
9.51401475429535
9.615500280857086
9.683098094463348
9.643219177722932
9.560894448757171
9.532784914970398
9.567497520446777
9.615692369937896
9.631131088733673
9.615217337608337
9.612251324653625
9.61490088224411
9.576058220863342
9.504739665985108
9.412520403861999
9.295269792079926
9.217386701107024
9.246320207118988
9.346924228668213
9.43865625858307
9.50387845993042
9.566503336429596
9.62320817232132
9.684447016716003
9.788241260051727
9.943992578983307
10.127372391223908
10.271487312316895
10.294546556472778
10.212386305332183
10.112138919830322
9.994377942085267
9.814989049434661
9.64656196832657
9.597241847515106
9.646840562820435
9.73519870042801
9.852693316936493
9.920403172969818
9.852154881954194
9.75648131608963
9.768180584907531
9.809602892398834
9.772259910106659
9.7169216132164
9.734005405902863
9.823225054740906
9.956423132419586
10.088313322067261
10.142355284690858
10.100772211551666
10.057471232414246
10.097356646060943
10.17664628982544
10.193054568767547
10.117861378192902
10.002176990509033
9.900466692447662
9.835774672031402
9.817687685489654
9.857357790470124
9.920275070667266
9.911350748538972
9.823081636428833
9.788572640419007
9.84040817975998
9.827951567173004
9.701565682888031
9.578538527488709
9.501378314495087
9.418131229877472
9.324331450462342
9.261319706439972
9.210071310997009
9.096029241085052
8.954786903858185
8.902319428920746
8.93074940919876
8.94667576789856
8.924507098197937
8.911537070274353
8.973233296871186
9.114295847415924
9.230327265262604
9.252478907108307
9.246937308311463
9.253340220451355
9.242011625766754
9.259851820468903
9.352844898700715
9.420208179950714
9.370926632881165
9.282132003307343
9.252452366352081
9.28214613199234
9.343777701854705
9.364278757572174
9.24944883108139
9.070009212493897
8.995512051582336
9.02072265625
8.985078015327453
8.85729398727417
8.779076566696167
8.805775015354156
8.844358248710632
8.837301695346833
8.839697105884552
8.925076034069061
9.045366320610047
9.083927536010743
9.07945763349533
9.164616568088531
9.289530324935914
9.311350865364075
9.269959251880646
9.289618861675262
9.348654491901398
9.355047240257264
9.312149534225464
9.26195743560791
9.192792637348175
9.106608166694642
9.100108861923218
9.265643601417542
9.463304641246795
9.459486107826233
9.350104212760925
9.38305834054947
9.480181062221527
9.436722228527069
9.319414403438568
9.3032084274292
9.383899195194244
9.414300715923309
9.303495056629181
9.133993654251098
9.023423707485199
8.953379871845245
8.865120327472686
8.789685146808624
8.804099621772766
8.929494929313659
9.067463517189026
9.073640732765197
8.938739063739776
8.820639154911042
8.832512693405151
8.891110258102417
8.900355677604676
8.933978250026703
9.076575191020966
9.231640703678131
9.246149861812592
9.164614086151124
9.143593094348908
9.180721561908722
9.174200806617737
9.12441938638687
9.103256368637085
9.106083743572235
9.045728778839111
8.911409471035004
8.822464790344238
8.839964199066163
8.886769149303436
8.914918990135194
8.928868961334228
8.91681693315506
8.931361680030824
9.036940686702728
9.163950436115265
9.217085568904876
9.202297310829163
9.13988641500473
9.05920032262802
9.036480326652526
9.034197947978974
8.954518973827362
8.901190710067748
8.991596858501435
9.110343563556672
9.15126389503479
9.144237499237061
9.114398992061615
9.099842627048492
9.142755572795869
9.21122899532318
9.266583399772644
9.314607379436493
9.348964085578919
9.319549040794373
9.20235360145569
9.067554302215576
9.030880424976349
9.146759159564972
9.330100400447845
9.421121251583099
9.355808253288268
9.201611061096191
9.05383112192154
8.94790085554123
8.884035506248473
8.893951618671418
8.963341372013092
9.004902651309967
9.00635120153427
9.015848734378814
8.998987543582917
8.914312138557435
8.860895686149597
8.94282036781311
9.071375761032105
9.113180394172668
9.121456532478332
9.214409143924714
9.34755722284317
9.4162246799469
9.456038637161255
9.52436686038971
9.563503415584565
9.545356664657593
9.52115782737732
9.510533561706543
9.521291422843934
9.56652048587799
9.595040893554687
9.557864356040955
9.501194977760315
9.473703818321228
9.477977559566497
9.507372479438782
9.506914808750153
9.465600454807282
9.503319926261902
9.640329358577729
9.702875466346741
9.612772305011749
9.50881474494934
9.517148089408874
9.58808866262436
9.62088419675827
9.644335603713989
9.727059106826783
9.776592693328858
9.668798232078553
9.501701452732085
9.444518175125122
9.485968079566955
9.550395886898041
9.619092390537261
9.648821985721588
9.592113196849823
9.481875364780427
9.387298052310944
9.350386478900909
9.388652987480164
9.469829776287078
9.53993093252182
9.59899888753891
9.639885005950928
9.635275082588196
9.618454961776733
9.615125763416291
9.579573299884796
9.484619019031525
9.366041128635407
9.245833241939545
9.104785885810852
8.942263810634612
8.782451140880585
8.664220132827758
8.64945131778717
8.746773204803468
8.877098307609558
8.968677277565002
9.02191424369812
9.064879631996154
9.082782258987427
9.053533556461334
9.009277091026306
8.99952240228653
9.037606439590455
9.082532284259797
9.07624746799469
9.020844113826751
8.970041103363037
8.932637071609497
8.867647273540497
8.78340833902359
8.759014604091645
8.831723442077637
8.883425629138946
8.787317700386048
8.65691607952118
8.675664615631103
8.798482279777527
8.901597528457641
8.997651915550232
9.106538772583008
9.169329481124878
9.189524965286255
9.245497887134553
9.362097494602203
9.506723992824554
9.613115391731263
9.581348600387573
9.41966037273407
9.286168940067292
9.276545407772064
9.323802239894867
9.328316175937653
9.314977362155915
9.39920782327652
9.555871756076813
9.599393062591552
9.487436122894287
9.419782328605653
9.520914075374604
9.67942275762558
9.816256234645843
9.970369231700897
10.075899505615235
10.020105710029602
9.828615925312043
9.608452122211457
9.471994304656983
9.478730051517486
9.576840164661407
9.687756986618043
9.784001979827881
9.843893706798553
9.82946016073227
9.739130373001098
9.645918724536896
9.631632423400879
9.681452851295472
9.744320168495179
9.823895199298859
9.879196174144745
9.825022587776184
9.693055019378662
9.617077872753143
9.681700930595397
9.820914988517762
9.874000639915467
9.777781233787536
9.62066395521164
9.50686975479126
9.461564590930939
9.444131302833558
9.399752004146576
9.314908890724181
9.208415858745575
9.090445866584778
9.011483011245728
9.05821935892105
9.206236219406128
9.310003604888916
9.301519978046418
9.273647649288177
9.32186220407486
9.39818574666977
9.371206221580506
9.22534819841385
9.140087749958038
9.234312648773193
9.349910387992859
9.315895960330963
9.224872987270356
9.213979485034942
9.237084460258483
9.250670702457429
9.306863861083984
9.37187078475952
9.362249050140381
9.30458756685257
9.258874003887177
9.206627032756806
9.107206604480744
8.978836741447449
8.875523898601532
8.848342866897584
8.943593831062318
9.1144398188591
9.224651138782502
9.272516052722931
9.345200130939483
9.386062328815461
9.341945374011994
9.324292159080505
9.427878515720368
9.582704856395722
9.636604025363923
9.551412184238433
9.44868886947632
9.41480726480484
9.421935381889343
9.439669833183288
9.441781437397003
9.398333132266998
9.364502267837524
9.420615005493165
9.528783526420593
9.589743463993072
9.574691910743713
9.503998186588287
9.39355409860611
9.293264276981354
9.24203125476837
9.179320735931396
9.054348649978637
8.926981518268585
8.857537608146668
8.833308889865876
8.842060761451721
8.912369067668914
9.055572431087494
9.224163711071014
9.334002041816712
9.334054448604583
9.273551201820373
9.227862362861634
9.210313241481781
9.231791124343872
9.297780888080597
9.365782086849213
9.446245744228364
9.587579581737518
9.726088464260101
9.777705228328704
9.779511396884919
9.773735573291779
9.721524176597596
9.625192468166352
9.566277577877045
9.572208008766175
9.610579323768615
9.671876623630524
9.739234297275543
9.763454370498657
9.69343156337738
9.545258028507233
9.444032006263733
9.464922926425935
9.50236884355545
9.454921333789825
9.388502192497253
9.40530056476593
9.493849365711212
9.566312551498413
9.570874292850494
9.521895632743835
9.454845690727234
9.418012399673461
9.455049712657928
9.535249674320221
9.588705294132232
9.59670814037323
9.572132313251496
9.541683304309846
9.54771056652069
9.598172240257263
9.691642227172851
9.84609302520752
9.977846400737763
9.934956843852996
9.755113401412963
9.617276985645294
9.58047870874405
9.604489734172821
9.646735005378723
9.634560477733611
9.522513184547424
9.393979849815368
9.389533796310424
9.524826788902283
9.630461757183076
9.567665112018584
9.456681594848632
9.445928473472595
9.421728875637054
9.258253614902497
9.073249335289
9.018275597095489
9.064569876194
9.064389443397522
8.947455639839172
8.845469880104066
8.898641831874848
9.01409119606018
9.027760474681854
8.96597846031189
8.961563222408294
9.050293905735016
9.194845879077912
9.376998372077942
9.531692788600921
9.532603685855866
9.391566514968872
9.314199295043945
9.389772715568542
9.459383885860444
9.432622413635254
9.383464870452881
9.31269403219223
9.184462583065033
9.077795548439026
9.069852566719055
9.144029588699341
9.249989485740661
9.305040330886841
9.245759768486023
9.134561307430268
9.042146692276
8.95024055480957
8.912254889011383
9.014465465545655
9.156343493461609
9.16901040315628
9.079214911460877
9.049560422897338
9.11950511932373
9.172837450504304
9.143750200271606
9.09355221748352
9.07753410100937
9.076196837425233
9.07862797498703
9.099196329116822
9.113456909656525
9.1397177362442
9.274866623878479
9.473489010334015
9.532358820438384
9.415252995491027
9.304985046386719
9.30591180086136
9.324186675548553
9.242175378799438
9.113185095787049
9.1152273106575
9.292066605091096
9.484168159961701
9.551125814914704
9.484695317745208
9.320943281650543
9.125415058135987
9.017838246822357
9.055381410121917
9.142229778766632
9.190495147705079
9.265352590084076
9.420387341976166
9.565616672039033
9.642624406814575
9.744414021968842
9.916705448627471
10.029749345779418
9.98116762638092
9.828585386276245
9.700039622783661
9.687086598873138
9.737988665103913
9.729512853622436
9.675407569408417
9.625452065467835
9.5117777466774
9.3337672662735
9.215617971420288
9.163013100624084
9.041294448375702
8.849567713737487
8.762577698230743
8.842619976997376
8.95435678243637
8.98314069032669
8.946992208957672
8.892782092094421
8.806751079559326
8.715920622348785
8.722510619163513
8.804114234447479
8.843523342609405
8.860023274421692
8.925973944664001
9.009687805175782
9.039613449573517
8.984177813529968
8.902185494899749
8.890343616008758
8.914090828895569
8.8604345703125
8.758302295207978
8.731121907234192
8.789968290328979
8.874523830413818
8.971862516403199
9.04887919664383
9.058906345367431
9.036074676513671
9.00905933380127
8.926877028942108
8.782701869010925
8.669167952537537
8.628458862304688
8.598237464427948
8.574154140949249
8.631621992588043
8.773739490509033
8.949493184089661
9.1228684091568
9.216150782108308
9.187789542675018
9.165996735095979
9.261514310836793
9.368066668510437
9.383995361328125
9.396859581470489
9.478044877052307
9.58179379940033
9.686513187885284
9.774429841041565
9.781611552238465
9.723530921936035
9.665916724205017
9.596023728847504
9.51314641714096
9.48192142009735
9.508818821907044
9.519157569408417
9.450866520404816
9.327008275985717
9.23858773946762
9.22209888458252
9.22705373764038
9.231069164276123
9.25918594121933
9.31587423324585
9.38100695848465
9.404638895988464
9.351319665908813
9.30283465385437
9.342247531414031
9.378738360404968
9.331455109119416
9.296577489376068
9.331018850803375
9.35314234495163
9.300514767169952
9.186538376808166
9.099283759593964
9.132205202579499
9.234933490753173
9.296254472732544
9.304967143535613
9.271606314182282
9.178136777877807
9.060239243507386
8.979052395820618
8.94843146085739
8.97799092054367
9.103916776180267
9.285729441642761
9.376925919055939
9.318088908195495
9.234447064399719
9.22816879749298
9.253931314945222
9.286244957447051
9.356496820449829
9.40979499578476
9.406527545452118
9.452923913002014
9.597222638130187
9.718418624401092
9.762225630283355
9.831982495784759
9.975984041690827
10.112566649913788
10.185649416446687
10.22357387304306
10.235623717308044
10.179920883178712
10.062373902797699
9.95380346775055
9.89633055448532
9.882535383701324
9.896439261436463
9.928748650550842
9.984918370246888
10.06967610836029
10.13108012676239
10.10310221195221
10.058451948165894
10.098630278110504
10.116167044639587
10.010389127731322
9.918829505443574
9.941900277137757
9.957707617282868
9.849075028896332
9.692915394306183
9.648615517616271
9.73483624458313
9.82407220840454
9.83000218629837
9.783706200122833
9.772210202217103
9.834325151443482
9.898281865119934
9.873288683891296
9.7608678150177
9.657901542186737
9.64562005519867
9.669140033721924
9.651512792110443
9.6238067817688
9.601734626293183
9.53619974374771
9.457671687602996
9.476323807239533
9.570627732276916
9.57047240972519
9.451855437755585
9.394444456100464
9.466699891090393
9.532073392868043
9.503638775348664
9.468996543884277
9.53059642314911
9.660346214771272
9.776224727630614
9.865079102516175
9.958919396400452
10.056970796585084
10.122650709152222
10.154620623588562
10.177451300621033
10.164413781166077
10.097143363952636
9.998857312202453
9.86075936794281
9.702673845291137
9.591793494224548
9.547481656074524
9.576397180557251
9.668308172225952
9.75304705619812
9.80762312412262
9.86444667816162
9.903886895179749
9.901742553710937
9.88803858280182
9.86756191253662
9.83588387966156
9.860772466659546
9.96620216846466
10.04815167427063
10.05343222618103
10.056437253952026
10.096908383369446
10.13404812335968
10.138207364082337
10.129722576141358
10.147806901931762
10.167063298225402
10.126707000732422
10.078365058898926
10.134056582450867
10.252958474159241
10.26646315574646
10.16322738647461
10.11712031841278
10.147455496788025
10.086937308311462
9.901726627349854
9.720943059921265
9.6325128698349
9.609770197868347
9.581028213500977
9.517004938125611
9.445395674705505
9.41220543384552
9.411221046447753
9.393785486221313
9.352390775680542
9.297439036369324
9.248294277191162
9.25953007221222
9.342848329544067
9.473294773101806
9.64044777393341
9.756461200714112
9.709405093193054
9.57395835876465
9.531365990638733
9.599405403137206
9.627391691207885
9.533503608703613
9.433045043945313
9.477698073387145
9.619389643669129
9.687602453231811
9.673001923561095
9.707238569259644
9.795535311698913
9.808128142356873
9.705537948608399
9.59310278892517
9.542370805740356
9.482495346069335
9.361934523582459
9.271300563812256
9.281993908882141
9.341634855270385
9.380482277870179
9.390501413345337
9.388063640594483
9.355403056144715
9.290558757781982
9.275293869972229
9.352652435302735
9.425292992591858
9.440878729820252
9.49504011631012
9.616457118988038
9.703800740242004
9.730514788627625
9.755103840827942
9.748070025444031
9.665002293586731
9.58975215435028
9.586220369338989
9.602728681564331
9.597890391349793
9.588426671028138
9.605513668060302
9.63377583026886
9.61753574848175
9.566327228546143
9.534934611320496
9.531196479797364
9.55512011051178
9.623883695602418
9.700072612762451
9.691901507377624
9.59421374797821
9.545972566604615
9.644824590682983
9.808030371665955
9.887662887573242
9.857920460700988
9.82403938293457
9.825295300483704
9.779628705978393
9.676714072227478
9.623306064605712
9.643109951019287
9.617882852554322
9.517532658576965
9.502492585182189
9.667437505722045
9.86449390411377
9.889611949920655
9.745152797698974
9.641135635375976
9.722388582229614
9.893036136627197
9.964934287071229
9.89019250869751
9.794789886474609
9.781605348587036
9.791191358566284
9.733421802520752
9.63850037574768
9.612815051078796
9.69965118408203
9.784630308151245
9.73022494316101
9.62094831943512
9.62930519104004
9.701747493743897
9.699769983291626
9.684280257225037
9.766030597686768
9.86495710849762
9.856570110321044
9.804663791656495
9.829658741950988
9.886374368667603
9.865731930732727
9.790439019203186
9.772121486663819
9.836384496688844
9.900789966583252
9.936424293518066
10.001982707977294
10.081282243728637
10.088205971717834
10.0377516746521
10.022778477668762
10.051509747505188
10.044532251358032
9.980755300521851
9.938803381919861
9.96685751438141
10.007941694259644
10.016888384819032
10.05737205028534
10.165027494430541
10.243919115066529
10.211107335090638
10.093152832984924
9.98382670879364
9.9714674949646
10.035794448852538
10.05875557422638
9.985723247528076
9.90779553413391
9.897140460014343
9.881252884864807
9.831175599098206
9.839202036857605
9.899572796821595
9.885408549308776
9.786188182830811
9.75237506389618
9.859113521575928
10.000752263069153
10.083332977294923
10.1391659450531
10.1990300989151
10.219268708229064
10.157743906974792
10.019450945854187
9.85978588104248
9.766080241203309
9.764638571739196
9.790644969940185
9.808343510627747
9.860551462173461
9.957709193229675
10.020460991859435
9.975821871757507
9.849389047622681
9.70672878742218
9.570122833251952
9.444237298965454
9.331238813400269
9.233406491279602
9.200538024902343
9.25865186214447
9.318635258674622
9.300125193595886
9.23169599533081
9.165421743392944
9.115067996978759
9.071364831924438
9.015512890815735
8.927843146324157
8.798615770339966
8.657876682281493
8.58956347465515
8.628807282447815
8.682923583984374
8.664831943511963
8.640273218154908
8.732198700904846
8.917916841506958
9.058117575645447
9.081494579315185
9.006292448043823
8.88857852935791
8.824224672317506
8.865608248710632
8.91927375793457
8.84512095451355
8.662172298431397
8.528255176544189
8.50168909072876
8.504811367988587
8.530030751228333
8.642392406463623
8.777492256164551
8.817599024772644
8.82632963180542
8.909990587234496
9.004706344604493
9.024899020195008
9.00301166534424
8.994012308120727
8.989272141456604
8.972324104309083
8.970445394515991
9.000414214134217
9.066513328552245
9.171472611427307
9.26197723865509
9.274022669792176
9.216454830169678
9.071333513259887
8.876295523643494
8.832460284233093
8.92785843372345
9.027401003837586
9.08056306362152
9.135339784622193
9.217640914916991
9.292688660621643
9.359712805747986
9.454493308067322
9.509012970924378
9.437852096557616
9.373491015434265
9.49924892425537
9.706608381271362
9.735825152397156
9.548307304382325
9.336235780715942
9.266240611076356
9.337237043380737
9.448958992958069
9.536876978874206
9.582408809661866
9.56024685382843
9.484625344276429
9.428112945556641
9.457290749549866
9.566942114830017
9.646782956123353
9.602916445732117
9.48007562160492
9.359457259178162
9.274111213684082
9.237513012886048
9.228779625892638
9.220130953788757
9.207280702590943
9.149081897735595
8.997610001564025
8.813138036727905
8.721446142196655
8.748769311904907
8.816984276771546
8.88719391822815
8.980701627731323
9.0889905500412
9.168528232574463
9.213654375076294
9.265815725326538
9.39969388961792
9.566629986763001
9.558218393325806
9.42646453857422
9.374120240211488
9.464178252220155
9.57521441936493
9.627874970436096
9.634627609252929
9.578170819282532
9.477083945274353
9.46841869354248
9.615042934417724
9.709670977592468
9.529196200370789
9.237793951034545
9.187362656593322
9.381076307296754
9.502792348861695
9.419021053314209
9.312371010780334
9.325057535171508
9.370504541397095
9.358231563568115
9.365658721923829
9.472734065055848
9.600672869682311
9.615808815956116
9.498371949195862
9.370008778572082
9.341757106781007
9.387318634986878
9.469039826393127
9.625937175750732
9.821012029647827
9.912560386657715
9.84343210697174
9.72517387866974
9.693888206481933
9.74445010662079
9.771155943870545
9.711337537765504
9.575287070274353
9.40785891532898
9.263076419830321
9.169415636062622
9.123329906463622
9.12527545928955
9.176909108161926
9.233468832969665
9.235387167930604
9.18984133720398
9.144391841888428
9.10294915676117
9.035985407829285
8.975011925697327
8.989020595550537
9.051225032806396
9.090885920524597
9.125160737037659
9.18656063079834
9.216898746490479
9.168732566833496
9.149452176094055
9.270677194595336
9.407937951087952
9.361753296852111
9.171663222312928
9.038870906829834
9.023001999855042
9.018133225440979
8.983496513366699
8.993208799362183
9.083490676879883
9.20138882637024
9.25921082496643
9.221391320228577
9.169135270118714
9.204478392601013
9.306113243103027
9.377973732948304
9.38368013381958
9.303180117607116
9.104709868431092
8.897382378578186
8.868897790908813
9.015428705215454
9.169152975082397
9.25707974433899
9.313434224128724
9.341081004142762
9.38300325870514
9.534422369003297
9.761122517585754
9.915773353576661
9.904838733673095
9.76190315246582
9.62876039505005
9.603159995079041
9.617819819450379
9.56294602394104
9.432648277282714
9.315471949577331
9.312119469642639
9.417283844947814
9.50576575756073
9.515715317726135
9.51630464553833
9.542323112487793
9.543689579963685
9.509883751869202
9.511085271835327
9.569720702171326
9.579238567352295
9.46466633796692
9.297240023612977
9.166252846717834
9.12603877544403
9.239145593643189
9.462371368408203
9.627004690170288
9.6546239900589
9.613254380226135
9.564083209037781
9.494355382919311
9.420086765289307
9.441769361495972
9.571678814888001
9.665878987312317
9.665401210784912
9.693285140991211
9.80921266078949
9.898734130859374
9.903501353263856
9.912507014274597
9.943290114402771
9.879136118888855
9.680037908554077
9.449521913528443
9.290146689414978
9.20299569606781
9.058005919456482
8.777348613739013
8.524878158569337
8.43949390411377
8.722382469177246
9.04777428150177
9.17622001171112
9.217856240272521
9.273928828239441
9.289210696220398
9.289508681297303
9.404628920555115
9.674848980903626
9.927200770378112
9.861840434074402
9.682049593925477
9.850498757362367
10.301452722549438
11.037759685516358
11.997245168685913
12.847068009376526
13.046581516265869
13.486163921356201
15.122939500808716
17.36364037513733
19.66847743034363
22.02069984436035
24.357027311325073
26.084279589653015
26.676543855667113
26.540543489456176
26.79212806224823
27.261491966247558
27.936214256286622
28.6851535320282
29.483190383911133
30.351941566467286
31.221689314842223
32.01772636413574
32.66919744968414
33.03511429786682
32.8674125957489
33.56949059486389
34.99801489830017
36.38768074512482
37.49479332447052
38.66806947231293
40.01093920707703
40.870705347061154
40.94776037693023
41.47253659248352
41.625358033180234
41.92483969211578
42.44895595550537
42.68359486103058
42.677842226028446
42.42712924957275
42.97442885875702
44.4439858007431
46.141131024360654
47.281925082206726
47.78299767494202
47.66135320663452
47.74645402431488
48.724929637908936
50.09426413536072
51.57742544651032
53.533510918617246
55.251491203308106
55.38812069892883
54.664455485343936
54.85582452297211
54.29641344070435
52.62622806549072
50.45736919403076
48.461197924613955
46.568418436050415
44.63231186389923
42.80658453941345
42.4888595867157
43.6363988161087
44.769785528182986
45.60431677341461
45.45929121494293
44.83382873535156
44.50224666118622
44.05290505886078
43.833786082267764
43.97533370018005
44.02682692527771
43.985552201271055
44.848952074050906
45.63786056518555
45.588548703193666
44.478218145370484
43.44852016925812
42.443737111091615
41.40374613761902
41.42299096107483
42.8449272441864
44.28770066261291
46.459057359695436
48.34841398715973
49.19004179000854
49.10258682727814
48.76662250995636
49.398800292015075
49.70020601272583
48.84721872329712
47.062216324806215
46.88937396049499
47.95253049373627
49.267425980567936
49.351016187667845
48.291964273452756
46.96951377391815
45.19542767047882
42.96019015312195
40.592903895378114
39.88762063026428
40.64658860206604
40.761853523254395
40.70551075458527
41.01024150371551
41.5911768245697
42.41803863525391
43.571866393089294
45.036687564849856
46.75619379520416
47.20455723285675
46.150118017196654
45.590792031288146
45.758383674621584
47.01201533317566
48.470376291275024
49.55343855857849
51.04344732761383
52.26261286258698
52.405369234085086
51.61315851688385
51.39788218021393
50.8022828912735
50.9311222743988
51.4276042509079
51.85605464935303
52.09792352199555
53.73424126625061
56.46640577316284
58.8100764465332
59.63448394298553
58.821759295463565
56.5303355550766
55.95996137142181
57.75542516708374
61.11110144138336
64.1891101026535
65.0037298154831
64.46656059741974
65.68687022686005
67.94807498455047
68.35382926940918
67.108080701828
65.6263962507248
65.26042219161987
65.98656967639923
67.20642959594727
68.21582798957824
67.9861645936966
68.65515658855438
69.28731875896455
68.83248064517974
68.4044291973114
69.17550448417664
70.03366449356079
70.11664888858795
69.10926305294036
68.12166576385498
66.9430533027649
66.27752574443817
67.50084679126739
70.8905080461502
73.82811140537262
74.53008185386658
72.79204459190369
72.86881198883057
73.19804619312286
72.77860119342805
71.92165095806122
71.35394348621368
71.49670387744904
71.17281244754791
70.8404940032959
69.2505491065979
67.86459765911103
67.70354228019714
67.32580573558808
66.79579305171967
65.49916467189789
63.49801881313324
61.698946723937986
60.566217546463015
61.17576642036438
60.142087602615355
57.24217978000641
54.81152309894562
53.27145746231079
52.925564708709715
53.102038583755494
51.348382143974305
49.47560133457184
48.74218522548676
48.36204376220703
48.82130664825439
49.06589262008667
48.54144172668457
47.710845384597775
47.161247930526734
47.06849280834198
46.65759826660156
45.80809739112854
45.55508393764496
46.05489410400391
45.84354238986969
44.82879004001617
45.06405687808991
45.883458170890805
45.551797790527345
44.71042911052704
43.5340810918808
41.366788840293886
38.21129405975342
34.741412019729616
32.68375051498413
32.53702677249908
30.764289679527284
28.67625638961792
26.930162601470947
25.862517838478087
25.30905415058136
25.54970556259155
26.741920237541198
28.174259886741638
29.24889310359955
29.795370864868165
30.05143762588501
30.427661452293396
29.124633917808534
27.430401248931886
26.279440245628358
25.968446826934816
26.352550597190856
25.966822843551636
25.557540397644043
25.78882550239563
24.876912784576415
23.583358912467958
22.67660442829132
22.155725083351136
21.978715901374816
21.591987357139587
21.107291259765624
21.488194198608397
21.595486054420473
21.603029136657714
21.507454061508177
21.13639301300049
20.74887592792511
20.67194188117981
20.647005600929262
21.03729315280914
21.389950785636902
21.387592315673828
21.719400143623353
22.303742146492006
21.929213347435
21.60184000968933
21.790292959213257
21.773309845924377
22.173723845481874
22.69263171672821
22.547650780677795
22.195993337631226
22.16373523235321
22.3690425491333
22.374252886772155
22.404351024627687
22.478597393035887
22.5998037481308
23.101735348701478
23.356950907707215
22.725852022171022
21.828096837997435
21.217167329788207
20.6953320646286
20.12734645843506
19.85592312812805
20.00207284450531
20.083658738136293
20.034551968574522
19.87923233985901
19.62566955089569
19.751507573127746
19.56075183391571
19.616176986694335
20.049173402786256
20.434585704803467
20.50312066555023
20.330426602363588
20.61129199028015
21.798637952804565
23.56499022960663
24.969297709465028
25.359159631729128
24.942538499832153
25.23451117515564
25.560636787414552
25.302637333869935
25.957650299072267
26.199928493499755
25.67238172054291
25.296878204345703
25.063015079498292
24.8763121509552
25.089815783500672
25.716007013320922
26.124344964027404
25.86273878097534
26.20385530471802
26.215435953140258
26.034875178337096
26.696956038475037
28.558908190727234
30.95622932434082
33.126840224266054
34.762753224372865
35.663284230232236
35.89420053958893
35.69982414245605
35.639387536048886
35.559075493812564
35.367433071136475
35.09095730304718
34.851729440689084
34.776608424186705
34.850941028594974
34.857684535980226
34.7023048210144
34.593298234939574
34.562553448677065
34.592054471969604
34.63467729568482
34.50427352905273
34.78688976287842
34.505620951652524
33.8791090631485
33.45215696811676
33.50600292205811
33.965755667686466
33.8446909236908
32.90970739841461
31.298646368980407
29.734174060821534
29.80577560901642
30.658595900535584
30.409713039398195
29.99283567428589
30.2785800743103
29.77844903945923
29.134785561561586
29.019827160835266
28.917903690338136
28.352134833335878
27.978112907409667
27.051680779457094
26.116392302513123
25.208437514305114
25.520111808776857
26.32731909751892
27.184440703392028
28.040154843330384
27.87689414024353
26.128267970085144
25.18815963745117
25.749479756355285
27.168647956848144
28.043417897224426
27.972188835144042
28.307772612571718
28.624704399108886
29.061763553619386
29.134569416046144
29.435373225212096
30.179230089187623
30.47504843235016
30.538788056373598
30.71128448963165
30.822791633605956
31.019510378837584
31.71358976840973
32.50861662864685
32.91226609706879
32.67335328102112
33.062518434524534
33.96918671131134
34.7690275478363
34.74412388801575
35.08926742553711
35.70228506565094
36.292106790542604
36.75548335552216
37.36729834556579
38.06071905136108
37.564942560195924
36.90781062602997
36.77586430549621
36.96171649932862
37.7349949836731
38.675145258903505
39.050153703689574
39.00222943305969
38.904664158821106
39.13292694568634
39.08946838378906
39.42151194572449
39.6711011505127
40.00393055438995
39.469464530944826
38.51406891822815
37.535296692848206
36.59445312976837
35.83621419906616
35.982604274749754
34.90336227416992
32.642946252822874
30.315325727462767
29.242235288619995
29.49090256690979
29.19379315853119
28.342049188613892
27.437296590805055
27.197109541893006
26.655609951019287
25.962196736335756
25.565411171913148
25.077027769088744
24.98508421421051
24.869947957992554
24.790819296836855
24.202674221992492
23.546231198310853
23.660198888778687
24.699540815353394
24.80008520126343
23.803512287139892
22.68859592437744
22.526557874679565
22.0499987077713
21.273839926719667
20.77589033126831
20.195458073616027
19.40771680831909
18.771658773422242
18.32515838623047
18.181553087234498
18.097229299545287
17.805470032691957
17.007349338531494
16.376279444694518
16.18049865722656
16.31138448238373
16.345550417900085
16.280445799827575
16.510539498329162
16.69406274795532
16.579247407913208
16.343335132598877
16.3263702917099
16.09380702495575
15.823582005500793
15.818096928596496
16.191177363395692
16.025529789924622
15.374143033027648
14.8331662940979
14.285899982452392
13.70387635231018
13.289402747154236
13.185791373252869
13.145474710464477
13.046293292045593
13.129540977478028
13.901056518554688
14.531117424964904
14.666801209449767
14.859070010185242
15.277966532707214
16.052929315567017
16.60718545436859
16.515301098823546
17.529190611839294
18.637680983543397
18.909506187438964
18.77432960987091
18.847440671920776
18.851607637405394
19.165591764450074
19.14990198612213
19.33716920375824
19.94543652057648
20.610263876914978
20.68805729866028
20.601429181098936
21.033773007392885
21.074752130508422
21.533065123558046
22.117534008026123
21.951762375831603
21.57846734046936
21.77803580760956
22.805077834129335
23.93127417087555
24.732556595802308
24.854227509498596
24.463615107536317
24.40639669895172
24.85160737991333
25.173680295944212
25.3318602848053
25.71003590106964
26.30857171058655
26.62065248012543
26.371489734649657
26.801908197402955
26.989643321037292
27.18191405773163
27.86685402393341
28.860719418525697
29.47273404598236
29.493845582008362
29.761847429275512
29.50749053955078
28.789135937690734
27.764338183403016
27.335629243850708
27.1379860830307
26.72645275592804
26.207909750938416
25.607528400421142
25.613123483657837
24.546071038246154
23.137783064842225
22.223342881202697
21.90132830142975
22.194377102851867
23.185475668907166
23.658199763298036
23.789854326248168
23.41695906639099
22.764731950759888
22.156926560401917
21.872592477798463
21.583156447410584
21.10158725261688
20.99812511920929
20.668931212425232
20.29970461368561
20.222408690452575
20.32507516860962
19.891354122161864
19.041919708251953
18.19518811225891
17.6729515171051
17.366446962356566
17.368919954299926
17.145085597038268
16.708990621566773
16.549212756156923
16.42335021495819
15.953042030334473
15.08706826210022
14.618158588409424
14.966262888908386
14.83386025428772
14.557474083900452
14.167496428489684
13.352026953697205
12.268478684425354
11.833045802116395
12.344043707847595
12.647100214958192
13.010825533866882
13.022796168327332
13.008265352249145
13.048386044502259
13.519619164466858
13.859060554504394
14.024859404563903
14.076105127334595
14.104767379760743
14.093441739082337
13.9025994348526
13.506502885818481
13.330857005119324
12.829927620887757
11.810158257484437
10.906225776672363
10.593831024169923
10.536341094970703
10.483763270378113
10.651347408294678
10.713973736763
11.627936573028565
12.608873252868653
12.853361339569092
12.793923783302308
12.966556839942932
13.925748543739319
14.497693943977357
14.85770354270935
14.875842533111573
14.752335786819458
14.35664324760437
14.267425265312195
14.404464836120605
14.380388140678406
14.16781282901764
13.979912180900573
14.179580445289611
14.437408208847046
14.416441583633423
14.54470191001892
14.91375114440918
15.633565168380738
16.43798997402191
16.68608361721039
16.85587133407593
17.06972438812256
16.84078413963318
16.326577010154725
15.640714492797851
15.163921298980712
15.076497282981872
15.168636422157288
15.253695182800293
14.953300542831421
14.39683042526245
13.962622337341308
13.841194734573364
14.111825647354125
14.880877017974854
16.249638872146605
17.855833916664125
18.5577961063385
18.4735133934021
19.068361616134645
19.608167386054994
19.686632795333864
19.824423871040345
19.882661590576173
20.08772322654724
21.073381609916687
21.194459052085875
20.511139736175537
20.33301645755768
20.335756916999816
20.680450124740602
20.418072037696838
19.733242716789245
20.00285985469818
20.099978070259095
19.796443767547608
19.832035765647888
19.661640672683717
19.435840525627135
19.534351625442504
19.840604157447814
20.107666115760804
20.082758102416992
19.963687558174133
19.975193405151366
19.892400035858156
19.63576606273651
18.87876319885254
17.988860864639282
17.70013024330139
17.650416092872618
18.053815264701843
18.801334581375123
19.121369500160217
19.137735862731933
19.28907190799713
19.627602648735046
19.75831597805023
19.588629941940308
19.68539318561554
20.179415140151978
20.56216690540314
20.520454893112184
20.338093976974488
19.39070937156677
17.847803683280944
16.29890073776245
15.594620175361634
15.876935729980469
15.656922202110291
15.408152508735657
15.512783665657043
15.477113790512085
15.218933200836181
14.662893648147582
13.617082238197327
12.656206064224243
12.51391607761383
12.772939910888672
13.050985488891602
12.6578875541687
12.166970582008362
12.282581219673157
12.030813131332398
12.102931566238404
12.335790505409241
12.318445348739624
12.473291192054749
12.54463568687439
12.337934303283692
12.09680995941162
11.859975233078003
11.725778794288635
11.695891227722168
11.710112681388855
11.637759714126586
11.363018589019775
11.457711496353149
12.143717932701112
12.962555212974548
13.425846724510192
12.999900317192077
12.46373640537262
12.520314474105835
12.58458580493927
12.574259896278381
12.21473982810974
12.041083827018738
12.08131103515625
12.115363821983337
11.825617303848267
11.411058135032654
11.871534280776977
12.482104301452637
13.108566765785218
13.262697834968566
13.534698224067688
14.52817334651947
16.026736040115356
17.561167855262756
18.82798907279968
19.7648126745224
20.352227239608766
20.684719610214234
20.78481611728668
20.94101055622101
21.46929656982422
21.993961911201477
21.970631289482117
21.810044021606444
21.890894737243652
21.914247431755065
21.960207200050355
21.958992977142334
21.754099464416505
21.6358144569397
21.723821115493774
21.58209898471832
21.428027873039245
21.4619651556015
21.448756761550904
21.47632692337036
21.48484229564667
21.560801343917845
21.579933214187623
21.514970417022706
21.58446162223816
21.62657952785492
21.421448993682862
21.034076080322265
20.651926465034485
20.504678807258607
20.283755102157592
19.995622248649596
20.181896600723267
20.29113903045654
20.32528682231903
20.38612329006195
20.287528576850892
20.019429154396057
19.77502884864807
19.77770631313324
19.459519863128662
19.057608194351197
18.78835704803467
18.84706841468811
18.800125608444215
17.967054061889648
16.28818745613098
14.398596634864807
13.114446306228638
12.590573916435241
12.476014046669006
12.434517364501954
12.479049577713013
12.656144409179687
12.558367743492127
12.197914004325867
11.979085898399353
11.843986320495606
11.671127581596375
11.64026632785797
11.441686444282531
11.146637482643127
11.068223829269408
11.219224853515625
11.233616790771485
11.111643600463868
11.07693690776825
11.16086956501007
11.514294781684875
11.921324996948242
12.214402642250061
12.325977663993836
12.524283809661865
12.480163583755493
12.2643949842453
12.04245710849762
12.055599131584167
12.387319865226745
12.639815621376037
12.649409666061402
13.227141270637512
13.835904350280762
14.344929213523864
15.080791802406312
16.00356746673584
16.321252751350404
16.304553470611573
16.28664234161377
16.42179604053497
16.88603880405426
17.22084235191345
17.234761867523194
17.21460069179535
17.268239388465883
17.129394726753233
16.791548519134523
16.72878697872162
16.957116107940674
16.704469175338744
16.45448844432831
16.07997308731079
16.10751578807831
16.643653450012206
16.732675890922547
16.30373427391052
15.984528284072876
16.051468806266783
16.041031885147095
15.833075790405273
15.722776355743408
15.766942234039307
16.072738733291626
16.47886935710907
16.931745924949645
17.435211186408996
17.83363652706146
17.841041603088378
17.91781054973602
17.86934643268585
17.652641458511354
17.332196393013
17.011278796195985
16.842110443115235
16.99444745540619
17.28335973262787
17.41242914199829
17.22829626560211
16.89826283454895
16.84639386177063
17.120230531692506
16.873776502609253
16.539189987182617
15.990408630371094
15.02018283367157
14.056466989517212
13.793161253929139
13.843190946578979
13.961610541343688
13.871661624908448
13.834919438362121
14.176606540679932
14.324266657829284
14.178984360694885
14.400735588073731
14.489282994270324
14.660424966812133
14.873531799316407
14.870520057678222
15.14193651676178
15.276000485420226
15.749009656906129
16.06457589149475
15.746589651107788
15.515657768249511
15.555650119781495
15.504220933914185
15.553023266792298
15.618310027122497
15.567347059249878
15.546011867523193
15.522565803527833
15.157854137420655
14.577086691856385
14.076013641357422
13.94437647342682
14.180548629760743
14.636920351982116
14.799850950241089
14.837295641899109
14.96315655708313
15.219119853973389
15.433757286071778
15.460748181343078
15.247302684783936
14.996958050727844
14.913091373443603
14.873987379074096
14.655231137275695
14.304326877593994
14.01474184513092
13.748242917060852
13.376792502403259
13.40284788608551
13.640363092422485
13.86694938659668
14.203504805564881
14.964103798866272
15.486532325744628
15.757043447494507
15.63233504295349
15.332621645927428
15.433567457199096
15.694768352508545
15.45433865070343
15.38070665359497
15.347452249526977
15.540690689086913
15.74920189857483
15.511545042991639
15.233590755462647
14.75159438610077
14.270236496925355
14.135699844360351
14.419027915000916
15.118910527229309
16.021363501548766
16.3909663438797
16.4812948513031
16.654513435363768
16.651541085243224
16.709899687767027
16.87288733959198
16.945420422554015
16.883468294143675
16.67092466831207
16.28018886566162
15.79775267124176
15.457953815460206
15.039277424812317
14.649211921691894
14.401984648704529
14.28562270641327
14.378075752258301
14.726210675239564
15.069336109161377
15.16842336654663
15.179177765846253
15.485589528083802
16.100742912292482
16.60692494869232
16.85159562587738
17.068691964149476
16.93178403377533
16.81222846508026
16.860964493751524
16.389522123336793
15.781686396598817
15.298548784255981
14.978098425865173
14.68191876411438
14.390931196212769
14.334873609542846
14.493063416481018
14.50375096321106
14.407765769958496
14.404072217941284
14.13611135482788
13.91181324481964
14.103302845954895
14.174783363342286
14.203364233970643
14.101956439018249
13.873308038711547
13.406718082427979
12.735073013305664
11.939023847579955
11.45676604270935
11.45517237663269
11.616538934707641
11.775831604003907
11.769373078346252
11.579856185913085
11.678489108085632
11.926669950485229
11.910409488677978
11.694604139328003
12.158822340965271
12.954130029678344
13.856180982589722
14.404298276901246
14.548655014038086
14.529732980728149
14.385472989082336
14.092380151748657
13.748017015457153
13.504873814582824
13.375386652946473
13.147568578720092
12.6764382314682
12.124948830604554
11.854588875770569
11.684011149406434
11.608848915100097
11.580577311515809
11.656683530807495
11.945787720680237
11.821355204582215
11.606163458824158
11.709172658920288
12.002402400970459
12.085908465385437
11.795246715545654
11.420773997306824
11.297875428199768
11.355370669364929
11.32775695323944
11.149382147789002
10.926143736839295
10.719396204948426
10.53400433063507
10.624800415039063
11.122651767730712
12.122485213279724
13.594612183570861
14.744878873825073
15.022696194648743
15.332267107963562
15.822334485054016
15.957222714424134
15.742022638320924
15.978271484375
16.09565887451172
16.14364619255066
15.971711640357972
15.643187055587768
15.6678843832016
15.262719569206238
14.74201494693756
14.372928810119628
14.134861040115357
13.918070688247681
13.924138474464417
13.884788618087768
13.948264818191529
14.159466238021851
14.37491147518158
14.503194179534912
14.632033143043518
14.87406660079956
15.230204014778137
15.487665190696717
15.772416920661927
16.038811755180358
16.10960398674011
15.898974895477295
15.719583973884582
15.732200198173523
15.741229147911072
15.585332317352295
15.312169184684754
15.023383898735046
14.80286651134491
14.662431478500366
14.49466450214386
14.430047960281373
14.379220232963561
14.478181505203247
14.91906928539276
15.67108600139618
16.45186918735504
16.655739812850953
16.242146463394164
15.310225262641907
13.936542553901672
12.61809603691101
12.276692533493042
11.830925860404967
11.166734805107117
10.726919660568237
10.690491428375244
10.392873449325561
10.36771800518036
10.100361762046814
9.884007477760315
9.948500804901123
10.1126797246933
10.250306649208069
10.090405888557434
9.83619954586029
9.962506413459778
10.555264382362365
11.184610285758971
12.017312068939209
12.735161790847778
12.950302696228027
12.742005009651184
12.926171016693115
13.019352016448975
12.874380016326905
12.622174081802369
12.338084745407105
12.133870811462403
11.915818657875061
11.722564992904664
11.59800669670105
11.567121424674987
11.718070859909057
12.173913874626159
12.97893500328064
14.064599800109864
15.126835994720459
15.636538195610047
15.588930912017823
15.80400902748108
15.871313223838806
16.023312864303588
16.24741506099701
16.15934603214264
15.543219413757324
14.635250263214111
14.185280709266662
14.33663866519928
14.833199291229247
15.29098557472229
15.482567648887635
15.523746061325074
15.554961771965027
15.781971001625061
16.333060579299925
17.02861381530762
17.685248575210572
18.273972306251526
18.87899821281433
19.344519939422607
19.64994501590729
19.468517870903014
19.61767608642578
19.988848190307618
20.1634380197525
19.867447929382323
19.312255926132202
18.633703503608704
17.867323288917543
17.379152131080627
17.33944022655487
17.347533731460572
17.021576590538025
16.68796119213104
17.042258558273314
17.69179747581482
18.231568059921266
18.547497849464417
18.92464949131012
19.304222707748412
19.35225232601166
19.523282599449157
19.662238841056823
19.43021188735962
18.768932576179505
17.86176665306091
17.084056239128113
16.799050221443178
16.76600260257721
16.911112585067748
17.269107484817503
17.550896558761597
17.604720525741577
17.39354148387909
17.298636932373046
17.314670934677125
17.380963921546936
17.51723508834839
17.79007746696472
18.211205849647524
18.692240920066833
18.918853325843813
19.21878453731537
19.215396885871886
18.734577045440673
18.15397505760193
17.63263487815857
17.026781005859377
16.438185019493105
15.994208512306214
15.816333417892457
16.156688261032105
16.220634436607362
15.946727437973022
15.672781925201416
15.712912135124206
15.835740094184876
15.897782411575317
15.90930130958557
15.616108832359314
15.169605627059937
15.157905945777893
15.023200163841247
14.9074675655365
14.286353073120118
13.555747246742248
13.124031867980957
12.749444980621337
12.713598680496215
12.770636458396911
12.894589300155639
12.589130692481994
12.185699381828307
12.093993248939514
12.397019872665405
12.849362692832948
13.178613324165344
13.241106224060058
13.213860306739807
12.872787628173828
12.466810255050659
12.256939582824707
12.26811589717865
12.817496581077576
13.612675294876098
14.161653914451598
14.20609766960144
14.563490104675292
14.347458419799805
13.373393292427062
13.240155425071716
13.736322531700134
14.149641661643981
14.130311341285706
14.041799330711365
14.074538226127624
14.096789212226868
14.04946990966797
14.29736183166504
14.378282923698425
14.195965523719787
13.892109441757203
13.741162095069885
13.543748607635498
13.921401886940002
14.821309938430787
15.497133831977845
15.382294640541076
15.770095224380492
15.810571565628052
16.47662076473236
17.550239868164063
18.434911456108093
18.774191598892212
18.880450382232667
18.8798841714859
18.86042586326599
18.938817853927613
18.640559358596803
18.598501410484314
19.051378717422484
19.36254288673401
19.754227809906006
20.37637610912323
20.45834707736969
19.84786150932312
19.31477952003479
19.042535142898558
19.220762767791747
19.307155804634093
19.372335858345032
19.34883273601532
19.132827396392823
18.63351227760315
18.160006747245788
18.185745434761046
18.453228344917296
18.000905117988587
17.728295969963074
18.013262343406677
17.5039133310318
16.834867343902587
16.223249235153197
15.973101930618286
16.016988134384157
15.908622317314148
15.79976357936859
15.948293828964234
15.828610496520996
15.861474900245666
16.17057074069977
16.52806619167328
16.793861470222474
17.26979748249054
17.09405279159546
16.17167245388031
15.441318955421448
15.57975525856018
15.19827546596527
15.169159383773804
14.65049476146698
13.787393941879273
13.162640886306763
12.860767455101014
12.683708386421204
12.717452311515808
12.762219367027283
12.765953001976014
12.792537627220154
12.566415734291077
12.12631799697876
12.16545630455017
12.350979175567627
12.341879501342774
12.63865837097168
13.268657364845275
13.329412384033203
13.760868091583252
14.225841336250305
14.28867980003357
14.162701048851012
14.003532347679139
13.931043200492859
13.748893976211548
13.43636284828186
12.871638679504395
12.509277377128601
12.506438727378844
12.529431567192077
12.564033608436585
12.982125325202942
13.310690112113953
13.538346800804138
13.774517803192138
14.08634063243866
14.374742856025696
14.361292719841003
14.18257342338562
14.149043111801147
14.132533559799194
13.892346925735474
13.493625922203064
13.077338614463805
12.655868892669679
12.31261881351471
12.173300995826722
12.197331666946411
12.28284595966339
12.409811844825745
12.572587962150573
12.74443033695221
12.893304286003113
12.996169347763061
13.108629970550536
13.283239297866821
13.45126564025879
13.531496663093566
13.491552176475524
13.353038330078125
13.25192768573761
13.262888298034667
13.161228580474853
12.692534832954406
11.935797491073608
11.107415261268615
10.466220226287842
10.317994856834412
10.0580335521698
9.937309503555298
10.415398678779603
10.92481752872467
11.036272978782653
10.913188667297364
11.12469952583313
11.561337084770203
12.059280815124511
12.18695695400238
11.806800799369812
11.693603353500366
11.741500525474548
11.336198616027833
11.130626540184021
10.96110508441925
10.72321291923523
10.350813326835633
10.13643401145935
10.137183303833007
10.141044268608093
10.047803220748902
9.976776733398438
10.187449870109559
10.530339708328247
10.788333258628846
11.143038883209229
11.742492790222167
12.31135690689087
12.615914087295533
12.671470141410827
12.50652400970459
12.289127202033997
11.998061437606811
11.770628333091736
11.539061746597291
11.34118556022644
11.20722445487976
11.400831923484802
11.854729824066162
12.304201707839965
12.708671312332154
13.08332115650177
13.106418175697327
13.155381913185119
13.606222205162048
13.81426633834839
13.991741805076598
14.1714355802536
14.346586418151855
14.450607409477234
14.321884016990662
13.9333363199234
13.629719591140747
13.633194761276245
13.69411425113678
13.470374360084534
13.007201323509216
12.640962381362915
12.527770681381226
12.669338064193726
12.575255727767944
12.407987928390503
12.480774726867676
12.247003836631775
12.31699206829071
12.735675859451295
13.16431854724884
13.26658760547638
13.241770949363708
13.51355031490326
14.14439067363739
14.659220504760743
14.51327045917511
14.292355742454529
13.986565775871277
13.490520706176758
12.99443030834198
12.600989751815796
12.162199244499206
12.109472136497498
12.400057411193847
12.851048526763917
13.364957695007325
13.612045860290527
13.745918841362
13.87040415763855
13.832252016067505
13.511141333580017
12.847377090454101
12.76941638469696
13.197695121765136
13.557447290420532
13.733905444145202
13.631931734085082
13.300643105506897
13.168168087005615
13.865807747840881
14.574814682006837
14.45353166103363
14.85644603729248
14.823321328163146
14.646740155220032
14.43487732887268
14.4510999917984
14.62030586719513
14.759628710746766
14.826406869888306
14.912455220222473
15.104401154518127
15.332163882255553
15.42576919555664
15.414674601554871
15.567051196098328
15.95256139278412
16.255198926925658
16.196365818977355
15.959565320014953
15.961989808082581
16.10441816329956
15.946635093688965
15.7305770778656
15.308522953987122
15.373148155212402
15.388180418014526
15.334935240745544
15.532003717422485
15.909374976158142
16.13126433849335
16.29966285228729
16.232432851791383
16.128687143325806
15.9475146484375
15.677647323608399
15.376260929107666
15.092922234535218
14.953271827697755
15.115473556518555
15.14038221359253
15.116023736000061
14.620867671966552
14.155809483528138
13.858760404586793
13.606908545494079
13.626806712150573
14.429707036018371
15.852583708763122
15.873252778053283
15.147980213165283
15.291488137245178
14.65168252468109
15.154609899520874
16.94838767051697
18.636855297088623
18.790158696174622
19.09091823577881
19.347154250144957
19.300175805091857
19.330601072311403
19.35968710422516
19.09060661315918
18.84912380218506
19.056228461265565
19.360230979919432
19.154865074157716
18.634729285240173
18.25428689479828
18.381145725250246
18.7063712644577
19.044061627388
19.322132892608643
19.131100454330443
19.198197469711303
19.356060767173766
19.45272346973419
19.477655692100527
19.320932574272156
18.951542773246764
18.690679988861085
18.723191771507263
18.874453315734865
18.944655776023865
18.932097139358522
18.8920033121109
18.906721568107606
19.054212460517885
19.286827726364137
19.36595736503601
19.319481167793274
19.3582310962677
19.595469608306885
19.622990164756775
19.485647826194764
19.539750561714172
19.408254041671753
18.36893527030945
16.923054900169372
16.365182161331177
16.653112292289734
16.750955872535705
16.647386627197264
15.841946201324463
14.135918455123901
12.957517991065979
13.245641994476319
13.390722150802612
13.758685212135315
14.207101740837096
13.999158644676209
13.805598006248474
14.254002857208253
14.933748002052306
15.425185570716858
17.568157920837404
19.192385106086732
19.784729409217835
21.16219482421875
20.8705166721344
21.142594923973082
20.752462544441222
20.9864852809906
21.362993745803834
21.46039189338684
21.48476900100708
21.625460729599
21.814529247283936
22.008348960876464
22.293859124183655
22.632140274047853
22.84497754573822
22.927219142913817
23.01853844165802
23.110879468917847
23.113554859161376
23.068081073760986
23.02470404148102
22.943057498931886
22.861506967544557
22.860740399360658
22.897490882873534
22.89040159702301
22.816468019485473
22.725529036521912
22.794083104133605
23.111883993148805
23.42703911781311
23.46824273586273
23.139675350189208
22.648927721977234
22.36923295021057
22.42640218257904
22.422813997268676
22.3897434425354
22.220642037391663
21.983259010314942
21.6185880613327
21.181390676498413
21.098451895713808
21.482680373191833
21.53077380657196
20.982199125289917
20.37182577610016
19.612621192932128
17.012146582603453
15.136999311447143
14.729885654449463
13.792256207466126
14.212442526817322
13.658167476654052
13.66690797328949
13.155008449554444
12.627842020988464
12.57243833065033
12.33414071559906
12.088599166870118
12.14565267086029
12.290494856834412
12.484105191230775
12.68522931098938
12.743604316711426
12.70242730140686
12.636796293258667
12.433016753196716
12.258946003913879
12.35634657382965
12.597810640335084
12.829224219322205
12.701955046653747
13.122764382362366
13.889681777954102
14.332118330001832
14.271725177764893
13.996514763832092
13.777307257652282
13.427182478904724
13.338118743896484
13.535622968673707
13.842258248329163
14.132154030799866
14.309442086219788
14.377713251113892
14.46014058113098
14.532157573699951
14.442507247924805
14.171422090530395
13.846166443824767
13.50787374973297
13.103657813072205
12.73556622505188
12.594041423797607
12.690604557991028
12.679047284126282
12.73297324180603
13.013887920379638
13.564367604255676
13.89346574306488
13.788933300971985
13.409373588562012
13.182728238105774
13.134247970581054
13.448645462989807
13.862780261039735
13.616721291542053
14.05175748348236
14.665019268989562
14.57899333000183
14.678714823722839
14.531097235679626
13.830701403617859
13.593737301826478
13.342602314949035
13.697892422676086
14.5881170129776
15.479080958366394
15.932357573509217
16.17660373210907
16.418190541267396
16.82527359008789
16.404726634025575
15.616037464141845
15.076282048225403
15.022536373138427
15.181647305488587
15.359494671821594
15.866352472305298
15.966118025779725
15.67154462814331
15.445804915428162
15.291353678703308
15.272722873687744
15.168170027732849
15.196970615386963
15.151442155838012
15.210117559432984
15.639515509605408
16.192693972587584
16.534344182014465
16.75745982646942
17.046848697662355
17.292629103660584
17.23489339351654
17.465755496025086
17.68751477241516
17.407871279716492
17.01041673183441
16.4767347240448
16.261642036437987
16.211176218986513
16.472505831718443
16.64776129245758
16.592390036582948
16.733293409347535
17.236345205307007
16.837819347381593
16.151543006896972
16.15359170913696
15.941456198692322
15.771623134613037
16.110298132896425
16.124650263786314
16.244778289794922
15.941716814041138
15.434572820663453
14.802674503326417
14.263514361381532
14.009800577163697
13.4550159740448
13.22230281829834
13.327567257881164
13.266617946624756
13.284480752944946
13.169308109283447
13.361398348808288
13.91732343673706
14.122392082214356
14.339345173835754
14.785634059906005
14.981732907295227
14.967345643043519
14.997291436195374
15.195495162010193
15.118266468048096
15.102574577331543
14.809860072135926
14.382814755439759
13.860433659553529
13.612905759811401
13.636272640228272
13.643297505378722
13.636268892288207
13.862772216796875
13.531797933578492
13.537460913658142
14.03713083267212
14.09200813293457
14.419721055030823
14.886083469390869
15.306503458023071
15.042470335960388
15.100599069595336
15.19066952228546
14.666838293075562
14.65084150314331
15.384978671073913
15.927775468826294
15.897293553352355
15.892526679039001
16.302650775909424
16.753943772315978
16.803013978004454
16.712828607559203
16.371982989311217
16.101097478866578
16.30054498195648
16.587321982383727
16.47711821079254
16.70711498260498
16.943924560546876
17.010202374458313
16.99359706878662
16.839630031585692
16.800543427467346
16.549782538414
15.968549947738648
15.252700872421265
14.877804651260377
14.6724941778183
14.595226769447327
14.473586292266846
14.48552345275879
14.50559865951538
14.423016300201416
14.502561082839966
14.90954915523529
15.26326557636261
15.726384596824646
16.156034569740296
16.370767693519593
16.361529664993284
16.162681555747987
15.910925288200378
15.919630298614502
15.493849310874939
14.911549715995788
14.71123155593872
14.42177565574646
13.92879755973816
13.518889808654786
13.887063388824464
14.037459120750427
13.761902627944947
13.697875099182129
13.1563783121109
12.482441143989563
12.31072160243988
12.619433035850525
12.615671119689942
12.01779402256012
11.787942290306091
12.670805501937867
13.557037363052368
13.591919016838073
13.74549008846283
13.500948767662049
13.096202902793884
12.906018319129943
12.658685388565063
12.385764598846436
12.549182033538818
12.863338813781738
12.904336042404175
13.022075109481811
12.919979152679444
12.948068318367005
13.256960678100587
13.363119788169861
13.2769895029068
13.373482489585877
13.927138862609864
14.113980264663697
13.874829936027528
13.965344948768616
13.804361848831176
13.585338416099548
13.376026039123536
13.283260550498962
13.17165102005005
12.867305159568787
12.503150758743287
12.423801507949829
12.702719268798829
13.053655295372009
13.243912100791931
13.28520914554596
13.398722190856933
13.453904948234559
13.418113517761231
13.614787998199462
13.265182695388795
13.12440146446228
13.569942283630372
14.065674905776978
14.301357140541077
14.132639684677123
13.912208261489868
13.755512409210205
13.593991446495057
13.59511390209198
13.071665406227112
12.05759108543396
11.32444899559021
11.334534225463868
11.02993553161621
10.997917156219483
11.030674414634705
11.284779829978943
11.629461231231689
11.710350222587586
11.508588256835937
11.594082326889039
12.02699378967285
12.251182422637939
12.56777928352356
12.531329836845398
12.193779735565185
12.044600677490234
12.011040296554565
12.431582918167114
12.76984561920166
12.74059458732605
12.859695792198181
12.888962726593018
12.93717945098877
13.074311156272888
13.18955189704895
13.175009627342224
13.185697174072265
13.410274095535279
13.75027334690094
13.802914233207703
13.712003817558289
13.676048073768616
13.734450492858887
13.93699538230896
14.169211831092834
14.208808031082153
14.352538452148437
14.534173970222474
14.890758543014526
14.891076865196228
14.49546977519989
14.123186960220337
14.289600615501405
14.867841501235961
15.184987173080444
15.129828515052795
15.24542354106903
15.433257689476013
15.72641140460968
15.86216446876526
15.935981531143188
16.212112565040588
16.312138385772705
16.05849130630493
16.019302320480346
15.898494763374329
15.709400320053101
15.476894497871399
15.564810276031494
15.489188027381896
15.052233681678771
14.78974271774292
14.63612096786499
14.587831387519836
14.828415575027465
15.04933596611023
15.329661731719971
15.073226971626282
14.585055108070373
14.372707161903381
14.281117281913758
14.358344130516052
14.725732870101929
14.9345751953125
14.91683436870575
14.698830394744872
14.269488840103149
13.98565381526947
13.769691596031189
13.755000915527344
13.928191471099854
14.155701847076417
14.387564187049867
14.273713512420654
13.96535961151123
13.863343234062194
13.882860565185547
13.737130150794982
13.451231570243836
13.145769953727722
13.169752917289735
13.46355848312378
13.456761031150817
12.966382336616515
12.411895561218262
12.24690381526947
12.202673144340515
12.051449999809265
11.750198817253112
11.554539937973022
11.385579824447632
11.16425220489502
11.13030387878418
11.445229487419128
11.821216411590576
12.008770952224731
12.096180019378663
12.369501576423644
12.333468852043152
12.17759159564972
12.217172708511352
12.29241934299469
12.546261005401611
12.759328846931458
12.667625894546509
12.35521722793579
12.017903318405152
11.668597621917725
11.307724618911744
11.143051075935364
11.24646861553192
11.178606343269347
10.733727207183838
10.348097448349
10.049371218681335
10.558355612754822
11.607786288261414
12.389180870056153
12.838920607566834
13.021297168731689
12.69992504119873
12.201434383392334
11.771785526275634
11.78000406742096
12.137308411598205
12.37754493713379
12.299805655479432
12.31243594646454
12.302371411323547
12.50891257762909
12.427878127098083
12.557009382247925
12.68958574295044
12.83218563079834
13.154088773727416
13.541528635025024
14.044422192573547
14.57711709022522
14.955634126663208
14.82995445728302
14.841737055778504
14.778190417289734
14.619075956344604
14.40147662639618
14.10411557674408
14.067002806663513
13.917708959579468
13.920803847312927
14.237116961479186
14.76001482963562
15.40485852241516
15.799398031234741
15.620453109741211
15.332802724838256
15.216879053115845
15.507348809242249
15.610628838539123
15.558934259414674
15.525803985595703
15.681425642967223
15.729443793296815
15.76470227241516
15.975952010154725
16.096209683418273
16.071468114852905
15.557397603988647
14.698739161491394
13.83608962059021
13.28763273715973
13.10025161743164
13.430117945671082
13.886410465240479
14.12597191810608
13.99882535457611
13.665499687194824
13.679101285934449
13.969930443763733
14.077065210342408
14.23984317779541
14.313957777023315
14.638365263938903
14.510321297645568
14.191940641403198
13.91802761554718
13.612778458595276
13.146926646232606
12.541113638877869
11.898109235763549
11.69177216053009
11.921523804664611
11.797023372650147
11.714960422515869
11.735860776901244
11.914905247688294
12.309464421272278
12.71567669391632
13.430377159118652
13.841196570396423
13.60439754486084
12.908497910499573
12.47317545890808
12.198266139030457
12.034255833625794
12.218742666244507
12.522179746627808
12.350188875198365
12.186570572853089
12.1254061460495
12.192625346183776
12.145833859443664
12.153393907546997
12.1699933385849
11.94138714313507
11.732207827568054
12.05695544719696
12.411185126304627
12.62194612979889
12.761374177932739
12.77051748752594
12.740757279396057
12.412724742889404
12.259257588386536
12.577361950874328
13.168634676933289
13.502735242843627
13.328559975624085
13.002222037315368
12.971195578575134
13.094255228042602
12.863712697029113
12.495698871612548
12.123112268447876
12.00696620464325
12.16836519241333
12.218350925445556
12.328170385360718
12.425007557868957
12.46612850189209
12.605068445205688
12.695048203468323
12.767101135253906
12.852257590293885
12.880699262619018
12.670910453796386
12.390017313957214
12.087013912200927
11.638975381851196
11.121066479682922
10.799587182998657
10.83408856868744
10.56694064617157
10.31545690536499
10.503528051376342
10.612869119644165
10.744338545799256
11.263273344039916
11.968677282333374
12.384354085922242
12.389719533920289
12.352112622261048
12.510489172935486
12.723896532058715
12.708773765563965
12.862354989051818
12.633635668754577
12.16793526172638
11.9318612575531
11.854919419288635
11.94459445476532
11.996662521362305
11.969311027526855
11.742254772186278
11.119159269332886
10.7280522108078
10.579836621284485
10.545402021408082
10.56116756439209
10.653801860809326
10.93090940952301
11.462242918014526
11.847974157333374
12.243783173561097
12.606766233444214
12.663505411148071
12.640127139091492
12.703687853813172
12.61405288219452
12.677438073158264
12.583006205558776
12.465039267539979
12.44060233592987
12.46372986793518
12.549560985565186
12.74868929386139
12.854150862693787
12.581856713294982
12.19167043209076
12.03307300567627
12.291600971221923
12.723623919487
13.134414010047912
13.347862911224365
13.272603464126586
13.082485628128051
12.885791778564453
12.471326961517335
11.799127445220947
11.445894465446472
11.368656778335572
11.428736581802369
11.250438299179077
10.978530721664429
11.005652747154237
10.761511244773864
10.678167629241944
10.642820334434509
10.795999608039857
11.107323346138001
11.364390187263488
11.647934675216675
12.106348896026612
12.5058264875412
13.05636751651764
13.244749321937562
13.07349413394928
13.209888319969178
13.17803882598877
13.03799882888794
12.789827327728272
12.174810357093811
11.91614411354065
11.518364133834838
11.134606485366822
10.983367700576782
11.233084535598755
11.044881715774537
11.559613256454467
12.239404458999633
12.61091920375824
12.729661684036255
12.875059795379638
13.089614062309264
13.133064818382262
12.95495572090149
12.762362818717957
12.67499855518341
12.692767591476441
12.64059257030487
12.418637685775757
12.03016125202179
11.684169573783874
11.577817039489746
11.699113059043885
11.97337924003601
12.307000460624694
12.52280390739441
12.629069895744324
12.584437780380249
12.642278900146485
12.777513871192932
12.917298402786255
12.815333156585693
13.16505298614502
13.719078769683838
14.192972760200501
14.612750854492187
14.487126626968383
14.12498442173004
13.900219006538391
13.528081560134888
13.463712606430054
13.704388732910155
13.930085487365723
13.859505758285522
13.931267189979554
14.095216851234436
14.23316921710968
13.91402988433838
13.730932393074035
14.242854833602905
14.581151514053344
14.676705513000488
14.87450936794281
15.030102925300598
14.849005045890808
15.203071103096008
14.992028336524964
14.456563220024108
14.056268005371093
13.910853085517884
13.768375177383422
13.517973957061768
13.407722268104553
13.448955883979798
13.373720574378968
13.349888463020324
13.354964442253113
13.353734412193297
13.451283378601074
13.904041538238525
14.576162028312684
15.135673847198486
15.464167618751526
15.511008529663085
15.234168848991395
14.762680735588074
14.883586730957031
15.07813940525055
15.03278694152832
14.876118922233582
14.674619874954224
14.746870737075806
14.455675315856933
14.073797645568847
13.768037605285645
13.537396869659425
13.430562114715576
13.421661992073059
13.547046680450439
13.954541597366333
13.87147533416748
13.361160326004029
12.888199400901794
12.712844848632812
12.644221243858338
12.464372177124023
12.244197087287903
12.753897833824158
13.232563199996948
13.339680676460267
13.103439655303955
13.110536761283875
13.521006898880005
13.56901834487915
13.93010666847229
14.235868482589721
14.14002242565155
13.851632928848266
13.781484656333923
13.986564974784852
14.208031177520752
14.288515267372132
14.292966146469116
14.377019829750061
14.657468791007995
15.014592275619506
15.290487141609193
15.30627769947052
15.3574875497818
15.053531336784364
14.37956166267395
13.735585956573486
13.541388573646545
13.6286199426651
13.83795979976654
14.317147569656372
14.331741943359376
14.10953767299652
14.169919924736023
14.204786305427552
14.444256253242493
14.630675563812256
14.564818081855774
14.523952012062074
14.425534377098083
14.280850548744201
14.399651074409485
14.363147082328796
14.098453145027161
13.857720341682434
13.88152639389038
14.03104522228241
14.233386325836182
14.531565322875977
14.777622442245484
14.896062483787537
15.400467252731323
15.60562162399292
15.497292814254761
15.00968156337738
14.906875023841858
14.904094395637513
14.325897655487061
14.14872178554535
13.72489288330078
13.11802824497223
12.938274989128113
13.158786067962646
13.222091870307922
12.951308994293212
12.63779637813568
12.656508502960206
13.108847527503967
13.76044806957245
14.18124994277954
14.02500645160675
13.848645067214965
13.835972156524658
14.11032950401306
14.474499535560607
14.451151914596558
14.572858657836914
14.16820025920868
13.775340008735657
13.504255838394165
13.219828476905823
12.99555872440338
13.252637739181518
13.243822326660156
13.313779416084289
13.29113763332367
13.317362012863159
13.586532244682312
13.713900895118714
13.673202514648438
13.62158393383026
13.55086341381073
13.609165563583375
13.692522253990173
13.743162331581116
13.553440952301026
13.326981964111328
13.267843961715698
13.369428424835204
13.44309958934784
13.215574951171876
12.688395128250122
12.047320599555968
11.630659112930298
11.734292364120483
11.842854766845702
12.117500972747802
12.412348837852479
12.653000545501708
13.087544951438904
13.42622462272644
13.497576456069947
13.361853642463684
13.169461846351624
13.266395750045776
13.482506523132324
13.362683143615723
13.239810643196106
13.080410265922547
13.15371030807495
13.576945910453796
13.819301643371581
14.03293508529663
13.553943996429444
13.118526506423951
13.39012002468109
13.571490263938903
13.76095648765564
13.656408801078797
13.56800925731659
13.442814683914184
13.414013323783875
13.344521346092224
13.556109251976013
13.471574625968934
13.335389876365662
13.45050371646881
13.491907992362975
13.472173328399657
13.818321223258971
14.602454891204834
15.26574427127838
15.570291209220887
15.491133646965027
15.30028694152832
15.232185683250428
15.337964596748352
15.281072416305541
15.053164377212525
14.94004403591156
15.095297021865845
15.333334274291992
15.452859892845154
15.302116322517396
15.114260725975036
14.772684602737426
14.6412775182724
14.66330780506134
14.419571843147278
14.026088461875915
13.634322729110718
13.633428373336791
13.615245962142945
13.578160033226013
13.502531237602234
13.49701774597168
13.58458966255188
13.216343631744385
12.642252106666565
11.939599351882935
11.273660492897033
10.879571356773376
10.895783362388611
11.283613209724427
11.454375023841857
11.182416100502014
11.035230741500854
11.806410346031189
13.092271575927734
13.900485286712646
14.123973717689514
14.308523330688477
14.663067560195923
14.962140927314758
15.024100608825684
15.063072443008423
14.833388414382934
14.491547174453736
14.305048246383667
13.96061719417572
13.485067133903504
12.959674229621887
12.881666684150696
13.722426724433898
14.490607833862304
14.900775818824767
14.99255955696106
14.840957126617432
14.530553646087647
14.335756440162658
14.207168989181518
14.27046889781952
14.411440558433533
14.764365220069886
15.126215238571167
15.287402477264404
15.060476655960082
14.837974271774293
14.73796835899353
14.793135242462158
15.06854097366333
15.26375545501709
15.475916476249695
15.680138301849365
15.767615342140198
15.758760666847229
15.769116816520691
15.796604409217835
15.794792914390564
15.86548185825348
16.048996686935425
16.173213715553285
15.958776993751526
15.627143015861511
15.347169499397278
15.46670618057251
15.579757189750671
15.095295281410218
14.314800629615783
13.881468439102173
14.018541507720947
14.086480078697205
13.633169684410095
13.110654482841491
12.93455267906189
12.823182291984558
12.697013578414918
12.864619212150574
12.845835309028626
13.090957589149475
13.080274634361267
12.993140597343444
12.887260870933533
12.323920936584473
11.731823220252991
11.29708854675293
11.192156257629394
10.957456679344178
11.376315836906434
11.756691870689393
11.77336766242981
11.591557278633118
11.680983200073243
11.838975310325623
11.919492077827453
12.119337372779846
12.095574021339417
12.076099362373352
12.07743754863739
12.348579502105713
12.787634000778198
13.213443145751953
13.549839844703675
13.491720175743103
13.818028345108033
14.551678738594056
15.142381520271302
15.11408034801483
15.475545010566712
15.96580222606659
16.45308427333832
17.038296160697936
17.657700815200805
17.97793499469757
18.205220775604246
18.210548286437987
17.93558449268341
17.423828339576723
17.062056012153626
16.935297899246216
16.741437349319458
16.67927375793457
17.124862127304077
17.594460225105287
18.021115794181824
18.290376706123354
18.34598415374756
18.313416171073914
18.34198923587799
18.344456000328066
18.5727143907547
18.559931268692015
18.531168847084047
18.293196897506714
18.295184683799743
18.54924331188202
18.59510964870453
18.864401426315307
18.498094239234923
18.047573256492615
18.137128882408142
18.491858587265014
18.46987735748291
17.908490691184998
17.7103883934021
17.49977677822113
17.568219952583313
17.72027690410614
17.95910707473755
17.751148676872255
17.267289237976073
16.79257477760315
16.50576771259308
16.69005732059479
16.41928701400757
15.638052587509156
15.021983251571655
15.109448127746582
14.805544385910034
14.285771470069886
13.753643174171447
13.261298952102662
12.88106828212738
12.575605006217957
12.30543653011322
12.239207806587219
12.43444739818573
12.735117158889771
12.654976177215577
12.317732572555542
12.190668573379517
12.079372024536132
11.778632206916809
11.761530537605285
12.033650488853455
12.286264696121215
12.413067045211791
12.366557574272155
12.45059808731079
12.260553164482117
12.194421911239624
12.421965560913087
12.400307393074035
12.383278169631957
12.250114049911499
12.225779147148133
12.399507722854615
12.515939970016479
12.523404202461244
12.600658383369446
12.615263819694519
12.172689156532288
12.143411583900452
12.733740210533142
13.027978901863099
13.126289701461792
13.329139637947083
13.55522518157959
13.302226972579955
13.376398396492004
13.238945813179017
13.550524187088012
13.998315663337708
14.364607729911803
14.579294891357423
14.634036631584168
14.65646985054016
14.812136797904968
14.929435987472534
14.775513978004456
14.70954613685608
14.69548979282379
14.813084149360657
14.999041872024536
15.258713383674621
15.41929404258728
15.388085556030273
15.336031022071838
15.386574583053589
15.438515586853027
15.38008825302124
15.27922966003418
15.217554507255555
15.069879722595214
14.703540840148925
14.27047029018402
14.141492066383362
14.360139608383179
14.821649346351624
15.11420883178711
14.687145276069641
14.72966148853302
15.079116735458374
15.518173565864563
15.752540917396546
15.514170503616333
15.42595474243164
15.321069917678834
15.266178393363953
15.187873053550721
15.365967383384705
15.935555157661438
16.037533020973207
15.73138991355896
15.315200209617615
15.212613711357116
15.015467944145202
14.574949550628663
14.669923033714294
14.612208890914918
14.88183627128601
14.684363436698913
14.296261491775512
13.97067186832428
13.795392684936523
13.84787748336792
14.041889824867248
13.988056769371033
13.805047216415405
14.238647255897522
14.370573720932008
14.393405871391296
14.390150904655457
14.475491228103637
14.7590127658844
14.925129256248475
14.64841787815094
14.62513948917389
14.554712815284729
14.558598146438598
14.714541668891906
14.804245977401733
14.660004105567932
14.306946392059325
14.293220405578614
15.038720679283141
16.086535062789917
16.523020334243775
16.109919681549073
15.788924326896668
15.975301685333251
15.570031099319458
15.455784163475037
15.452402291297913
15.527704029083251
15.707618865966797
15.32620376110077
15.446760377883912
15.89102475643158
15.910386018753051
16.007082681655884
16.058349795341492
15.963907036781311
15.777938585281372
15.617833514213562
15.652898602485656
16.04252115726471
16.579004611968994
16.7361763048172
16.581205854415895
16.23226900100708
15.98137677192688
15.730691976547241
15.700657625198364
15.990351128578187
16.199174017906188
16.099310302734374
15.904634108543396
16.11284134864807
16.555895323753358
17.296370873451234
17.492481861114502
17.213029270172118
16.984917721748353
16.52123694419861
16.29554723739624
16.661739420890807
16.829242029190063
17.36626767158508
18.44207682609558
19.64838052749634
20.396658926010133
20.54385859489441
21.650582041740417
22.526938223838805
21.98775613307953
21.34553629398346
21.436011362075806
21.932043805122376
22.385471544265748
22.773445734977724
23.300691442489622
23.192732167243957
22.7887793302536
22.601836457252503
22.436259851455688
22.959273991584777
23.42400580406189
23.866570544242858
24.648039131164552
24.575881147384642
24.447602705955504
26.071333255767822
28.442170786857606
29.453014650344848
29.986122884750365
30.524499702453614
30.308341145515442
30.24272028923035
30.59545458316803
30.979341897964478
31.076744542121887
31.42851276874542
32.04954593658447
32.5276452922821
32.759694848060604
32.74292902946472
32.780325679779054
32.76117650985718
32.24607117652893
31.534023790359498
31.289321885108947
31.878049755096434
32.4985430431366
32.85399074077606
32.64854783058166
32.613972177505495
32.43083526134491
31.982269477844238
31.210217456817627
30.126104388237
29.504291577339174
29.63127721309662
28.891204638481142
28.091591825485228
28.095481781959535
27.956443209648132
27.56104489326477
27.2009130859375
26.710165591239928
26.471860632896423
26.00672850608826
25.98672612667084
26.111091289520264
25.917010469436647
26.062365884780885
26.090531158447266
25.811220541000367
25.2025612783432
24.57595043182373
24.371344766616822
24.070059275627138
22.104576358795168
19.754340000152588
18.73739085674286
18.221388463973998
17.564691681861877
17.40586399078369
17.51538239479065
17.889040627479552
17.963619694709777
17.96319776058197
18.101625781059266
17.714326610565184
17.151159906387328
16.844133834838868
16.878124351501466
17.213067297935485
17.739608244895933
18.216707587242126
18.364892964363097
18.23896967411041
17.810757055282593
17.252886476516725
16.894174823760988
16.9259791469574
16.684304666519164
16.618805599212646
16.90921389579773
17.033482370376586
17.104501566886903
17.29733992099762
17.524021801948546
17.174481654167174
17.547435088157656
17.892943181991576
17.675193819999695
17.996263337135314
18.232728061676024
18.34136895656586
18.19061092376709
18.545572352409362
18.77326687335968
18.919480323791504
18.97395920753479
18.94002091884613
18.68313376903534
18.392988352775575
18.180625796318054
18.017334957122802
17.770947065353393
17.573666214942932
18.02917969226837
18.702649574279786
19.262759914398192
19.408737320899963
19.4577064704895
19.789845037460328
19.993870229721068
19.553283672332764
19.530529146194457
20.042520470619202
19.889705333709717
20.152146792411806
21.44050124645233
21.935494942665102
22.46811414718628
23.47125282764435
23.536559081077577
22.931234078407286
22.647876076698303
22.756493668556214
22.55288655757904
22.49693433761597
22.86782142162323
23.402078375816345
23.695032391548157
23.727680373191834
23.55775387763977
23.638129544258117
24.054290413856506
24.558030648231508
24.704596886634828
25.198359785079955
26.17803738117218
26.946744003295898
26.86441279888153
26.803779702186585
26.69720353603363
26.695830068588258
26.86929120540619
26.892288937568665
26.657394847869874
26.574074964523316
26.958940806388856
27.165840435028077
26.9487535572052
26.711251130104063
26.983530116081237
27.611011085510253
28.16341703414917
28.403989963531494
27.91338077068329
27.54076858997345
27.722864818572997
27.727418031692505
27.729983916282652
27.925645179748535
27.791161952018737
27.57088652610779
27.52434356212616
27.458960590362548
27.601712002754212
26.978558983802795
25.42054689884186
25.024831700325013
24.623979592323302
23.371434206962586
23.38113874912262
24.237068133354185
24.963163199424745
25.36191598892212
25.446398229598998
25.879180603027343
26.30309166431427
25.960697603225707
25.97373233318329
26.081931653022767
25.807463121414184
25.190938625335694
24.55051459789276
23.80969567775726
23.205513644218446
22.825218157768248
21.33895703315735
20.049062852859496
20.156272840499877
19.976691045761108
20.522388558387757
21.451792387962342
22.02005295753479
22.176051387786867
22.08566168308258
22.8968492937088
23.505843806266785
23.129666380882263
24.2103790140152
25.529575443267824
25.869920134544373
25.426836857795717
24.863807940483092
25.266949973106385
26.665923590660096
27.230480985641478
26.519736814498902
26.519680080413817
26.296437602043152
26.001110401153564
26.37904818058014
26.820097780227663
26.700265865325928
26.119363436698915
25.48787957191467
25.287526211738587
25.16367383480072
24.829490537643434
24.61253420829773
24.648520073890687
23.91646490097046
22.860144081115724
22.145683097839356
22.02703462600708
22.5210711145401
22.406003460884094
21.84490728378296
21.964310455322266
22.051327614784242
22.263871335983275
22.655830550193787
22.90960132598877
23.113707571029664
24.35062885761261
25.93048249721527
26.371251215934752
26.517985286712648
26.888981914520265
27.559240412712096
28.415925335884094
28.550202941894533
27.679167556762696
26.69276422023773
26.455215010643006
26.834131264686583
26.053227758407594
25.071616201400758
25.068446731567384
24.069417757987978
22.873682832717897
22.22626539707184
22.279616622924806
22.576607608795165
22.216765832901
21.114308524131776
20.227069664001466
20.292108054161073
20.021065950393677
19.87906720638275
19.734156908988954
19.30632091522217
18.86796522140503
18.666634101867675
18.776263966560364
19.16305567264557
19.571393103599547
19.946680226325988
20.509213070869446
21.478464374542238
22.725179424285887
23.608184814453125
24.102443799972534
26.174458184242248
27.895035219192504
28.19502799510956
27.960298767089842
27.693984479904174
27.938686380386354
28.60748109817505
