10.164457926750183
10.036719527244568
9.917611904144287
9.896715230941773
9.958826780319214
10.072918777465821
10.217120237350464
10.353485774993896
10.45923586845398
10.507677621841431
10.480762391090392
10.445148983001708
10.464499368667603
10.456289777755737
10.343816447257996
10.233360486030579
10.204116272926331
10.161893353462219
10.070708436965942
10.027832641601563
10.070880026817322
10.14150200366974
10.191935567855834
10.238713440895081
10.312478346824646
10.359804892539978
10.299662156105041
10.173848881721497
10.125686316490173
10.231841020584106
10.40694239616394
10.485333223342895
10.391012897491455
10.210177388191223
10.086383304595948
10.060799179077149
10.04695016860962
9.986113867759705
9.920014538764953
9.847740998268128
9.720479736328125
9.602488150596619
9.608535141944886
9.696369252204896
9.70285885810852
9.595523171424865
9.49425952911377
9.460892095565796
9.483369660377502
9.546215972900391
9.613700966835022
9.674754624366761
9.7268479013443
9.702440643310547
9.585202975273132
9.52333034515381
9.631723775863648
9.779862666130066
9.790522971153258
9.72240384578705
9.718458733558656
9.723966536521912
9.598051743507385
9.397818536758423
9.344638195037842
9.4530082321167
9.601460337638855
9.70267134666443
9.792028570175171
9.880408592224121
9.92611792564392
9.904091081619264
9.80907711982727
9.660078630447387
9.556116285324096
9.61633529663086
9.732770142555237
9.642316422462464
9.543372435569763
9.361584606170654
9.320943369865418
9.307676954269409
9.308113880157471
9.319711556434632
9.297558059692383
9.29641155719757
9.381885495185852
9.468273425102234
9.485840649604798
9.532027559280396
9.642523708343505
9.669273142814637
9.569157662391662
9.536796202659607
9.703915166854859
9.930899310112
10.05488142967224
10.12488106250763
10.207511444091796
10.269318122863769
10.316826014518737
10.318345465660094
10.18947600364685
10.042029452323913
10.05235933303833
10.113208994865417
10.030678319931031
9.921809635162354
10.015718340873718
10.18283788204193
10.104535927772522
9.851212615966796
9.78214642047882
10.045748825073241
10.32269543170929
10.374319834709167
10.2713152885437
10.190451431274415
10.143611583709717
10.105930914878845
10.085844535827636
10.094801125526429
10.140932688713074
10.183705615997315
10.127453722953796
9.93212275505066
9.776831588745118
9.884727478027344
9.951514534950256
10.02267045021057
9.956122317314147
9.953237442970275
10.01258581161499
10.032201380729676
10.011805539131165
9.960874304771423
9.846478977203368
9.705258874893188
9.60725160598755
9.541243739128113
9.47622420310974
9.45637969493866
9.515522360801697
9.529569854736328
9.345734829902648
9.142702612876892
9.028113861083984
9.067253761291504
9.076072583198547
9.007214550971986
8.961755042076112
9.022550926208496
9.164758849143983
9.281926898956298
9.291298260688782
9.206845750808716
9.111281881332397
9.02428270816803
8.892041325569153
8.806381196975709
8.948676857948303
9.226773023605347
9.386845860481262
9.312911243438721
9.17259256362915
9.160335297584533
9.290675768852234
9.454873242378234
9.552250804901123
9.543796019554138
9.460468020439148
9.37491138458252
9.380627837181091
9.508395509719849
9.689655628204346
9.883018746376038
10.02154396057129
9.984709677696229
9.849149937629699
9.790491609573364
9.787463107109069
9.774315800666809
9.814337434768676
9.937572059631348
10.04161235332489
10.035287022590637
9.949405932426453
9.86238013267517
9.817569279670716
9.825140886306762
9.867144713401794
9.877731428146362
9.80280484676361
9.74053418636322
9.841193933486938
9.967521867752076
10.061840534210205
10.042772331237792
10.029754633903503
10.028258967399598
9.970996561050415
9.900007219314576
9.901067366600037
9.945050134658814
9.979311580657958
10.050791273117065
10.173354783058166
10.283053107261658
10.392661333084106
10.486026968955994
10.432864360809326
10.283686842918396
10.236209015846253
10.280870251655578
10.28167875289917
10.209217991828918
10.09663920402527
9.97172977924347
9.88420374393463
9.888985338211059
9.956304125785827
9.955868949890137
9.836528120040894
9.729139804840088
9.697677745819092
9.603130979537964
9.446375694274902
9.43480140209198
9.534797611236572
9.523568544387818
9.423891682624816
9.380720562934876
9.35098256111145
9.23907073020935
9.132841219902039
9.191938452720642
9.400893225669861
9.592281661033631
9.658642449378966
9.64499222278595
9.711279058456421
9.975392150878907
10.251899695396423
10.231770181655884
10.148935251235962
10.022275238037109
10.065518226623535
10.130794672966003
10.145214958190918
10.155723156929016
10.210386943817138
10.2826841878891
10.324426817893983
10.334540238380432
10.349931077957153
10.392927227020264
10.443163928985596
10.433739309310914
10.296437816619873
10.130322489738464
10.144399070739746
10.267983179092408
10.232947235107423
10.065663046836853
9.976458377838135
9.951861233711243
9.886671628952026
9.82016261100769
9.790748319625855
9.73215518951416
9.641634211540222
9.627840023040772
9.69623923778534
9.722309651374816
9.682261829376221
9.670076751708985
9.703790068626404
9.720061640739441
9.753101110458374
9.889021120071412
10.029626307487488
10.00001792907715
9.878634667396545
9.895272908210755
10.046901226043701
10.120170512199401
10.039066047668458
9.936189093589782
9.923076958656312
9.975971369743347
9.957075891494751
9.71096999168396
9.369399852752686
9.295268597602844
9.351873941421509
9.512208814620971
9.482138900756835
9.35195116519928
9.223451762199401
9.15994026184082
9.126179609298706
9.052773604393005
8.999112730026246
9.001406965255738
8.928144292831421
8.72987247467041
8.56256965637207
8.592968311309814
8.841085963249206
9.081970405578613
9.033168549537658
8.789969849586488
8.685627899169923
8.778447098731995
8.918587832450866
9.081957216262817
9.28958351612091
9.451440277099609
9.52083827495575
9.578618431091309
9.65302848815918
9.67859467983246
9.648165664672852
9.626433119773864
9.639963545799255
9.657306847572327
9.678891911506653
9.755263323783874
9.846507053375245
9.812496447563172
9.646101951599121
9.523489966392518
9.541690163612365
9.595287113189697
9.560353698730468
9.457313003540039
9.398093161582947
9.446493515968323
9.567977042198182
9.672395758628845
9.724392590522767
9.819986839294433
9.964184403419495
9.959583859443665
9.863960618972778
9.741890320777893
9.70340572834015
9.65895471572876
9.640952768325805
9.702093167304993
9.802725710868835
9.847321705818176
9.787267713546752
9.731840538978577
9.794040484428406
9.88650842666626
9.889575853347779
9.80680775642395
9.646592359542847
9.500136165618896
9.589707264900207
9.868760099411011
10.025183882713318
9.99858681678772
9.931091895103455
9.813002223968505
9.595719709396363
9.371848607063294
9.25130105495453
9.234091820716857
9.247563138008118
9.249891571998596
9.259671068191528
9.306977434158325
9.415517587661743
9.501762552261352
9.392420101165772
9.203408613204957
8.984324660301208
8.865635986328124
8.936118288040161
9.12302218914032
9.247211637496948
9.250729598999023
9.258640160560608
9.362065153121948
9.484311585426331
9.511981921195984
9.430829300880433
9.303567290306091
9.184956498146057
9.08345543861389
9.070179691314697
9.238875756263733
9.390171236991883
9.498660092353822
9.575125441551208
9.710963912010193
9.76258786201477
9.631509828567506
9.476457104682922
9.475288319587708
9.587331652641296
9.665491194725037
9.659625611305238
9.631952714920043
9.647660460472107
9.678641204833985
9.654528198242188
9.570299592018127
9.437969317436218
9.281493644714356
9.193894100189208
9.207262296676635
9.244781823158265
9.286894235610962
9.386919431686401
9.52662058353424
9.599239683151245
9.570900363922119
9.563807907104492
9.65126033782959
9.725299391746521
9.674222855567931
9.51874020576477
9.430118446350098
9.561399326324462
9.719915595054626
9.905043869018554
10.097298130989074
10.19430016040802
10.156063065528869
10.090572695732117
10.085354533195495
10.073396096229553
9.983036947250366
9.911540822982788
9.970811100006104
10.074498019218446
10.081518168449401
10.022552380561828
10.002811350822448
9.987922463417053
9.91330675125122
9.865101699829102
9.877003388404846
9.821706109046936
9.716618337631225
9.76086492061615
9.954024062156677
10.05378846168518
9.97409674167633
9.868310542106629
9.82399103164673
9.794223504066467
9.755353870391845
9.740408453941345
9.759723091125489
9.746219143867492
9.66562306880951
9.626441712379455
9.689112691879272
9.72182219028473
9.64529254436493
9.578998265266419
9.588726425170899
9.580292568206787
9.547078294754028
9.596319270133971
9.687556810379029
9.665596728324891
9.526544551849366
9.416361112594604
9.450881409645081
9.603883266448975
9.683444404602051
9.547769794464111
9.373267965316773
9.192880988121033
9.079247035980224
9.017078914642333
8.97932692527771
8.912741513252259
8.862726683616637
8.959100060462951
9.180534491539001
9.290731902122497
9.177981247901917
9.074416780471802
9.183007354736327
9.346695671081543
9.372130246162415
9.342209129333495
9.343357090950013
9.280391397476196
9.18438994884491
9.241462116241456
9.399062032699584
9.425958905220032
9.340938067436218
9.372027258872986
9.549411072731019
9.661417126655579
9.632936935424805
9.660344762802124
9.863902630805969
10.128936047554015
10.38801748752594
10.629574642181396
10.699059143066407
10.692428617477416
10.5106640625
10.516393690109252
10.620965633392334
10.596699428558349
10.42913496017456
10.286272673606872
10.165869679450989
9.969711780548096
9.803154392242432
9.795090022087097
9.868975377082824
9.880392055511475
9.746405930519105
9.50157060623169
9.33750597000122
9.389444108009338
9.483116598129273
9.619941020011902
9.764903964996337
9.903858671188354
9.98231819152832
10.02280270576477
10.04490803718567
10.010801572799682
9.9270370054245
9.86927749633789
9.863180060386657
9.864089984893798
9.867733793258667
9.896020665168763
9.878506889343262
9.755327277183532
9.645474400520325
9.676465849876404
9.782560019493102
9.825532817840577
9.780213394165038
9.725306634902955
9.69608964920044
9.646147470474244
9.572885508537292
9.548636441230775
9.569660620689392
9.487263898849488
9.219859943389892
8.867219305038452
8.505016322135925
8.251382451057435
8.367394046783447
8.69167742729187
9.252478094100953
9.74485523223877
10.133926939964294
10.323652491569518
10.294534730911256
10.262528619766236
10.231812133789063
10.30326108455658
10.295525445938111
10.17056444644928
10.081986651420593
10.115977954864501
10.232865128517151
10.345072598457337
10.356539287567138
10.290867638587951
10.251690635681152
10.184090719223022
9.995520777702332
9.795416774749755
9.722340092658996
9.729562258720398
9.681373987197876
9.543745865821839
9.38786099910736
9.31291799068451
9.402447390556336
9.570109944343567
9.599332766532898
9.474430828094482
9.4150213098526
9.548548121452331
9.756746897697449
9.887831139564515
9.925143809318543
9.894396271705627
9.805117516517639
9.682260432243346
9.556995077133179
9.460784511566162
9.416397738456727
9.405877151489257
9.404480862617493
9.444333477020264
9.531106972694397
9.613483457565307
9.738477735519409
9.895638499259949
9.847693185806275
9.51118043899536
9.075746693611144
8.678120398521424
8.409147281646728
8.399725670814513
8.610089554786683
8.75117627620697
8.880565967559814
8.92999430179596
8.962595930099488
9.006517686843871
9.051092157363891
9.092314643859863
9.131210627555847
9.129949288368225
9.10887448310852
9.133739075660706
9.207181105613708
9.333177261352539
9.500513606071472
9.633971805572509
9.701748752593994
9.745572400093078
9.792721900939942
9.820280799865722
9.836929740905761
9.870972628593444
9.859739208221436
9.778188214302062
9.755895476341248
9.877385263442994
9.98653212070465
9.866829662322997
9.609313354492187
9.465881180763244
9.42809220314026
9.365979862213134
9.334986710548401
9.443863592147828
9.626694645881653
9.7121373796463
9.666648149490356
9.633755269050598
9.694642844200134
9.765492358207702
9.774770612716674
9.74565945148468
9.692675566673278
9.655700497627258
9.732226853370667
9.882568140029907
9.939477524757386
9.857885627746581
9.73928994178772
9.6745374250412
9.668843340873718
9.651875195503235
9.589618902206421
9.60440285205841
9.778222126960754
9.935802597999572
9.90451488494873
9.804516282081604
9.843082714080811
9.949496035575867
9.908797526359558
9.814723420143128
9.913230938911438
10.05333896636963
9.863657965660096
9.740913462638854
9.583949255943299
9.831761474609374
10.093860516548157
10.148881888389587
10.12967179775238
10.10734866142273
10.036359891891479
9.944643187522889
9.88074875831604
9.825499930381774
9.831632657051086
10.010116443634033
10.225559644699096
10.244372172355652
10.167576451301574
10.221041283607484
10.345450196266174
10.356100063323975
10.262523465156555
10.204164524078369
10.204838013648986
10.165372300148011
10.05333306312561
9.968973712921143
9.989997997283936
10.017074294090271
9.907634286880493
9.695781331062317
9.527233328819275
9.473332042694091
9.4961758518219
9.526641893386842
9.506095700263977
9.41152883052826
9.32118486881256
9.34921664237976
9.452021746635436
9.451203632354737
9.314387259483338
9.234524087905884
9.322354373931885
9.395838022232056
9.273756651878356
9.149307103157044
9.296297664642333
9.537863097190858
9.548280968666077
9.477482886314393
9.710901913642884
9.825841693878173
9.888523893356323
9.510726737976075
9.188316011428833
9.18144781589508
9.314106192588806
9.435334930419922
9.501704788208007
9.465808634757996
9.401222167015076
9.45415741443634
9.545352106094361
9.444712538719177
9.256988196372985
9.143046989440919
9.175061931610108
9.164848852157593
9.124097027778625
9.19970522403717
9.39497269153595
9.576924905776977
9.620016689300536
9.569082069396973
9.593780608177186
9.680205206871033
9.667838621139527
9.598542213439941
9.649043502807617
9.829242472648621
9.996731667518615
10.036906070709229
9.959687466621398
9.87508292198181
9.88046151638031
9.953975262641906
9.968529853820801
9.874373540878295
9.782805891036988
9.778450846672058
9.816762728691101
9.853370294570922
9.90854911327362
10.021899156570434
10.178582096099854
10.23455976486206
10.085336947441101
9.86782576560974
9.72443123817444
9.620635952949524
9.558956518173218
9.601491508483887
9.675401577949524
9.662816615104676
9.615587253570556
9.621273136138916
9.593363418579102
9.464274473190308
9.372495226860046
9.423553767204284
9.481112360954285
9.394830131530762
9.274388055801392
9.324789023399353
9.449255113601685
9.534890470504761
9.463133459091187
9.345106477737426
9.266150031089783
9.303088388442994
9.48123806476593
9.678782634735107
9.82401927471161
9.933602991104125
9.953453526496887
9.908239407539368
9.97137613773346
10.16050492286682
10.227271227836608
9.99190197467804
9.82523859500885
9.630883646011352
9.662992105484008
9.778288121223449
9.872681860923768
9.938735604286194
10.02138635635376
10.127152423858643
10.175960817337035
10.135268774032593
10.051655373573304
9.901591324806214
9.677801957130432
9.494426264762879
9.399144883155822
9.328855648040772
9.257570066452026
9.224033970832824
9.278508324623107
9.379233193397521
9.4045578956604
9.363941731452941
9.40969141483307
9.57160662651062
9.675279259681702
9.616177277565003
9.532313990592957
9.538896074295044
9.513312830924988
9.358425931930542
9.209478793144227
9.167061114311219
9.124265427589416
9.030703835487365
9.031324319839477
9.185088725090027
9.323921995162964
9.364433174133302
9.401834778785705
9.381922254562378
9.147189564704895
8.767590155601502
8.458409032821656
8.327149753570557
8.316506643295288
8.266918950080871
8.09332215309143
7.913855295181275
7.920025496482849
8.15599609375
8.274666571617127
8.533712573051453
8.751796040534973
8.944405455589294
9.031168384552002
8.9946661567688
8.906288175582885
8.788379273414613
8.660222172737122
8.63554808139801
8.775162172317504
8.977213406562806
9.12547170162201
9.275211944580079
9.614922232627869
10.110399918556213
10.428332362174988
10.414574584960938
10.238462104797364
10.036009650230408
9.802020854949951
9.581428670883179
9.473658380508423
9.454013586044312
9.429173216819763
9.399139547348023
9.373789172172547
9.325205779075622
9.319641165733337
9.439692478179932
9.608458261489869
9.721851725578308
9.817966933250426
9.949702010154724
10.032411093711852
10.003085317611694
10.000864281654358
10.109659314155579
10.14571325302124
9.993487329483033
9.839184985160827
9.880872626304626
10.045126962661744
10.111956543922425
10.050833172798157
10.04751968383789
10.191549129486084
10.385361657142639
10.516506781578064
10.5628826379776
10.561499586105347
10.480872182846069
10.22833219051361
9.863039536476135
9.642249860763549
9.712300820350647
9.905622453689576
10.04591547012329
10.176105499267578
10.291457638740539
10.266855897903442
10.136414284706115
10.041068820953369
9.876290283203126
9.397209887504578
8.79470777988434
8.591497435569764
8.831610198020934
9.093893947601318
9.221374759674072
9.394525656700134
9.688713946342467
9.93969596862793
9.955012598037719
9.816441717147827
9.875916171073914
9.88754430770874
9.85903866291046
9.790074939727782
9.912664513587952
10.41223261833191
11.096748867034911
11.646694831848144
12.275203890800476
13.325622925758362
14.287855944633485
14.364983534812927
14.46014111995697
14.45659218788147
14.48321222782135
14.44881130695343
14.373603401184083
14.224413919448853
14.178321080207825
14.149538297653198
14.013909277915955
13.80860234260559
13.58628490447998
13.399967303276062
13.310411939620971
13.275517191886902
13.208082895278931
13.127981057167053
13.097756924629211
13.058100395202636
12.89324203968048
12.678412489891052
12.606054711341859
12.644129300117493
12.585246262550355
12.385887660980224
12.567726168632507
13.12078646183014
13.972503881454468
15.120304908752441
16.49049602508545
17.691661076545714
18.19706297874451
18.135562438964843
19.187218995094298
21.326846299171446
24.327127785682677
27.564443373680113
30.163837881088256
31.634700102806093
32.101677012443545
32.181992292404175
32.42018620491028
33.176805105209354
33.61489616394043
33.222620148658756
32.308140826225284
31.538697237968446
30.82577268600464
29.66903910636902
28.555912103652954
28.366187868118285
28.12194543838501
28.047465538978578
28.28953341960907
28.637520127296447
28.74262505531311
28.72873417377472
28.73733060836792
28.892765831947326
29.087229657173157
29.10127866744995
29.157697801589965
29.106988730430604
28.952619490623473
28.96170069694519
29.277096762657166
29.746593899726868
30.196378560066222
30.60412452220917
30.988022022247314
31.32330704689026
31.592197856903077
31.79522991657257
31.91744132518768
31.97039608001709
31.6935964012146
31.137672276496886
30.400605368614197
29.410143537521364
27.990121684074403
26.71159025192261
26.234423847198485
26.791013879776003
26.317519345283507
24.272025513648988
21.055582094192506
17.464438338279724
14.865984864234925
13.746373710632325
13.10616361618042
13.411695203781129
13.71732557296753
13.172994680404663
12.505231633186341
12.73249135017395
14.116687002182006
15.780291819572449
16.764848260879518
17.06644621372223
17.145557160377503
17.084144711494446
17.224078092575073
17.5057709646225
17.286722707748414
18.038442091941832
19.54427547931671
20.91317883491516
21.635860719680785
21.936609444618224
22.20428098201752
22.468960733413695
22.487492780685425
22.783772416114807
22.920824003219604
22.756256608963014
22.751736764907836
23.15507878780365
23.316154537200926
23.18429265499115
23.882389521598817
24.637988882064818
24.89298520088196
24.634914774894714
24.508770899772642
24.852429637908937
25.239933214187623
25.29243546962738
25.283282413482667
25.45734049797058
25.915725932121276
26.741835293769835
28.125490179061888
29.37570924758911
30.047014327049254
30.050869593620302
30.502895793914796
30.916449823379516
30.67074740409851
30.497313747406007
31.582082471847535
32.44278196334839
32.529034328460696
32.33289502620697
32.5528652048111
32.86725306034088
32.25038032531738
30.56944519519806
29.997636137008666
30.471500306129457
31.5989555311203
33.28355810165405
34.91280358314514
36.05168885707855
36.91087390422821
36.33346524238586
34.82571979045868
33.85959856510162
34.01502520561218
34.32895505428314
34.06924132823944
34.02566753387451
34.13095396995544
33.83819598197937
33.75210000514984
33.92284243106842
33.759715728759765
33.052144742012025
32.442342190742494
32.32091560840607
31.808288836479186
31.859037852287294
32.92710403442383
34.46480043411255
35.19157874584198
34.879203276634215
34.97546465873718
35.32807909011841
35.99221299648285
37.22847586631775
38.762031264305115
39.85850724220276
40.4740276145935
41.131742820739746
42.057650079727175
42.97322406768799
42.656582269668576
43.3389405632019
44.469593501091005
45.07400037288666
44.78843101501465
44.29654490470886
44.35417607784271
44.92304892539978
44.974258627891544
44.802653331756595
45.807541813850406
47.37582353591919
46.78299582958221
47.1627322435379
46.99299724578857
45.405626530647275
44.00228720188141
43.12162133216858
42.94180940628052
43.31803151130676
44.084434161186216
44.71119727611542
44.97216015815735
45.21332449913025
45.638944444656374
45.865713019371036
46.04553761005402
46.09785436153412
47.085309953689574
48.503045921325686
49.91634370803833
51.39473295211792
53.037320356369015
53.86507943630218
53.47420586109161
53.582114210128786
53.11798415184021
51.98022060394287
51.1968513917923
51.221226892471314
51.15114573955536
51.57642657279968
52.02274505138397
51.82760731697083
51.16622938156128
50.38743419647217
49.223577690124515
47.43666315078735
45.39779131412506
44.6155597782135
45.525454831123355
45.757619166374205
45.68357116699219
45.43738045215607
44.98809703350067
44.42072526931763
43.642017946243286
43.59710254669189
43.986469974517824
43.552842464447025
41.71849637508392
40.146658787727354
40.15814700126648
38.99860654354095
37.9297639465332
38.02303421497345
37.89126609802246
37.49806164264679
37.09435036659241
37.078950538635254
37.457364292144774
37.47851373195648
36.50326693058014
35.84922409057617
35.59358702659607
35.513253469467166
36.079622797966
36.74446464538574
36.22610981941223
35.567887578010556
35.446813235282896
35.259195165634154
34.1755854845047
33.62440309524536
34.63197242736816
35.06743537425995
35.799232058525085
36.92346544742584
37.758764114379886
37.81377059459686
37.812847361564636
37.88579681873321
37.67677377700806
36.42648188114166
36.613427634239194
38.060837655067445
39.27804114341736
39.4428053188324
39.46998836517334
41.13578188419342
44.05724120616913
47.67764791488648
50.888986339569094
53.145165605545046
54.20427170276642
54.0374867105484
56.019237747192385
58.834671630859376
61.93001715183258
64.96667581558228
67.27118250846863
68.09309147834777
68.31419510364532
68.35838839054108
70.232638463974
72.87157498836517
74.06104198932648
74.6922335243225
76.16561220169068
76.75983638763428
77.23954922676086
80.0799450302124
86.38285730838776
92.47780194282532
95.4772606754303
96.05759227752685
96.119117603302
96.84639750957489
97.75110122203827
98.28737276554108
97.90300115585327
96.44165405750275
97.13938503742219
98.1363509607315
97.52579790115357
95.97856464385987
94.11379188060761
94.43718451976775
96.80733702182769
99.32743676185608
100.19196326732636
99.67667967796325
98.7235493183136
98.58635100841522
97.31190617084503
95.371179728508
94.25940371513367
94.18991978645325
94.01064405918122
92.02434587001801
87.97419008255005
83.05363359928131
78.82860861301423
76.41511446475982
75.83027606964112
76.60232044219971
75.27003785133361
72.22640671253204
68.7003350162506
65.81810410499573
64.13323246479034
63.801478590965274
63.9906861782074
64.69832417011261
64.60092008590698
63.65151837348938
62.501820726394655
63.22634389400482
63.78104229450226
65.04815040588379
66.71780914783477
66.1461769247055
61.453517274856566
55.22120794296265
52.45502025127411
52.27303998470306
51.29454393863678
50.93908523082733
51.54875050067901
51.93371114730835
51.89672391414642
52.66314176082611
51.922345600128175
51.050786848068235
52.833440289497375
56.02842830657959
58.80016063213348
58.44826542377472
55.76315179347992
53.10198763847351
52.55002736568451
53.64710393905639
55.47509996414185
56.82497845649719
56.671149859428404
56.72420331954956
55.77094479084015
56.06053443431854
58.03217764377594
59.27317312240601
59.329186000823974
59.27516436576843
59.917752146720886
59.991134724617005
59.800056958198546
60.39969320774078
61.329684882164
62.15139251232147
62.47078815937042
62.13704321861267
62.200880331993105
62.98718339920044
64.41549785614014
65.27147728919982
64.29762890815735
62.858744521141055
63.99383529663086
64.10534036636352
63.15202162265778
61.49283889770508
58.3470433139801
55.94534614086151
56.221884384155274
58.59300417423248
60.31148296833038
61.220516748428345
62.33441505432129
61.64704718112946
59.758771271705626
58.07945107936859
57.19223485946655
56.718053102493286
56.40438800811768
56.22709200382233
54.5400461435318
51.820288672447205
49.04882393836975
47.95033980369568
48.24514885902405
48.967681360244754
48.57651638031006
47.02137931823731
45.0984806060791
43.890593523979184
44.175933618545535
43.564618916511535
43.358730478286745
42.37146379947662
41.249581608772274
41.34395750045776
42.402054948806764
43.07011105537415
42.884433851242065
42.48662626266479
43.213492856025695
43.84436347007752
43.93763887882233
43.759605050086975
44.355650405883786
45.62818267822266
45.68834498405457
44.410780539512636
42.785122723579406
41.52038969039917
41.1974573802948
41.10965678215027
40.75119074344635
41.58268427848816
42.96361930370331
43.50621520519257
43.42080231666565
45.202722105979916
47.68062139511108
49.64812858581543
51.127584266662595
53.204698419570924
55.3925635433197
55.64093633174896
58.43421164512634
63.04775344371796
66.637274184227
68.29277148723602
68.36994964122772
69.95972332000733
73.63000728607177
77.0105080986023
77.56211795806885
79.86450897216797
83.98331626415252
89.40443984985352
94.79330965042114
97.93498202323913
98.04772491455078
100.92198362827301
106.61974117279053
115.37374444961547
125.0594169807434
132.40307020664216
134.62632540225982
134.27394574165345
136.58772092342377
139.7414991426468
142.53193032741547
144.7228172016144
144.47736597061157
142.37291896820068
141.29560256958007
140.95637520313264
140.21877950668335
139.27931208133697
138.72730877399445
139.34416815280915
140.60322514533996
141.53158523082732
141.74643218517303
141.46236636638642
141.01401618480682
138.90571064472198
136.2031658411026
134.8708220243454
134.88413711547852
132.3902712917328
127.78255832672119
123.52185946464539
120.18828980445862
116.76624183654785
113.46819541931153
113.14919701576233
111.07703706264496
106.9730377483368
103.18776289463044
101.44139073371888
101.47296503067017
100.25001111984253
97.11842819213867
94.07493720531464
93.7305836391449
90.93402458667755
86.04773706436157
80.02534774303436
74.37658386230468
71.44732216358184
71.72272996425629
69.22577321052552
63.833688702583316
55.74991794109344
46.8705410194397
40.05621556758881
37.517106890678406
37.03783257484436
34.11390707969665
30.743917407989503
27.759131479263306
25.638415269851684
25.269479088783264
26.354035983085634
27.2223743391037
28.352442922592164
29.601300210952758
30.14290256500244
30.209272108078004
31.132493214607237
31.73105878829956
31.847970156669618
32.254549179077145
33.56550314426422
34.365063033103944
34.94812766075134
35.401320033073425
35.53430168628692
35.56909711360932
35.395744485855104
35.79148859500885
35.95074362277985
35.92068153381348
36.05635457992554
36.83050387859345
37.579942865371706
37.754266023635864
37.79525168418884
38.22721933841705
38.38067465305328
38.517083849906925
38.27383712291717
37.35494517803192
36.56656651973724
37.39465016365051
39.05851270198822
40.525709562301635
41.733584051132205
43.01324445724487
44.215494871139526
45.00548192024231
45.23078916549682
44.64141973018646
44.45670790195465
44.529627184867856
44.32408903598785
43.67570370674133
43.169013328552246
42.66410972595215
42.195043811798094
42.062704339027405
42.172692441940306
41.80123275279999
41.460039248466494
41.20726487159729
40.53205849647522
39.51117749691009
38.88570411205292
38.71902880191803
37.28593945980072
35.49601217746735
34.0261318063736
33.35065688610077
32.727765860557554
31.76244369983673
31.113033003807068
31.570106420516968
31.87961485862732
31.684351534843444
32.27252324581146
32.07051246166229
32.2406427526474
32.82975986480713
32.51295392513275
33.333116884231565
35.412695751190185
37.74124798297882
39.86292953491211
42.30416278362274
44.80358078956604
45.996372990608215
45.40709569454193
46.04721939563751
47.32939677238464
48.10171475887299
48.38702691555023
48.392592096328734
48.15716423034668
47.26483503818512
46.04825992584229
45.31779919147491
44.6845855140686
44.734589929580686
44.13733049869538
43.60124456882477
43.53280059337616
43.95415725708008
44.343679509162904
44.75801423549652
44.84024742603302
45.05411768436432
45.53999050617218
45.943130898475644
45.82226510047913
45.25283293247223
44.75938072681427
44.56677330970764
44.500302982330325
44.539143385887144
44.51874899864197
44.48105180740357
44.71786904335022
44.33480476379395
43.74873074054718
43.51942925453186
43.329314680099486
42.38370176792145
41.79774001598358
41.898842897415165
41.259859046936036
41.35501061439514
41.06277906894684
40.248063526153565
40.185693960189816
38.95165751457214
36.58252505302429
34.571735692024234
33.16638776779175
31.12815127849579
28.42617133140564
26.79640947341919
26.802458534240724
25.930789070129393
24.65380323410034
22.91943645954132
21.004175267219544
19.539135875701906
18.708595213890074
18.383646960258485
18.23360580444336
17.890644636154175
17.833725938797
17.861450114250182
18.158557500839233
18.027191619873047
17.58143394947052
17.447998771667482
17.37964990615845
17.370285029411317
17.672263822555543
17.5705979013443
16.82505452632904
16.423003478050234
16.384390859603883
16.172110872268675
15.783207139968873
15.890461649894714
15.728359603881836
16.0887087059021
16.43270800113678
16.322567744255068
16.073525018692017
16.04563126564026
15.906366596221924
15.808133802413941
15.941545429229736
16.133219785690308
16.18240159511566
16.214869389533998
16.492125396728515
16.521218957901002
16.541924200057984
16.849877943992613
17.263505487442018
17.286975326538087
16.914571118354797
16.11304769039154
15.189219136238098
14.696368985176086
14.77661859035492
14.939339170455932
15.10513566017151
15.009737005233765
14.859641313552856
14.956361598968506
15.200176801681518
15.164288802146912
15.038075613975526
15.175747022628784
15.291287231445313
15.202771110534668
15.22454337120056
15.32202802658081
15.459846806526183
15.913759765625
16.727598519325255
17.34688232421875
17.876716890335082
18.20520086288452
18.253367128372194
18.19745190143585
18.315279803276063
17.974727659225465
17.328018674850465
16.925500636100768
16.766174149513244
16.271589393615724
16.20807384967804
15.7756964635849
15.485528059005738
15.611714143753051
15.849043054580688
16.03764141559601
16.14733510494232
16.09037693977356
15.876170511245727
15.65738034248352
15.609783191680908
15.851772212982178
16.392442960739135
16.945394797325136
17.142488198280333
17.015457830429078
16.70098505973816
16.463059382438658
16.528291711807253
16.378495712280273
15.904302072525024
15.667531943321228
15.585617942810059
15.687859916687012
16.121576342582703
16.825487518310545
17.310494689941407
17.259945383071898
16.992688484191895
17.02989531993866
17.293656735420228
17.60522804260254
17.84733917236328
17.836546063423157
18.20082489013672
18.460620880126953
18.30792037010193
17.700429291725158
16.897884721755982
16.329348011016847
16.16781105518341
16.401032671928405
16.740969700813295
16.89395809173584
16.887461442947387
16.94138897895813
17.14963942527771
17.468554673194884
17.924575757980346
18.38866466522217
18.630342922210694
18.600329322814943
18.419703521728515
18.17894685745239
17.941870112419128
17.757576446533204
17.580879907608033
17.441965379714965
17.393175711631773
17.45194263935089
17.506901116371154
17.29329765319824
16.677190709114075
15.993100810050965
15.617892084121705
15.472882528305053
15.560122628211975
15.714698734283447
15.490721340179443
15.26255928993225
15.351880431175232
15.409497985839844
15.446248607635498
15.220772967338561
14.679137496948242
13.952525629997254
13.41154194355011
13.197031202316284
13.122926716804505
13.02945273399353
12.833587551116944
12.701125860214233
12.855174541473389
13.11569305419922
12.718355045318603
12.397249813079833
12.434110116958617
12.619957423210144
12.715543546676635
12.49347951889038
11.953093194961548
11.304876132011414
10.86184271812439
10.614360456466676
10.624351139068603
10.713786630630493
10.525615348815919
10.395236802101135
10.07094286441803
9.587768321037293
9.413451051712036
9.722463617324829
10.134056487083434
10.429923396110535
10.716706490516662
11.08043104171753
11.412386832237244
11.557303624153137
11.599921579360961
11.659990062713623
11.74773078918457
11.800714612007141
11.674728384017945
11.688564085960389
11.700621843338013
11.447989702224731
11.518455410003662
11.687300386428833
11.877053241729737
12.103003854751586
12.228066086769104
12.163801307678222
12.082623825073242
12.184332289695739
12.287762913703919
12.401358828544616
12.616562685966493
12.94087025642395
13.254184694290162
13.405666131973266
13.434197497367858
13.307746319770812
13.028881964683533
12.886514711380006
12.960089955329895
12.93302149772644
12.681272501945495
12.396214065551758
12.225446248054505
12.040586462020874
11.788403549194335
11.481876831054688
11.173560557365418
11.077466459274293
11.065551705360413
11.124142684936523
11.451739497184754
11.669770493507386
11.994646139144898
12.342895359992982
12.34081193447113
12.047746272087098
11.658126077651978
11.613795957565308
11.727562098503112
11.695045781135558
11.626374478340148
11.777510614395142
12.053108477592469
12.181371598243713
12.080529928207397
11.922020626068115
12.002115926742555
11.977247190475463
11.880691261291505
12.02994206905365
11.912615184783936
11.650209574699401
11.231103854179382
10.795578017234803
10.561959238052369
10.648256711959839
10.766934680938721
10.733318462371827
10.675583539009095
10.656889157295227
10.514342646598816
10.191090044975281
9.893585443496704
9.762116322517395
9.690623984336852
9.640579690933228
9.63350832939148
9.49403429031372
9.488610692024231
9.32260926246643
9.371444978713988
9.508376755714416
9.592653651237487
9.772905044555664
10.166911196708678
10.758454189300537
11.431596684455872
11.955419902801514
12.1058407497406
11.867855997085572
11.581010918617249
11.143076038360595
10.743901858329773
10.521361122131347
10.57114074230194
10.628561339378358
10.774850807189942
10.85312340259552
10.840516438484192
10.835647354125976
10.926668996810912
10.996838192939759
10.986250591278075
10.997219672203064
11.055828599929809
11.090358762741088
11.05221817970276
11.05937910079956
11.350503487586975
11.73707266330719
11.638540434837342
11.632354259490967
11.800769767761231
11.923252000808716
11.938608937263488
11.698753652572632
11.508920087814332
11.510813527107238
11.691770672798157
12.011693320274354
12.412268257141113
12.761358523368836
12.955032305717468
13.052431454658509
13.133068728446961
13.120438251495361
13.079610719680787
13.301507005691528
13.426434216499329
13.640472779273987
13.629232635498047
13.594714517593383
13.590182905197144
13.480908546447754
13.195970573425292
12.798762769699097
12.379536333084106
12.006131582260132
11.792075943946838
11.860844235420227
12.052924132347107
12.456795020103455
12.675921802520753
12.55293691635132
12.450919122695923
12.493810906410218
12.65074408531189
12.584920544624328
12.32948106765747
12.087159566879272
11.891613216400147
11.688334927558898
11.477901225090028
11.347748651504517
11.376710572242736
11.522745032310485
11.691230125427246
11.727375597953797
11.452413229942321
11.07011526107788
11.073513317108155
10.932607045173645
10.835677313804627
11.057636947631837
11.441194376945496
11.846520643234253
12.106453890800475
12.245416412353515
12.183288769721985
11.882569422721863
11.54438133239746
11.393955087661743
11.35484317779541
11.210392599105836
10.995333833694458
10.888581280708314
10.85531334400177
10.740449113845825
10.573766922950744
10.51016239643097
10.571063370704652
10.663123650550842
10.760262970924378
10.877268085479736
10.967615866661072
10.958974614143372
10.80987509727478
10.622556262016296
10.61482479095459
10.698250150680542
10.801923975944518
10.738447294235229
10.693852491378784
10.929419527053833
11.096877479553223
11.040204682350158
10.779359073638917
10.633041081428528
10.60962637424469
10.620521388053895
10.694381732940673
10.842553911209107
10.96653130531311
10.967771730422974
10.891980090141296
10.829023656845093
10.737910952568054
10.633721170425416
10.742970218658447
11.069933576583862
11.244352326393127
11.159211759567262
11.061999473571777
10.993554649353028
10.815401759147644
10.533041324615478
10.26022213935852
10.104553050994873
10.108187909126281
10.187023358345032
10.23565589904785
10.251825966835021
10.224541606903076
10.272038860321045
10.476657061576843
10.527067546844483
10.458798327445983
10.374231452941894
10.436895971298219
10.780062270164489
11.20947250366211
11.559381918907166
11.931090564727784
12.385440459251404
12.700478162765503
12.742502946853637
12.719095158576966
12.753447828292847
12.716264462471008
12.704896731376648
13.038011374473571
13.812485537528993
14.479405250549316
14.803482251167297
15.293795008659362
16.068802700042724
16.466781969070436
16.392803616523743
16.509355759620668
16.52800130367279
16.431059656143187
16.32947941303253
16.261504316329955
16.161508231163026
15.949489917755127
15.687971062660218
15.58262797355652
15.573383507728577
15.382031588554382
14.945355038642884
14.65874885559082
14.707293462753295
14.77261769771576
14.714833264350892
14.740813045501708
14.913851041793823
15.080492429733276
15.132293581962585
15.088615021705628
15.009004969596862
14.904313678741454
14.814236693382263
14.906282367706298
15.110567479133605
15.215710606575012
15.307894792556763
15.233245067596435
15.254802112579346
15.105616188049316
14.820964527130126
14.464903507232666
14.148472027778626
13.783013491630554
13.34957721710205
13.06263069152832
13.02455864429474
13.147716245651246
13.375846314430238
13.580833115577697
13.569096822738647
13.010543122291566
12.045651741027832
11.233314394950867
10.741150465011597
10.14177170753479
9.406265015602111
9.085975427627563
9.163228821754455
9.079012331962586
9.184595708847047
9.339007453918457
9.322147650718689
9.209979577064514
9.224340753555298
9.449022097587585
9.749903073310852
9.976542649269105
10.223629455566407
10.480479140281677
10.584726638793946
10.625934100151062
10.60918032169342
10.487844767570495
10.37609908103943
10.240261039733888
10.210400223731995
10.240960669517516
10.188816089630127
10.166058354377746
10.3179261636734
10.489814262390137
10.452023339271545
10.254229655265808
10.08806944847107
9.986515855789184
9.974826636314392
10.13532738685608
10.146481647491456
10.145589771270751
9.942300338745117
9.908702158927918
10.32581660747528
10.93431203842163
11.203639369010926
10.980315737724304
11.18363112449646
11.641129426956176
12.219930801391602
13.054577112197876
14.434145774841308
16.38779682159424
18.377057328224183
19.33565508365631
19.70617935180664
20.857681226730346
21.626672773361207
21.74727439880371
21.665815682411193
21.716130948066713
21.571344537734987
21.382055983543395
21.38427598953247
21.428040289878844
21.357233700752257
21.18070261478424
21.370117716789245
21.937118659019472
22.583264207839967
23.213216142654417
23.932039756774902
24.439292044639586
24.54595054626465
24.57591911792755
24.607482414245606
24.49899317264557
24.340675683021544
24.20261184692383
24.045836415290832
23.997133688926695
23.73066490650177
23.50898627281189
23.4856307888031
23.528335452079773
23.57971018791199
23.702796120643615
23.764646587371825
23.533050112724304
23.722544870376588
23.946743178367615
24.01897234916687
23.806142802238465
23.182130961418153
22.39579963684082
22.032541193962096
22.182203087806702
21.949936075210573
21.562397389411927
21.146940932273864
20.53277874469757
19.397123188972472
17.68143349647522
15.927350101470948
15.251777248382568
15.236867980957031
14.45144404411316
13.937645807266236
13.858193559646606
13.787850160598754
13.66042884349823
13.661931629180907
13.687205233573913
13.583347311019898
13.4571515417099
13.570058908462524
13.76567524433136
13.465259351730346
12.706641683578491
11.994571404457092
11.45739209651947
10.804518094062805
10.23717267513275
10.176749401092529
10.584087176322937
11.214385161399841
12.093988981246948
12.709676713943482
12.755209083557128
12.98970230102539
13.139063954353333
13.191223821640016
13.201694798469543
13.397720808982848
13.715621757507325
13.839473123550414
13.619186000823975
13.373707146644593
13.546136598587037
13.511502175331115
13.557141308784486
13.719779181480408
13.82438422203064
13.886953473091125
14.011992454528809
14.027235260009766
13.91751401424408
13.801785936355591
13.651496267318725
13.27531349658966
12.977080597877503
12.804191770553588
12.543254070281982
12.17214020729065
11.847219619750977
11.501762971878051
11.0767595911026
10.849740977287292
10.870572004318237
10.995640778541565
11.53393584728241
12.265004510879516
12.992673120498658
13.900779514312744
15.17892035484314
16.32739703178406
16.80377652645111
16.78794839859009
17.510473432540895
18.020361909866335
18.087515935897827
18.153180022239685
18.26031101703644
18.798418679237365
19.216140851974487
19.335607514381408
19.442549629211427
19.822819180488587
20.36850962638855
20.276330609321594
20.259443335533142
20.501768012046814
20.562644953727723
20.310706610679627
20.04565052509308
19.838315200805663
19.780639686584472
19.74833688735962
19.59078408241272
19.496748242378235
19.286389780044555
19.05383804321289
18.912333121299742
18.84643175601959
18.736719760894776
18.60394703388214
18.675885443687438
18.856290974617004
19.002596230506896
19.167734336853027
19.119700841903686
18.918702545166017
18.924075236320494
19.068495388031007
19.03649009227753
19.070239877700807
19.550125503540038
20.263070387840273
21.002950930595397
21.659550046920778
21.48743106842041
20.760512828826904
19.919184823036193
19.09545909881592
18.32055809497833
17.436405334472656
16.69290421485901
16.567544093132017
16.10405260562897
16.16594943523407
16.368283176422118
16.14811044692993
16.290370292663575
15.645160212516785
15.136257619857789
14.590539436340332
13.692017021179199
12.671827430725097
12.003453235626221
11.954966144561768
11.899532256126404
11.663660926818848
11.509909391403198
11.455576419830322
11.328339614868163
11.244939432144164
11.281449737548828
11.376597671508788
11.483368091583252
11.454137001037598
11.617352690696716
11.945295753479003
12.322298436164855
12.700169072151184
13.118733248710633
13.56741928577423
13.785136981010437
13.714077520370484
13.52074291229248
13.40936803817749
13.433020148277283
13.635796608924865
13.966141538619995
14.232995429039
14.226369934082031
14.424612655639649
13.986736078262329
13.309914312362672
12.52405921459198
11.900317196846009
11.770842399597168
12.154473528861999
12.676370396614075
12.983565006256104
12.900048656463623
12.846456241607665
13.174577016830444
13.383992977142334
13.159373683929443
12.331250367164612
11.635602712631226
11.605028901100159
11.380735807418823
11.501823487281799
11.216801552772521
10.869655947685242
10.771896624565125
10.869987154006958
11.098926939964294
11.343190631866456
11.496027059555054
11.716712737083435
12.033254532814025
12.419362707138061
12.818023490905762
13.04761631011963
12.89086567401886
12.792857704162598
12.743878364562988
12.691657304763794
12.599093103408814
12.45865514755249
12.179356412887573
11.878066124916076
11.665397896766663
11.362631435394286
11.021779184341431
10.853456740379334
10.830149722099303
10.76899712562561
10.721161346435547
10.835141978263856
11.052192401885986
11.401780848503114
11.946662402153015
11.946979637145995
12.111097555160523
12.203957657814026
12.356944961547851
12.483332915306091
12.357153701782227
12.18701443195343
12.38231897354126
12.842454137802124
13.001264657974243
12.598497014045716
12.482657108306885
12.230673270225525
12.3537455701828
12.685373840332032
12.854105377197266
12.856851949691773
12.899052147865296
12.747234659194946
12.660831890106202
12.67302707672119
12.741595220565795
12.745548200607299
12.57132752418518
12.236730852127074
11.95505642414093
11.734767746925353
11.540679302215576
11.22131113052368
10.9192609167099
11.081934866905213
11.6405765914917
11.946199588775634
12.089576983451844
12.263076739311218
12.44667227268219
12.608057937622071
12.857560024261474
12.891246066093444
12.864117112159729
13.108809638023377
13.321267657279968
13.359552245140076
13.546749148368836
13.989342818260193
14.677064261436463
15.368353400230408
15.915537214279174
16.12229506969452
15.686940956115723
15.827772755622863
16.017429895401
15.785257167816162
15.560275049209595
15.427631449699401
15.474965071678161
15.448881945610047
14.948067073822022
14.172814464569091
13.780462803840637
13.977825531959533
13.85032744884491
13.89669858932495
13.713556718826293
13.449445786476135
13.33380138874054
13.311869792938232
13.246753973960876
13.250602297782898
13.224612712860107
13.229744925498963
13.120897479057312
13.095969753265381
13.300775203704834
13.67174518108368
13.939966254234314
14.149267787933349
14.38445237159729
14.690739402770996
14.928412828445435
14.971416187286376
14.977323322296142
14.954031987190247
14.953851866722108
15.071359186172485
15.124321393966675
14.86289839744568
14.536715264320373
14.484248614311218
14.427512817382812
14.151214113235474
14.053555192947387
14.115275559425355
13.902790403366089
13.420128269195557
12.6945876121521
11.793953328132629
10.860676155090331
10.416517605781555
10.986937308311463
11.140396313667297
11.064189972877502
11.146292576789856
11.058101377487183
10.978406224250794
10.864710755348206
10.626284518241881
10.414498882293701
10.28677638053894
10.08385302066803
9.909749917984009
9.857427377700805
9.789918761253357
10.015920124053956
10.50671621322632
10.927380657196045
11.171690216064453
11.396883010864258
11.745354857444763
12.076328082084656
12.280658164024352
12.486351542472839
12.629541087150574
12.706070652008057
12.657173433303832
12.45947883605957
12.190685501098633
11.92592833995819
11.656681070327759
11.305382137298585
10.886984748840332
10.367650957107545
10.12721010684967
10.094254126548767
9.954913358688355
9.800304794311524
9.920619773864747
10.18160927772522
10.5385445022583
10.94865005493164
11.254402866363526
11.17841127872467
11.292016620635986
11.467977566719055
11.450287804603576
11.744809293746949
12.009041185379028
11.850001764297485
11.419908332824708
10.68975778579712
10.387806649208068
10.593948140144349
11.072126908302307
11.738540282249451
12.363468346595765
12.64448278427124
12.573398222923279
12.6903746175766
12.684805645942689
12.954163780212403
13.207925486564637
13.26316258907318
13.277214851379394
12.994768018722533
12.407272539138795
12.1476539850235
12.295445494651794
12.423708472251892
12.34450140953064
12.206255049705506
11.969794669151305
12.227420978546142
12.836644005775451
13.41618670463562
13.84307291507721
14.223800349235535
14.4504074716568
14.368220481872559
14.251760659217835
14.556698670387268
15.203042860031127
15.858004426956176
16.002003540992735
15.809709267616272
15.5989058303833
15.525916504859925
15.545986218452454
15.552054224014283
15.291965379714966
14.762356777191162
14.530091948509217
14.630060687065125
14.387482967376709
14.283255462646485
14.522221903800965
14.480289630889892
14.39016297340393
14.541316328048707
14.704382405281066
14.983321423530578
14.8723175907135
14.472922291755676
14.060013074874878
13.640226373672485
13.148779668807983
12.821233243942261
12.914216799736023
12.971333727836608
13.147717356681824
12.954668617248535
12.703345408439636
12.584628882408142
12.762953925132752
13.244540700912475
13.866220703125
13.901857624053955
13.532539134025575
13.294426236152649
13.427331919670104
13.579188327789307
13.785059223175049
13.556194834709167
12.96347297668457
12.294063067436218
11.786765336990356
11.4764235496521
11.394411935806275
11.521089200973512
11.585660600662232
11.276197423934937
10.598902831077575
9.9358056640625
9.674036264419556
9.821414308547974
10.30130419254303
10.754540905952453
10.946081252098084
10.946317224502563
11.07967086315155
11.399221115112304
11.526081457138062
11.6705170917511
11.956913542747497
12.039567608833313
11.912624797821046
11.703676719665527
11.62093065738678
11.615999102592468
11.386478834152221
11.246606636047364
11.018068137168884
11.01109823703766
10.972351765632629
10.809524941444398
10.75366988658905
10.884246196746826
11.018110446929931
11.10495584487915
11.347562713623047
11.807408037185668
12.154340085983277
12.351983036994934
12.357252950668334
12.04074022769928
11.462217774391174
11.248266520500183
11.221143698692321
11.256603336334228
11.074509420394897
10.862802548408508
10.801864523887634
10.833754816055297
10.646112022399903
10.706271800994873
11.25808786869049
11.793942303657532
11.924660954475403
11.893654899597168
12.472040991783143
13.9180943775177
15.878180823326112
17.403541736602783
18.10909026622772
18.442746119499205
18.712662167549134
18.838030223846435
18.54663902759552
18.671929326057434
18.943345155715942
19.23162090778351
19.724352045059206
20.330354042053223
20.769263973236082
20.962221093177796
20.99688030719757
20.949621324539184
20.94886906147003
21.319178962707518
22.661554279327394
24.491448721885682
26.26458646774292
27.068916482925417
27.27305899143219
27.461563658714294
27.586212787628174
27.384611954689024
27.525794134140014
27.630964856147767
27.30541073322296
26.82589364528656
26.527650017738342
26.3957493686676
26.357399978637694
26.465331702232362
26.629210143089296
26.72314217567444
27.02882899284363
26.89702329158783
26.93298875808716
27.06288026332855
27.010507545471192
26.7556142950058
26.65404110908508
26.352809853553772
25.57870774269104
24.88071960449219
24.779178647994996
25.069962520599365
24.872862877845765
23.744711241722108
21.93751847267151
20.537681155204773
20.12357120037079
20.096489791870116
19.797163705825806
19.44459713459015
19.547734923362732
19.261599750518798
18.821475253105163
18.424972681999208
17.85882806777954
17.09937063694
16.428557887077332
16.07581285953522
16.075625348091126
16.31478806018829
16.547726373672486
16.34752480506897
15.030471625328063
13.277402257919311
11.503671650886536
10.855516772270203
10.864239029884338
10.827629323005675
10.740070691108704
10.876472458839416
10.65653925895691
10.502787923812866
10.674344391822816
10.80436538696289
10.734063811302185
10.79302532672882
10.760992827415466
10.538416123390197
10.350940566062928
10.476987676620483
10.680953221321106
11.285655045509339
11.681463141441345
12.036729197502137
12.610201778411865
13.297146553993224
13.76291856765747
13.900895037651061
14.070738129615783
14.366092510223389
14.45424162387848
14.202898321151734
13.882585945129394
13.80148624420166
13.839566445350647
13.828045535087586
13.925559649467468
13.742356667518616
13.326771650314331
12.951695065498352
12.781520438194274
12.828869295120239
12.830168857574463
12.622143435478211
12.409337940216064
12.450976810455323
12.711108913421631
12.951883535385132
13.08284396648407
13.18614930152893
13.2124560546875
13.124202666282654
13.172373661994934
12.983351316452026
13.104312529563904
13.019531054496765
12.86417956829071
12.702397241592408
12.548167333602905
12.453888602256775
12.365797181129455
12.381982746124267
12.52908205986023
12.997806057929992
13.79968032360077
14.492434225082398
15.031387605667113
15.356833653450012
15.441712107658386
15.273732762336731
14.917841596603393
14.342089900970459
13.719922423362732
13.193197846412659
12.661864929199218
12.117741069793702
11.802723460197448
11.821190543174744
11.847364277839661
11.619445209503175
11.323657388687133
11.173389344215392
11.187633762359619
11.126006813049317
10.988239111900329
10.834567718505859
10.48402181148529
10.430548658370972
10.671487593650818
10.89305419921875
10.961361927986145
10.901711521148682
10.863820943832398
10.938282837867737
11.03948902130127
11.049051008224488
11.017654204368592
11.03075439453125
10.982692189216614
10.776301250457763
10.563251976966859
10.448833975791931
10.35762451171875
10.451450095176696
10.390188841819763
10.413443479537964
10.41341182231903
10.378874688148498
10.3905531167984
10.386596393585204
10.356814222335816
10.235574975013733
10.057547249794005
9.398266377449035
9.257530570030212
9.480822591781616
9.75693063735962
10.337375507354736
11.452848219871521
12.439400386810302
12.935303292274476
13.276971645355225
13.505742659568787
13.50739725112915
13.77217631816864
13.90634572505951
13.745121421813964
13.57724214076996
13.446366453170777
13.57253203868866
13.860981712341308
13.982224626541138
13.857324886322022
13.767262907028199
13.893370633125306
13.923696193695069
14.109509539604186
14.006118531227111
13.873906865119935
13.935693907737733
14.044441266059875
14.09993911743164
14.091094388961793
14.043661503791808
13.971202836036682
13.871429443359375
13.757876391410827
13.704888644218444
13.753823246955871
13.724446067810058
13.581256027221679
13.793376536369324
14.491965847015381
15.021618843078613
15.146115407943725
15.224550876617432
15.723177952766418
16.543919825553893
17.493229942321776
18.82116150379181
20.71127772808075
22.403932847976684
22.913261632919312
23.152557673454286
22.822622332572937
21.850014057159424
21.09745490550995
20.16973261356354
19.33307159423828
18.55924023151398
18.003030610084533
17.937157173156738
17.920025811195373
18.0668980550766
18.12957290172577
18.33369125366211
18.496641998291015
18.67366704940796
19.136808271408082
19.58690320968628
19.85604121208191
19.911856808662414
20.110307779312134
20.477780380249023
20.93642970085144
21.81079351425171
22.59933054924011
23.341660590171813
23.559942741394043
23.337487363815306
23.212126035690307
23.18741774559021
23.48042909145355
23.76969941139221
23.814453926086426
23.87650692462921
23.983467421531678
23.933837122917176
23.77726309299469
23.785146837234496
23.86693036079407
23.559170260429383
22.94000810623169
22.48921446800232
22.74401376247406
23.088292779922487
22.930870428085328
22.10342053413391
21.659522533416748
21.4061439037323
21.051950612068175
20.97114974975586
21.94950282096863
23.335138072967528
23.906931071281434
24.36069534301758
25.95098795890808
27.733153200149538
28.401551990509034
28.50290675640106
28.52246680736542
29.25870211601257
30.880929584503175
32.33984911441803
32.702489485740664
32.29806864261627
32.5393949842453
32.33923233985901
32.43884048461914
32.29691982269287
31.865334339141846
32.01564171791077
32.297638335227965
33.39480137348175
34.30494659423828
33.96955335617066
33.09472752571106
32.41427746295929
32.10694867610931
32.315606689453126
32.681740412712095
32.667712411880494
33.027246537208555
33.99411699771881
34.82908169269562
34.75026306152344
34.90703414440155
35.014443464279175
34.89606419563293
34.7612269115448
34.90000523090362
35.41246321201324
35.95313992500305
36.20090054512024
36.02155160903931
35.427295999526976
34.914368424415585
35.00014835834503
34.64971576690674
33.73573176383972
32.29434878349304
30.55577857017517
28.868475456237793
27.27320251941681
26.722492084503173
27.00478126525879
26.398951134681703
25.787451243400575
25.51029556751251
25.097837433815002
25.79821711063385
26.019443774223326
25.25053985595703
23.880258135795593
23.348857097625732
23.729112157821657
23.773864650726317
24.200190415382384
23.999415259361268
24.17973256111145
25.199326581954956
25.708736662864684
25.450172152519226
24.541116018295288
23.5355539894104
25.365449929237364
28.499315714836122
31.078297057151794
32.51937412261963
32.5725848531723
32.763450207710264
34.066299929618836
34.73705807209015
34.09862205505371
33.207109293937684
33.48051150798798
33.13060715675354
33.473714289665224
34.83514251708984
36.031429615020755
36.34650803089142
36.32561927318573
36.468380312919614
36.15226169586182
37.01349004745484
38.90033781528473
40.72633162021637
41.92285713672638
42.668551502227785
43.09815165996552
43.130261669158934
43.48354900360108
43.953618125915526
44.2778276014328
43.989140796661374
43.29087704658508
42.29253294944763
41.21699405670166
40.49637986183166
40.545909676551815
39.84887848854065
38.631946115493776
37.562846441268924
37.24741160392761
37.014994640350345
36.64847055912018
36.26102764606476
35.838495903015136
35.692706394195554
35.61646279335022
35.324662775993346
35.25723393917084
35.46293057918549
34.96044852256775
34.476317019462584
32.25899296283722
29.22637418270111
26.72575748920441
25.44445607662201
25.330550246238708
24.83636569023132
23.564111094474793
22.189829239845277
21.717361912727355
22.090923414230346
22.025559692382814
21.94419858455658
21.359423208236695
20.183366341590883
19.309574174880982
18.9396893119812
18.33551920890808
17.673347420692444
17.590734796524046
16.473500113487244
14.536867618560791
12.833258337974549
11.613769445419312
10.970250205993652
11.280915451049804
12.637409782409668
14.014389996528626
14.956985335350037
15.519458479881287
15.763291025161744
15.842418041229248
16.22450704097748
16.82626088142395
17.411552534103393
17.490206837654114
17.70806236743927
17.886253895759584
18.047801661491395
18.244203300476073
18.65399492263794
19.70268582344055
20.70905258178711
21.23070890903473
21.165348658561708
20.691777920722963
19.917889137268066
19.145613899230955
18.775730562210082
18.88677848815918
19.32654701709747
19.720185623168945
19.812513518333436
19.72734848022461
19.60383885860443
19.611017990112305
20.322456674575804
21.324345030784606
21.86732985496521
21.703382778167725
21.436103110313415
21.21222855091095
21.420324792861937
21.593320541381836
21.80966694831848
22.1638777923584
22.63168410778046
23.08168688774109
23.243930058479307
23.424645948410035
23.46411998271942
23.561017441749573
23.540737237930298
23.42831484794617
23.296428933143616
22.652054615020752
21.536857166290282
20.223882236480712
19.059887022972106
18.267542700767518
17.976925044059755
17.923343238830565
17.594673161506652
16.99237863063812
16.427008504867555
16.439009566307067
16.33192789077759
16.23678192615509
16.068576469421387
16.049854230880737
15.871965036392211
15.00976345062256
14.095082325935364
13.677285299301147
13.713907504081726
13.818065433502197
13.732265038490295
14.087861270904542
14.677297730445861
14.974733686447143
14.576623797416687
14.337732014656067
14.354585180282593
14.952663946151734
14.926700434684754
14.941747798919678
14.89298382282257
15.701389422416687
16.716630268096925
17.10824820995331
17.208167366981506
17.498389463424683
17.429345002174376
17.259831180572508
17.168819770812988
16.92939120769501
16.66436710357666
16.663018579483033
16.640736541748048
16.657537207603454
17.033220977783202
17.269831919670104
18.655703740119932
20.43594609737396
21.207774362564088
20.934023237228395
21.027698554992675
21.168952775001525
21.423215312957765
21.774124932289123
21.911849489212035
21.942261295318602
21.90545786380768
21.798713045120238
21.917595648765563
21.776792964935304
21.808041701316835
21.92341721534729
22.124779810905455
22.171778020858763
22.162933235168456
22.19886339187622
22.424403200149538
22.67496212005615
22.629919266700746
22.41111743927002
22.408178696632387
22.08299467086792
21.576152682304382
21.359326577186586
21.62854606628418
21.545424094200133
21.23665687561035
20.524978494644166
20.690733637809753
20.86187078952789
20.44750868320465
18.859728856086733
17.635285406112672
17.636208333969115
17.852482137680052
17.946964206695558
18.187472791671752
18.46928298473358
18.562703018188476
18.505153474807738
18.2196790266037
17.861571912765502
17.89457007408142
17.887419991493225
17.61885377407074
17.407898173332214
15.995277137756348
14.207266836166381
13.406220679283143
13.706826977729797
13.98291750907898
14.521641879081725
14.743174319267274
14.390785336494446
14.423890976905822
14.330315804481506
14.27190890789032
14.45777048587799
14.435394773483276
14.533382153511047
14.648407430648804
15.229640717506408
15.911665630340575
16.087824273109437
15.822656784057617
15.66153489112854
15.43128493309021
15.1968692445755
15.075226984024049
15.02370677471161
15.20514654159546
15.577769818305969
16.055659770965576
16.247057299613953
15.88969428539276
15.843955183029175
15.806371817588806
16.034105896949768
16.098815312385558
15.907917408943176
15.548876881599426
15.167792468070983
14.780986118316651
14.460348467826844
14.274813389778137
14.188126225471496
14.018307776451111
13.66908932685852
13.315202956199647
13.032960228919983
12.959265956878662
12.863340764045715
12.764155998229981
12.916342949867248
13.1628093624115
13.285946941375732
13.356791367530823
13.51163918018341
13.488987488746643
13.19367609500885
12.552231168746948
11.654163255691529
10.938424468040466
10.920438265800476
10.953452243804932
11.081951575279236
12.05209415435791
13.277781538963318
13.958277492523193
13.960183367729186
14.438215818405151
14.68744198322296
14.584219236373901
14.256793689727782
14.964957780838013
16.266788048744203
17.96273676395416
19.62503598690033
20.994455914497376
21.771191201210023
21.70607945919037
21.7641473197937
21.170919609069824
20.987000708580016
21.243144788742065
21.29061982154846
21.694681496620177
21.668307127952577
21.796172494888307
22.508543963432313
23.06305682659149
23.14240735530853
23.79904841899872
24.399384241104126
24.44843325138092
24.18965129852295
24.288105792999268
24.771045007705688
25.07328739643097
25.04674024581909
25.044972701072695
25.241054153442384
25.28091369152069
25.13995222568512
24.971384243965147
24.83493803024292
24.6607359790802
24.610325322151184
24.712684788703918
24.888202438354494
24.89691997051239
24.835831575393676
25.042033038139344
25.36364993572235
25.529479699134825
25.51951653957367
24.410255002975465
22.95238220691681
22.175899267196655
22.16441445350647
21.362590866088865
20.47647898197174
19.82114580154419
19.818297810554505
19.1676939868927
17.926985521316528
16.392734622955324
14.615098872184753
13.304462480545045
12.57227282524109
12.776138138771056
13.624129066467285
15.447683243751525
16.124053378105163
16.208898944854738
16.9906116771698
17.517773900032044
17.735428075790406
17.882370228767396
19.03539197921753
21.29761353492737
23.436206769943237
23.67181615829468
23.07421790599823
23.00340145587921
23.726208181381224
24.568090748786926
25.213656392097473
25.914924101829527
26.491469278335572
26.519375138282776
27.239591736793518
28.4513002204895
29.942668528556823
31.53569048881531
33.037504510879515
33.923162145614626
34.196818203926085
35.224725413322446
35.99778356552124
36.12336559772491
36.11742884635925
36.059600372314456
35.81466338634491
35.490047087669375
35.40885992527008
35.543042945861814
35.66784200191498
35.99299576282501
36.16814676761627
36.115288090705874
35.95364572525025
35.86592719078064
35.82232518672943
35.76799392223358
35.60410027503967
35.304773182868956
35.41582917690277
35.4541268825531
35.604655404090884
35.487225832939146
34.449872574806214
32.96713160037994
32.332931718826295
32.20485888004303
31.285371599197386
30.52362382888794
30.467258086204527
30.410545592308043
28.75854506969452
26.137268810272218
24.122630791664122
23.414075198173524
23.36525595188141
23.11673586845398
22.308516445159913
21.25432919502258
20.272887892723084
19.50788649559021
19.088576068878172
19.040193247795106
18.344135942459108
16.904210419654845
15.33898808479309
13.643097438812255
12.171353845596313
11.580057835578918
11.495594887733459
10.338416247367858
9.43204912185669
9.39273141860962
9.539528002738953
9.479609656333924
9.318839769363404
9.446377577781677
9.985191569328308
10.700793867111207
11.128721432685852
10.728754558563232
10.874520511627198
11.483141441345214
12.239233083724976
13.549901537895202
15.693502697944641
18.524738245010376
21.46135690689087
23.89256437778473
25.08562066555023
25.015793294906615
25.61173732280731
26.778741512298584
27.73693064689636
27.894736409187317
27.72289670467377
27.932162709236145
28.37484767436981
28.41128590106964
28.20799859046936
28.328869619369506
28.912514266967772
29.801356749534605
30.299461846351623
30.23644741535187
30.705397911071778
31.085901651382446
31.28762122631073
31.37296132564545
31.354037594795226
31.16076005935669
31.054770979881287
31.122345538139342
30.91234176158905
31.151447405815123
31.436969933509825
31.795158638954163
31.978220057487487
31.830135655403136
31.571425466537477
31.48119092464447
31.395432505607605
31.21812171459198
31.048051600456237
30.984400300979615
30.975997409820557
30.935706095695494
30.493155183792116
29.826294918060302
29.465734748840333
29.731037707328795
29.612881741523744
29.15800880908966
28.429474058151246
27.25076585292816
25.080833687782288
22.452829914093016
19.581169018745424
17.224790139198305
16.107856240272522
16.318480529785155
16.056128044128418
15.122968344688415
14.165470027923584
14.915269703865052
16.41486011505127
17.07439073562622
16.6354820728302
17.01065938949585
17.77971549987793
18.001836681365965
17.418010859489442
16.661758728027344
18.07802833557129
21.861162858009337
25.288999962806702
26.934493503570557
27.03596309661865
28.51197247028351
30.0876394367218
31.017696805000305
31.1184658241272
31.358294787406923
32.29265892982483
33.00179733276367
32.535970497131345
33.012042546272276
33.53958300590515
33.360759572982786
34.07180427074432
34.941059412956236
35.4881801700592
35.68976600170136
35.97299125671387
36.7354954624176
37.57058237075805
37.44472483158111
38.05616997241974
38.313570795059206
38.78324872493744
39.93404490470886
40.983106923103335
41.38197196006775
42.06129415512085
43.91981731891632
46.47649958610535
48.720702300071714
50.36396424770355
50.54555495738983
51.13802371501922
51.3474360704422
51.04013512611389
51.391353931427005
51.86193598270416
51.03608038902283
50.154154233932495
49.97806110858917
53.135989174842834
56.55827603340149
58.3994727897644
58.73644542694092
58.99836912155151
59.71535997390747
58.847761964797975
55.27847914218903
52.56048236846924
53.09928304195404
55.6844268655777
56.33054966926575
56.10601080417633
55.79096302509308
55.886796069145205
56.88706720352173
57.886278018951415
58.924207377433774
60.338992161750795
59.36811896324158
59.7217536687851
60.825235133171084
60.45452751159668
59.91848827838898
60.00649183750153
60.17126788616181
60.15906612873077
60.39440918922424
60.748993682861325
61.72321946144104
61.817897176742555
62.082648367881774
61.872032103538515
60.89278923511505
59.99840450286865
59.67744304656983
58.92708113670349
56.9712776184082
54.44870926856995
52.05886276245117
50.41084787845612
50.24588673591614
49.553712129592896
49.122550215721134
48.98851054191589
48.28729842662811
47.6106662607193
47.20267645359039
46.69340242385864
46.32514297485351
43.786440863609315
40.64461211204529
38.7600400686264
38.374425678253175
38.27786534309387
37.49052087783814
36.42469325065613
36.38237106800079
35.54577817440033
33.21510002613068
30.369503712654115
28.185856199264528
26.687635340690612
26.046297903060914
26.305073227882385
25.820209231376648
24.36313955783844
22.654686160087586
21.873546957969666
22.331449365615846
21.466130285263063
20.95825135231018
21.264799132347108
21.408103194236755
20.977112464904785
20.588211097717284
20.26802942276001
19.242282104492187
18.041013827323912
17.160172848701478
16.47710291862488
16.09440833568573
16.01358500957489
15.840023093223571
15.383563265800476
15.34978895187378
15.418309864997864
15.44891770362854
15.553204407691956
15.683659610748292
16.04794692993164
16.5586266374588
16.81832464694977
16.763720154762268
16.68078655719757
16.59768614768982
16.570220246315003
16.582300095558168
16.29952727794647
15.77983693599701
15.271258473396301
14.813580651283264
14.169434990882873
13.380277576446533
12.853743958473206
12.706282930374146
12.736336178779602
12.545815711021424
12.529699759483337
12.801607632637024
13.461893973350525
14.238665509223939
15.029959454536439
15.497215156555177
15.353894543647765
14.879571685791015
14.721865191459656
14.640380625724793
14.196317577362061
13.964958653450012
13.736051683425904
13.245989694595337
12.721137175559997
12.323752326965332
12.227209405899048
12.25781328201294
12.49491934299469
12.99403892993927
13.561965780258179
13.895721502304077
14.018716468811036
13.861802067756653
13.48612229347229
13.25683359146118
13.361919469833374
13.361627502441406
13.5415407705307
13.681827096939086
13.713552641868592
13.520430808067323
13.40362313747406
13.649609026908875
14.293413786888122
14.72938747882843
14.868042397499085
15.07084300994873
15.22770043849945
15.607379298210144
15.966526846885682
16.216521544456484
16.23454890727997
16.086413259506227
16.20136888504028
16.638993005752564
16.898563947677612
16.80749855518341
16.59520544528961
16.5479594707489
16.35014934539795
16.023177065849303
15.324380297660827
14.439113569259643
14.065740809440612
14.219491286277771
14.131291546821593
13.718599591255188
13.368171954154969
13.3136656999588
13.268489513397217
13.130848126411438
13.03839502811432
12.985821857452393
12.846052627563477
13.052312345504761
13.633609981536866
14.502688207626342
14.959600615501405
14.649228105545044
14.318670568466187
14.506661009788512
15.3788560628891
17.013169493675232
18.567707800865172
19.059338483810425
19.020338134765623
18.92464349746704
18.90178726673126
18.641980009078978
18.652865982055665
18.734084844589233
18.434238624572753
17.65223521709442
16.6707705783844
16.224388475418092
16.23732548713684
16.299048223495483
16.250729355812073
15.961784505844117
15.86478322505951
15.71336359500885
15.482498664855957
15.21223774433136
14.817982983589172
14.436382026672364
14.15531000137329
14.318674864768981
14.549445734024047
14.492444639205933
14.549162526130676
14.801460237503052
15.358228607177734
15.949757552146911
16.112107033729554
15.989357080459595
16.188779458999633
16.627294721603395
16.96288948535919
17.019737944602966
16.97193679332733
16.890486211776732
16.926668610572815
16.95944811820984
16.947997007369995
16.75952039718628
16.23984823226929
15.526648693084717
14.9508131980896
14.84907078742981
14.886946086883546
14.664743704795837
13.824510993957519
12.191668696403504
10.73082498550415
10.445684914588929
10.792146248817444
11.140560450553894
11.242759351730347
11.385467419624328
11.200098552703857
11.1753111743927
11.155578637123108
11.05928116798401
11.01057744026184
10.983947839736938
10.826210408210754
10.682216281890868
10.846124095916748
11.12081699848175
11.2724760723114
11.536800918579102
11.858292436599731
12.13123911857605
12.376913380622863
12.562332272529602
12.847083954811096
12.922374567985536
12.862506985664368
12.865197291374207
12.62994776248932
12.252166476249695
11.910135383605956
11.573646912574768
10.992893695831299
10.651760530471801
10.180332565307618
9.845277748107911
9.529299817085267
9.696871528625488
10.085748805999756
10.45912935256958
10.718271284103393
11.087455377578735
11.544008741378784
11.76999741077423
11.776472487449645
11.647691617012024
11.487095322608948
11.366351017951965
11.16911838054657
10.759178977012635
10.514391069412232
10.414747986793518
10.423194780349732
10.400898938179017
10.19406494140625
9.874421510696411
9.685964736938477
9.841445107460022
10.253672122955322
10.625731325149536
10.978028492927551
11.345435256958007
11.686289973258972
11.958810329437256
12.271514329910278
12.577371015548707
12.671157817840577
12.318075337409972
12.062223181724548
11.781991810798646
11.496988954544067
11.302840666770935
11.070342636108398
10.797143034934997
10.532461709976197
10.406414022445679
10.585094599723815
11.001459856033325
11.353935308456421
11.638261027336121
11.800227937698365
11.894417119026183
12.138778038024903
12.065581426620483
12.078350944519043
11.949751210212707
11.940560374259949
11.631363739967346
11.198232274055481
10.911317100524903
10.693683977127074
10.304125800132752
10.069761528968812
9.867496523857117
9.689503064155579
9.763298959732056
10.212010250091552
10.798219847679139
11.372605304718018
11.967593040466308
12.23738754272461
12.332872562408447
12.351380376815795
12.324172496795654
12.295331892967225
12.246092042922974
12.152888646125794
11.954300494194031
11.594665880203246
11.194239802360535
10.906232681274414
10.586442756652833
10.288575706481934
9.982779598236084
9.805988144874572
9.43234438419342
9.321607160568238
9.737018694877625
9.952867636680603
10.218304076194762
10.659512667655944
10.99617344379425
11.20426829814911
11.416807837486267
11.657885365486145
11.73187620639801
11.515793237686157
11.173965601921081
10.947730345726013
10.833800811767578
10.703914403915405
10.570707087516785
10.431080284118652
10.413474841117859
10.631677060127258
10.74219907283783
10.952672204971314
11.21622423171997
11.40204047679901
11.497762556076049
11.58869653224945
11.831153392791748
12.002410221099854
12.35285725593567
12.775622334480286
12.846232528686523
12.420710821151733
11.791459846496583
11.167783932685852
10.589518342018128
10.180810933113099
10.018390545845032
9.997761378288269
9.975049896240234
9.92361982345581
9.969094429016113
10.20785967350006
10.570132098197938
10.981850976943969
11.397000522613526
11.774614424705506
12.22930501461029
12.624926047325134
12.93239857196808
12.992107543945313
13.183986849784851
13.105717577934264
12.7404110622406
12.820630812644959
12.87896861076355
12.53987141609192
12.147105412483215
12.005431213378905
11.888116993904113
11.680243773460388
11.537481122016906
11.59625675201416
11.758137893676757
11.852567391395569
11.874678168296814
11.938908553123474
12.069380893707276
12.244255709648133
12.327669987678528
12.393414430618286
12.865426664352418
13.165690999031067
13.066565442085267
12.866590056419373
12.746295638084412
12.747588987350463
12.769801015853881
12.654969425201417
12.40442000389099
12.160930013656616
12.031018438339233
12.022349367141723
12.152740759849548
12.459184870719909
12.775502886772156
12.871621050834655
12.899486794471741
12.884665179252625
12.881447291374206
12.86478311061859
12.849756169319154
12.763359632492065
12.49722701072693
12.055955142974854
11.62581404209137
11.1603937292099
10.681761269569398
10.292485237121582
10.042204232215882
9.869513154029846
9.696174674034118
9.551806983947754
9.621694746017456
9.53288143157959
9.49753071308136
9.60840922832489
9.820161471366882
10.157003216743469
10.688635482788087
11.252481217384338
11.657419848442078
11.800790977478027
11.707629919052124
11.521674227714538
11.38271722793579
11.36014428138733
11.512193903923034
11.664853482246398
11.509739751815795
11.58120105266571
11.202177276611328
10.933294472694397
11.118033561706543
11.358892030715943
11.468594160079956
11.487401823997498
11.458608078956605
11.350133805274963
11.151157569885253
10.972080969810486
10.91771267414093
10.897219181060791
10.820645637512207
10.558544058799743
10.244822196960449
10.331238775253295
10.540417103767394
10.671210565567016
10.698783731460571
10.800815353393554
10.890952439308167
10.809630184173583
10.667810611724853
10.716100306510926
10.91969488620758
11.251585392951965
11.618124885559082
11.985550632476807
12.428158559799193
12.941395297050477
13.25610565662384
13.24276659488678
13.221369528770447
13.020180149078369
12.671014471054077
12.511381893157958
12.481579766273498
12.223203535079955
11.605937752723694
11.011273283958435
10.523152513504028
10.46452744960785
10.64365096092224
10.789609880447388
10.895685739517212
11.016704096794129
10.974774870872498
10.840363755226136
10.971288132667542
10.771865148544311
10.826528029441834
10.784645600318909
10.616010580062866
10.70596745967865
10.917578711509705
10.97061433315277
10.908086071014404
10.93807068824768
11.092834496498108
11.268356866836548
11.445432653427124
11.696079173088073
11.936148734092713
12.205595622062683
12.472438797950744
12.37469199180603
12.183648118972778
11.98624843120575
11.916371064186096
11.871064906120301
11.833634371757507
11.819744939804076
11.819567279815674
11.772595043182372
11.60845477104187
11.349772338867188
11.071001896858215
10.7814231300354
10.458040657043457
10.163814363479615
10.083908596038818
10.359353051185607
10.515718779563905
10.642280626296998
10.899874677658081
11.089830894470214
11.097625393867492
11.076991114616394
11.198018879890443
11.263121027946472
11.330081782341004
11.15666802406311
10.945962190628052
10.839661335945129
10.725210423469543
10.55878680229187
10.52037145137787
10.619962759017945
10.566686100959778
10.339400038719177
10.334181728363037
10.698078556060791
11.099915165901184
11.313272724151611
11.488471331596374
11.728980526924133
11.8775665473938
11.821451797485352
11.68841591835022
11.602885251045228
11.43813672542572
11.274277205467223
11.174166903495788
10.97374020576477
10.713930401802063
10.663972811698914
10.681701455116272
10.726412472724915
10.68531891822815
10.667212615013122
10.722175927162171
10.901235461235046
11.181774907112121
11.43077754497528
11.53799168586731
11.495685005187989
11.384959239959716
11.29865535259247
11.312819714546203
11.43555507183075
11.384509792327881
11.244154634475708
11.372497520446778
11.339553937911987
11.119721336364746
10.981102333068847
10.999577870368958
10.995636415481567
10.871871600151062
10.822402210235596
10.787046413421631
10.78403337955475
10.770698938369751
10.685793552398682
10.657580280303955
10.574358491897582
10.350693507194519
10.180157985687256
10.347726340293883
10.854368982315064
11.356811833381652
11.597795062065124
11.703815393447876
11.825408926010132
11.846145205497741
11.741898674964904
11.782202429771424
12.143082609176636
12.688178415298461
13.246824517250062
13.733330750465393
13.716142468452453
13.985990285873413
14.51709623336792
15.00005521774292
15.444926772117615
16.077038946151735
16.839610815048218
17.3362299823761
17.45207482814789
17.538391609191894
17.857472338676452
18.351457810401918
19.038819341659547
20.114188380241394
21.541300473213195
22.94273784160614
24.03740437030792
24.918332591056824
25.93789145946503
27.541707649230958
29.406517753601076
30.77187924385071
31.969788460731507
33.3905095243454
35.118250665664675
36.952844848632814
38.75506611347198
40.50612986087799
41.957245783805845
43.10166470050812
44.079873390197754
45.224862556457516
46.61413070678711
47.833723888397216
48.87371611595154
50.08905203342438
51.527973871231076
52.77688404083252
53.51875595092773
53.818450441360476
53.79407632827759
53.40599273681641
52.701777539253236
52.35286759853363
52.3120318365097
52.33001034259796
52.21817031860351
52.05495960235596
51.9559564781189
52.02043637275696
52.533515858650205
52.80003384590149
53.0778230714798
53.47415958404541
53.52314302921295
52.9399573469162
52.20655128002167
51.95803394794464
51.97947589874268
51.84031709671021
51.69821834564209
51.06238665103913
50.57320475101471
50.49431814670563
50.748878293037414
51.57837352752686
52.936283092498776
54.18736291885376
54.83595119953156
55.05788922786713
55.22698606491089
55.40997316360474
55.30295163154602
54.33259829998016
52.72439360618591
51.5456002664566
50.812790837287906
50.34152599811554
49.97241455554962
49.69549337863922
49.394792013168335
48.85810682296753
48.11336977005005
47.39434782028198
46.742417335510254
45.96585125923157
45.027057819366455
44.01099394798279
42.77577827453613
42.10668939590454
41.74313794612885
41.62271881580353
41.835857329368594
41.86368499279022
41.60273087024689
41.34941406726837
41.530504698753354
42.091532559394835
42.9351270198822
43.97749044895172
45.04484595298767
45.82150260448456
46.09541700363159
46.09422714710236
46.3330473613739
46.939453554153445
47.39518491268158
47.2732657623291
47.06693971157074
47.118589940071104
46.93251065254211
47.11323353767395
47.00645341873169
46.09986445903778
44.50172147274017
42.29421179294586
39.97378679275513
38.06508405208588
36.4805766248703
34.76216918468475
32.996932678222656
31.751821842193603
31.341692171096803
31.699562458992006
32.103253021240235
31.689010391235353
30.8190225315094
29.71465277194977
28.60687933921814
27.646428561210634
27.11171872138977
27.020242638587952
27.096255373954772
27.180463991165162
27.31789674758911
27.313850870132445
26.77293210029602
26.661329555511475
27.36065218925476
27.628696479797362
27.78269283771515
28.066107020378112
28.139564390182496
27.89824245929718
27.85294366836548
27.705616068840026
27.209201397895814
26.852307586669923
26.49275918006897
25.653505935668946
24.304438562393187
22.903569288253784
21.71080117702484
21.054310507774353
20.969023714065553
21.215106153488158
21.9137145280838
23.461943054199217
25.731947550773622
28.121788005828858
30.33627544879913
32.247925758361816
33.84537156581879
34.95143245697022
35.321909127235415
35.38574245452881
35.23860907077789
35.26082293987274
35.18616156101227
35.011042747497555
34.96711382865906
34.605263805389406
34.04353763103485
34.385342044830324
35.024342889785764
35.45139486312866
35.71334123134613
35.928825025558474
35.87117535114288
36.43107758998871
37.294448432922366
38.074424829483036
38.57376550674439
38.68028284072876
38.28286960601807
37.74788712024689
38.16070827960968
38.90642761707306
39.74142882347107
40.68859897136688
41.590725255012515
42.38154658794403
43.07498730659485
43.63737995147705
44.09874960899353
45.00128614425659
46.243858623504636
46.78990592002869
46.227641639709475
45.715908064842225
46.05451595306396
46.606788744926455
47.80721447467804
50.43190986633301
53.89369624614716
56.46972942352295
57.17099200248718
56.05857552051544
54.08671281814575
52.730779910087584
51.710025105476376
50.41648395061493
48.833846197128295
47.608257188797
47.22091896057129
47.2044837141037
47.257388257980345
47.240898747444156
47.65510525226593
48.24423626422882
48.19626481533051
47.81229906082153
47.65854369163513
47.19816313266754
47.32811764717102
48.11099952220917
48.788503527641296
49.0535147857666
49.3184450340271
48.78405396461487
47.79383684158325
46.448406434059144
45.26649941444397
44.56844103336334
44.6944955778122
45.44977798461914
46.21758481502533
46.62056672096252
46.39609348773956
45.807564096450804
45.005714764595034
43.78714787483215
43.34284118652344
43.45573333263397
43.12234963417053
42.54991005897522
41.83627161502838
41.25899775505066
41.34533279418945
41.62102826118469
41.699930820465084
42.04688334941864
41.989868021011354
40.230110244750975
36.95775769710541
33.79366858005524
31.998380851745605
31.804769315719604
31.904279761314392
31.04306968688965
29.83831430912018
29.01049659729004
28.711020164489746
28.633488941192628
28.64343105316162
28.898459796905517
29.365415558815002
29.570376214981078
29.238055300712585
28.628331460952758
28.315419049263
28.50845905303955
28.543586568832396
27.88548140525818
26.461379208564757
24.936442999839784
23.960764265060426
23.461426348686217
23.34664888858795
23.776121935844422
24.317600555419922
24.88195273399353
25.160551743507384
25.334328093528747
25.34835879802704
24.905003275871277
23.663303694725037
22.13305910587311
20.90761552333832
20.206410245895384
20.18923638343811
21.01663546085358
21.55251898765564
21.947226295471193
22.501223134994508
22.266900134086608
22.033821167945863
22.10387736797333
22.52735501766205
23.31910385608673
24.178069229125978
24.63083369731903
24.49636748790741
24.085415453910826
24.009699516296386
24.77944172382355
25.890425481796264
26.343745341300963
26.439413833618165
26.677139902114867
27.05561779022217
27.16163224220276
27.1745285987854
27.181284699440003
27.15263102054596
26.840175838470458
26.658077335357667
26.751440653800966
27.06842487335205
27.653455781936646
28.530752992630006
29.416966571807862
29.925218682289124
30.020899605751037
29.991088247299196
29.887454524040223
29.59822012901306
29.85227734565735
30.43841199398041
30.96558940887451
31.545439743995665
32.35426466464996
33.42304205417633
34.351974272727965
34.739640250205994
34.78731891155243
34.88604716777802
34.86388409137726
34.97123663425445
35.11593338489533
35.01574983119965
34.71606359004974
34.378297448158264
34.01462139606476
33.732386636734006
33.68682055473327
33.59118319034577
33.486399507522584
33.31826849937439
33.05570145130157
32.902767715454104
33.20107660770416
34.002329325675966
34.867180805206296
35.201989011764525
34.66913689136505
33.49353791236877
32.88973473072052
32.85953345298767
32.90289965629577
33.089912381172184
33.829928002357484
34.69811349391937
35.31643169403076
35.54784163951874
35.59270714759827
35.38098306179047
35.07054095268249
34.9418456697464
35.01578387260437
35.08801766872406
35.177762966156
35.550536451339724
36.207139143943785
36.78351753234863
37.14288117408753
37.44044027805328
37.146381697654725
36.531050629615784
35.92657201766968
35.253424949645996
34.52420967578888
33.85233745574951
33.240018587112424
32.62459499359131
32.289688544273375
32.477079696655274
33.184948801994324
34.028925967216495
34.797996311187745
35.40986152648926
35.76453118801117
35.660954599380496
34.99613732814789
35.02231019973755
35.94204548835754
37.23787965297699
38.81506245136261
40.16782793045044
40.610496373176574
40.07204907894135
39.043199019432066
37.94998700141907
36.802881617546085
35.90626685619354
36.22964421749115
37.605016450881955
38.97495348930359
40.010165300369266
40.78293286800385
41.44830295562744
42.08255054950714
42.768751645088194
43.5906616640091
44.39648477077484
44.8349863243103
44.86809584140778
45.00922967910767
44.858047094345096
44.43390781402588
44.01114552497864
43.769745001792906
43.680145707130436
43.42630668640137
43.04672307014465
43.315493092536926
43.71255661964417
44.34202577114105
45.162387685775755
45.86467031955719
46.492602400779724
47.20960593223572
47.98943240642548
48.73501779079437
49.46633754253387
49.84106805324554
49.46582922935486
49.06314718723297
48.58314007282257
48.14392578125
47.94309881210327
48.08705266952515
48.75963456630707
50.17548120975494
51.19405123710632
51.53519908428192
50.865146098136904
48.991451749801634
47.20511858463287
46.52793354511261
46.78343328952789
47.343355903625486
47.82050234794617
48.379094128608706
48.85603342533111
48.3222245836258
46.901866827011105
45.50142680168152
44.44687279224396
43.68626330375671
42.932608690261844
41.98776745319366
40.909415035247804
39.84743821620941
38.9664749622345
38.48931547164917
38.481547741889955
38.327085528373715
38.49752262592315
39.17592426300049
40.39899068832398
42.0605630159378
43.808523874282834
45.42501356601715
46.44379942893982
46.03019675254822
45.43552259922028
44.96410404205322
44.56576502799988
44.36071126461029
44.15405369758606
43.6774152469635
43.01102039337158
42.42314458847046
42.028028345108034
41.79643493652344
41.76828898906708
41.70700615882873
41.56596590995789
41.35604130744934
41.05153644561768
40.60549065113068
39.95346413135528
39.072232356071474
37.994799447059634
36.79483787059784
36.06824246883392
36.177746000289915
36.27576650619507
35.96310303211212
35.327520413398744
34.47064772605896
33.68010485172272
33.139659991264345
32.73711454391479
32.34543541431427
32.76297868728638
33.433036017417905
34.1706349658966
34.77692105770111
35.241181807518004
35.7600217628479
36.355114469528196
36.87669052600861
37.289568185806274
37.587088384628295
37.45109571933747
37.29704683303833
36.828731565475465
35.867333426475525
34.13892156124115
31.555069227218628
28.94073854446411
26.988840298652647
25.937462620735168
25.64964416027069
25.677213101387025
25.989126210212707
26.24024875640869
26.010295419692994
25.6482160282135
25.599889359474183
25.74091863632202
25.855625166893006
25.994693217277526
26.155527458190917
26.146510791778564
26.243576831817627
26.290001344680785
26.137393484115602
25.857191848754884
25.629592456817626
25.527924399375916
25.467772855758668
25.375732126235963
25.337428617477418
25.28316146850586
25.245699572563172
25.186059851646423
24.998071184158324
24.836499481201173
24.871294350624083
24.983037972450255
24.998554749488832
24.95362154006958
24.9995862531662
24.593179831504823
23.8286634016037
22.879638361930848
21.983650674819945
21.204629330635072
20.45582296848297
19.732101850509643
19.141748728752138
18.77528181552887
18.636324191093443
18.717763271331787
19.01949676513672
19.605371642112733
20.294315919876098
21.01729350566864
21.855068616867065
22.544602127075194
23.06723069190979
23.487562236785887
23.834099974632263
23.921260170936584
23.492900319099427
22.71646014690399
22.2705118560791
21.828257241249084
21.070838775634765
20.237962889671326
19.483405480384828
18.915942864418028
18.718965272903443
18.870277042388917
18.614063487052917
18.392619223594664
18.44494186401367
18.606349363327027
18.65891523361206
18.547050075531004
18.314480938911437
18.08470000267029
18.03277825832367
17.98893563747406
17.696776185035706
17.344353561401366
17.092513661384583
16.739367146492004
16.413597855567932
15.919005799293519
15.57538269996643
15.397708201408387
15.533476161956788
15.92662747859955
16.231294474601746
16.270424447059632
16.127060770988464
16.04912706375122
16.113653702735903
16.165591168403626
16.09581054210663
15.966508779525757
15.950206594467163
15.997369799613953
15.564644403457642
14.776244716644287
14.054034838676452
13.403715648651122
12.780519061088562
12.169462037086486
11.589857592582703
11.10017644882202
10.764515981674194
10.555139212608337
10.446075210571289
10.57502371788025
10.582537393569947
10.630056042671203
10.828765950202943
10.883540868759155
11.174669671058655
12.158760862350464
13.216930785179137
13.963846988677979
14.288156046867371
14.055449352264404
14.380600485801697
16.09454388141632
18.880435471534728
21.41770558357239
22.862241234779358
23.348493881225586
23.338364601135254
23.641092405319213
23.986630296707155
24.042762541770934
24.19407814502716
24.836708517074584
25.558144783973695
26.208298888206482
26.39622425556183
26.40338616371155
26.263323612213135
25.892235021591187
25.667685084342956
25.387353916168212
25.43576153278351
25.28152325630188
25.062808842658995
25.18196222782135
25.35212427139282
25.431099705696106
25.39062843799591
25.225345540046693
25.213676438331603
25.24335386753082
25.169286642074585
25.12606272697449
25.11857873916626
25.013323931694032
24.915250601768495
25.044274373054506
25.38866419315338
25.795362215042115
26.180826301574708
26.326985807418822
26.141194152832032
26.026045446395873
25.710453896522523
25.668887543678284
25.304817342758177
24.540476861000062
23.644476203918458
22.94266176223755
22.56886956691742
22.827350492477418
22.465074744224548
20.677151098251343
17.799863829612733
15.199351062774658
13.829746131896973
13.577993059158326
13.87236620426178
13.809372820854186
13.672615728378297
13.721812319755553
13.575731492042541
12.960124282836913
12.241763181686402
11.854833016395569
11.779076709747315
11.767647519111634
12.03284688949585
12.1811714553833
12.001408972740172
12.311290092468262
12.455464782714843
12.608387260437011
12.590546875
12.007880158424378
12.118347263336181
12.805454678535462
12.81402063369751
13.970195631980896
15.186279163360595
15.300863628387452
16.224589943885803
17.434000463485717
18.856355991363525
20.861466813087464
23.15388391971588
24.905265259742738
25.24254506111145
25.695855455398558
26.72664185523987
26.937672877311705
27.449745483398438
27.93432550430298
28.544119606018068
29.6643683719635
31.3641331243515
32.29789905071259
32.485504131317136
32.5037445640564
32.444439902305604
32.39431163311005
32.34668848991394
32.37803599834442
32.67459028720856
33.17381898880005
33.56284788131714
33.70256813049316
33.688073687553405
33.57762935638428
33.35952332496643
33.29681451797485
33.33808565616608
33.47891426086426
33.591656074523925
33.67058614730835
33.8992082118988
34.26165379524231
34.38903200149536
34.636715378761295
34.91112011432648
34.646996870040894
34.217573847770694
33.87084665298462
33.58805986404419
33.573852653503415
33.01610087871551
32.127231950759885
32.004590044021604
31.03899863243103
30.027228775024415
30.06206120014191
29.19835042476654
28.09306405067444
26.805818252563476
24.819635705947874
22.544765882492065
20.851042194366457
20.243646368980407
19.94817469596863
19.18870289802551
19.11814651966095
18.694012894630433
18.19057388782501
17.830672955513002
16.97245165348053
15.663327407836913
14.412350296974182
14.437464385032653
15.223294687271117
16.52476222038269
17.769396166801453
18.593234004974367
18.73389003753662
18.325150113105774
17.692065057754515
17.18208737850189
17.064929699897768
17.2692089509964
17.443455443382263
17.422181568145753
17.456641759872436
17.31051031589508
17.23898738861084
17.19329035758972
17.473606905937196
17.817146992683412
17.947807869911195
17.752474637031554
17.44598714351654
17.380907673835754
17.52255534172058
17.529721236228944
17.83155710697174
18.342968773841857
19.045182056427002
19.920221743583678
20.900308313369752
21.95176824092865
22.591367220878602
22.659109148979187
22.481033625602723
22.44696370601654
22.25158124923706
21.92418402671814
21.870550479888916
21.846109347343443
21.627269668579103
21.603181109428405
21.068451142311098
20.39503161430359
20.095424270629884
20.359740438461305
20.830056700706482
21.290184416770934
21.76990779399872
22.39244475364685
23.15225507259369
22.54691034793854
22.359664011001588
21.835671653747557
20.677904534339905
20.100353293418884
21.050907282829286
22.886217136383056
24.451324501037597
25.403526453971864
26.3896351146698
27.945092301368714
29.4967649269104
30.306085605621337
30.246072273254395
30.23246756076813
30.26086769580841
30.504825263023378
30.438607497215273
30.217372488975524
30.181000151634215
30.360990233421326
30.493488292694092
30.422690534591673
30.362133922576906
30.605178833007812
30.725629725456237
30.710112228393555
30.361985239982605
29.68035039424896
28.788775744438173
27.76755476474762
27.01102508544922
26.80061764717102
26.981797738075258
27.175655961036682
27.50556465148926
27.902811408042908
28.218517818450927
28.554126234054564
28.885456166267396
29.126841373443604
29.348065366744994
29.538006944656374
29.47902011871338
29.115639915466307
28.55728406906128
27.89068998813629
27.031795725822448
26.09847544670105
25.53250081062317
25.75357565879822
25.021908960342408
24.269139041900633
23.953716650009156
23.36900559425354
21.945041036605836
20.095583276748656
18.681063899993898
17.92953022956848
17.04213834285736
15.426459536552429
13.910344061851502
13.434234251976013
13.651772785186768
13.974122843742371
14.170494441986085
13.89163166999817
13.278905596733093
12.70938337802887
12.352754292488099
12.17830765247345
12.085183901786804
11.930482258796692
11.805939803123474
11.603451175689697
11.167502193450927
10.656444144248962
10.287743725776672
10.243740258216858
10.50188929080963
10.922385778427124
11.196770052909852
11.308301248550414
11.507943658828735
11.862659578323365
12.086230530738831
11.869396018981934
11.584291324615478
11.487280492782594
11.41035101890564
11.222123246192933
11.045840668678284
11.081814165115356
11.284526286125184
11.56295117855072
11.898064317703247
12.229269351959228
12.530758380889893
12.704811058044434
12.670268077850341
12.545152463912963
12.579928841590881
12.82758915424347
13.209314517974853
13.447569580078126
13.401035041809083
13.245330843925476
13.082803721427917
12.917651133537293
12.81385133266449
12.786763629913331
12.691438493728638
12.43389612674713
12.19996057510376
11.989627351760864
11.71402913570404
11.535296206474305
11.556871962547302
11.644244112968444
11.741320099830627
11.86966480731964
12.02755708694458
12.221142330169677
12.334860935211182
12.485920429229736
12.74449200630188
12.963273506164551
13.065490436553954
12.922943625450134
12.610696587562561
12.408012375831603
12.39320571899414
12.268683228492737
11.992670035362243
11.527020053863525
10.971727805137634
10.869580631256104
10.789747824668884
10.510731649398803
10.413521223068237
10.655835890769959
10.857800054550172
10.789735112190247
10.681288747787475
10.545168285369874
10.28958824634552
9.99090588092804
9.776501994132996
9.688441123962402
9.710734572410583
9.779638748168946
9.7685422372818
9.524674816131592
9.13584671974182
8.840582480430603
8.818735299110413
8.945506076812745
9.038617024421692
8.99691439151764
8.846689639091492
8.869765982627868
9.254167370796203
9.699209570884705
9.770731921195983
9.690666060447693
9.86895501613617
10.190152454376221
10.335436410903931
10.263701376914979
10.06428731918335
9.788927760124206
9.488163332939148
9.335316896438599
9.363025455474853
9.325905151367188
9.109261856079101
8.90233687877655
8.851143641471863
8.857188315391541
8.769742341041566
8.57933789730072
8.464094009399414
8.630827007293702
8.84437705039978
9.021355276107789
9.267373852729797
9.368351230621338
9.425226287841797
9.379890484809875
9.237570195198058
8.937225422859193
8.705885071754455
8.678299145698547
8.58607241153717
8.502636036872865
8.627508845329285
8.915308246612549
9.298321175575257
9.858249158859254
10.647476596832275
11.19889319896698
11.338314161300659
12.742819347381591
15.199269728660584
18.361854600906373
21.111158275604247
22.40644525051117
22.639910688400267
22.859988622665405
23.050865864753725
22.731949729919435
22.729818210601806
22.951416664123535
23.363538823127747
23.729840388298033
23.809394507408143
23.642134051322937
23.576955251693725
23.896365218162536
24.341145591735838
24.76449836730957
25.024896960258484
24.915972418785095
24.918647680282593
25.01524374961853
25.240752453804017
25.42862781047821
25.426041460037233
25.398319454193114
25.445594391822816
25.486456513404846
25.605623497962952
25.590616850852967
25.318064074516297
25.037685418128966
24.890097231864928
24.88760510444641
24.91570625305176
25.05380341529846
25.258134231567382
25.546696152687073
25.7574240064621
25.798536739349366
25.8905269241333
25.97529552459717
25.90896200656891
25.65961491584778
25.20497543334961
24.551994228363036
23.788142738342284
23.393667101860046
23.445641932487487
22.189456782341004
19.829019021987914
16.83196946620941
14.244278903007507
12.978930063247681
12.649373507499694
12.300345325469971
11.912615313529969
11.784791836738586
11.162291321754456
10.571335878372192
10.24407115459442
10.013556942939758
9.700714230537415
9.590434937477111
9.646308846473694
9.471872515678406
9.219989323616028
9.38353141784668
9.595970978736878
9.626792383193969
9.765117344856263
10.041311359405517
10.48711124897003
11.545037279129028
13.795720524787903
16.564164090156556
18.092110443115235
18.301959190368652
19.004931845664977
19.283419160842897
19.33574068546295
19.382552404403686
19.38669086933136
19.19985671043396
19.064321422576903
18.89721742153168
18.665444369316102
18.34754678726196
18.06959050655365
17.88526403427124
17.724184026718138
17.604455990791323
17.479128785133362
17.439450879096984
17.531098084449766
17.530265274047853
17.379593424797058
17.275560417175292
17.2558309173584
17.334427189826965
17.42588381767273
17.442746262550354
17.42859010219574
17.47529167175293
17.645136499404906
17.996776065826417
18.426095147132873
18.520782165527343
18.9244642829895
19.837725286483764
21.125940642356873
22.48660146713257
23.4215398645401
23.44072205066681
23.971452951431274
25.204712839126586
27.176454639434816
29.336358499526977
31.565301485061646
33.33541741847992
33.4106756734848
33.29320177555084
32.95709508419037
31.826100068092344
29.891292328834535
27.23410533428192
25.84135259628296
25.684749608039855
24.68181128978729
24.125702533721924
24.26668514728546
24.489658036231994
24.3956991815567
24.559742307662965
24.645102472305297
25.1085621547699
25.293605403900145
25.638142704963684
26.26878309249878
26.48534143447876
26.771842436790465
27.08201099872589
27.051752815246584
27.229958138465882
27.43380132675171
27.75836741447449
28.123208832740783
28.318718552589417
28.390273118019103
28.380008811950685
28.390080065727233
28.493276405334473
28.55679696559906
28.377932047843935
28.042838821411134
27.774526128768922
27.56788103103638
27.630250577926635
27.18106734275818
26.106864085197447
24.675317516326903
23.372366523742677
22.747511405944824
23.005821256637574
22.713153014183046
21.791449728012086
20.058814897537232
17.633547730445862
15.169018368721009
13.547652626037598
13.19999333381653
12.804225721359252
12.507609176635743
12.50853967666626
12.209860067367554
12.176964440345763
12.27077455997467
12.400684900283814
12.398295731544495
12.736735095977783
12.768616938591004
12.570978636741637
12.906498861312866
13.100966773033143
13.321422772407532
13.255336842536927
13.466986036300659
13.50821310043335
13.288271312713624
13.459987773895264
13.452789149284364
13.271653108596801
13.459223637580871
13.523681120872498
13.477096705436706
13.07097791671753
12.92253113746643
12.746621356010436
12.480136094093323
12.242250895500183
12.049693908691406
11.861250228881836
11.751937847137452
11.912074279785156
12.2574347782135
12.493685040473938
12.652182121276855
12.77153507709503
12.747523436546325
13.0945685338974
13.70195852279663
14.363145170211792
14.888718390464783
14.927323274612426
14.975872783660888
15.78862202167511
17.267726292610167
19.028946838378907
20.479908990859986
21.34197196483612
21.7797922372818
21.9153381729126
21.90175148487091
21.912161827087402
21.881388187408447
21.825668339729308
21.674945006370546
21.526111726760863
21.54816287994385
21.201912178993226
20.936743516921997
20.893341765403747
20.55215169906616
20.3389391374588
20.36119843006134
20.35804187297821
20.28360076904297
20.233332076072692
20.130179052352904
19.85383453845978
19.713494362831117
19.920421090126037
20.121124086380004
20.167213015556335
20.360655903816223
20.955373783111572
21.15776315689087
21.28995897769928
21.6322926568985
22.070866222381593
22.30716417312622
22.311438226699828
22.358239126205444
22.452534284591675
22.259216842651366
22.003333430290223
22.015572967529298
22.009614415168762
22.045617566108703
21.99105359554291
21.67082342147827
21.23993546962738
21.076677632331847
21.5373140001297
21.801936769485472
20.954822216033936
19.311723828315735
17.499948325157167
16.126872639656067
15.385491228103637
15.062358756065368
14.976257586479187
14.903854737281799
14.828402233123779
14.931202578544617
15.095650062561035
15.147728762626649
15.095015916824341
15.074970812797547
15.144280786514281
15.227001080513
15.23425609588623
15.513825178146362
15.791471481323242
15.815926504135131
15.682736349105834
15.604593105316162
15.68173098564148
15.848802919387817
16.01091782093048
15.947296042442321
16.15711663246155
16.575170159339905
16.717498931884766
16.356835374832155
15.81020227432251
15.963485865592956
17.21266492843628
18.83324330806732
19.90057002544403
20.314889669418335
20.42325626850128
20.402959303855894
20.330982704162597
20.341670551300048
20.166796464920044
19.759116578102113
19.708447060585023
19.991778235435486
19.888151931762696
19.595638036727905
19.22145155906677
18.57087834358215
17.94895709514618
17.610938124656677
17.501255993843078
17.469474110603333
17.49873978614807
17.73670066356659
18.23443250656128
18.766646313667298
19.069510083198548
19.113339729309082
19.235141925811767
19.60582278728485
20.51575771331787
22.194159545898437
24.421145839691164
26.448514966964723
27.632172560691835
27.96590190410614
28.015974235534667
27.904802894592287
27.525824151039124
27.374131031036377
27.738023834228514
28.12313138961792
28.01427885055542
27.612703795433045
27.340359225273133
27.383473739624023
27.216154317855835
26.99380940914154
27.054572529792786
27.316129179000853
27.278205227851867
27.118152208328247
26.389230155944823
25.523802881240844
25.65016848564148
27.076801295280458
28.4922833442688
28.28006899356842
29.59543697357178
32.063461880683896
35.38695242881775
38.802135915756224
40.93571812152862
41.06310426712036
41.942255759239195
43.436596541404725
44.665413098335264
45.378566517829896
45.436328125
46.64275436878204
48.672410159111024
50.58618390083313
51.919207768440245
52.66581990242005
52.72805914402008
52.30100769996643
51.989979767799376
52.56112701892853
53.64528287887573
54.36814568519592
53.57929001331329
52.13828895568847
49.906919817924496
48.6194047164917
48.4266880607605
48.5875399017334
48.49323421001434
48.50955790519714
48.5123085975647
48.26801733016968
47.6921405506134
47.27738702297211
47.367500438690186
47.68411392211914
47.90238129138947
47.905775847434995
47.5739852809906
46.991506934165955
46.478492093086246
46.078490562438965
46.25089186191559
46.047012634277344
45.3775084400177
44.29395361423492
42.67112143039704
40.635941271781924
39.20227005004883
39.515872678756715
38.301386361122134
36.148141107559205
33.44126354694367
30.691208152770997
28.997150959968568
29.104389815330507
28.395841150283815
26.94435293197632
25.748942928314207
25.223217368125916
25.111359190940856
23.68436112880707
21.619257197380065
19.753602743148804
18.179260969161987
16.821782898902892
15.97265402317047
15.794983115196228
16.035717635154725
15.866116142272949
15.09919798374176
14.4371293592453
14.782047786712646
15.100331101417542
15.686163840293885
15.346024990081787
14.540958461761475
14.302043285369873
14.785861177444458
15.010675158500671
15.144082493782044
15.215258784294129
15.174899301528932
15.04503535270691
14.989293665885926
15.030810828208923
15.129803833961487
15.324449353218078
15.663194193840027
15.980909976959229
16.011824984550476
16.67714848995209
17.53098279476166
18.244632868766786
18.80695583820343
19.514605031013488
20.309872417449952
20.565033388137817
20.68680750846863
20.73497197151184
20.420078325271607
20.07421543121338
19.834735865592958
19.315627765655517
19.058020730018615
19.430827050209047
20.10938959121704
20.717258076667786
20.840729084014892
20.693648872375487
20.678031363487243
20.74626772403717
20.992185635566713
21.723928418159485
23.211738018989564
25.268812489509582
27.20962103843689
28.15408016204834
28.23576448917389
29.79618908405304
32.36437653064728
34.934203352928165
36.925579562187195
38.660483293533325
40.37727844238281
41.52174699306488
41.758280329704284
41.63836197853088
41.63208340167999
41.55741648674011
41.442399573326114
41.67892595767975
41.98555151939392
42.18446303844452
42.06746098041535
41.756767039299014
41.5237743473053
41.3826091337204
41.26659143924713
41.334631924629214
41.69323111057282
41.63166488647461
41.32948435306549
41.019957718849184
40.76465491294861
40.372325592041015
39.834745631217956
39.53778662204743
39.471334857940676
39.45787631034851
39.74540828227997
40.131873126029966
40.53405880451202
41.2735786819458
41.766137495040894
41.66232458114624
41.321822538375855
41.096452536582945
41.0506468296051
41.05243721485138
41.079450221061705
41.08584089756012
40.904233751297
40.177974920272824
38.55896429538727
36.76421757698059
35.14977068901062
34.39702787399292
34.385192766189576
32.794098582267765
29.957433414459228
26.84253087043762
24.291990389823912
22.307585649490356
20.79728931903839
20.227305760383604
20.58019506931305
20.889056515693664
20.65093713760376
20.432715001106263
20.37477852344513
20.2937833404541
20.547077894210815
21.007241826057435
21.549855313301087
21.965468587875367
21.897629733085633
22.270363411903382
22.8616562461853
23.100595812797547
22.644670095443725
22.288357968330384
21.71478807449341
21.868496270179747
22.372882986068724
22.637827014923097
22.642437477111816
22.751748065948487
22.56105089187622
22.256651091575623
22.131879267692565
22.083065872192382
21.934680891036987
21.502849535942076
20.591786279678345
20.344402260780335
20.58051829814911
21.035575942993162
21.507321214675905
21.748082575798033
21.89181442260742
22.318229727745056
22.675990538597105
22.54919140815735
22.803671617507934
22.808195972442626
22.622696919441225
22.746364450454713
22.80034197330475
23.014719800949095
23.848679847717285
24.92015884876251
25.140042691230775
25.341878252029417
25.535720691680908
25.22669105052948
24.541105399131776
24.223490171432495
24.471441988945006
24.955187644958496
25.502577228546144
25.88187970161438
26.077214879989626
26.126903853416444
25.97445592880249
25.76067692756653
25.862400627136232
25.333474822044373
24.812181754112245
24.818900680541994
25.550038261413576
26.280146045684816
27.434692664146425
28.121499056816102
29.014289050102235
31.013976368904114
33.69127910137176
35.58692014694214
35.71807341575622
37.542619557380675
41.13576226711273
46.11492095470428
51.90402966499329
57.28938885688782
60.61777087211609
60.18885624408722
60.95081643104553
61.943594541549686
62.73954568862915
63.30786009788513
63.21196455478668
63.038094058036805
63.17289758682251
63.832640972137455
64.26859250068665
64.39040342330932
64.26977812767029
64.25490155696869
64.4139188671112
64.25602177619935
63.35576506137848
62.26642004966736
62.01568388938904
61.32943989276886
60.686573185920714
60.87339706420899
61.51365834712982
61.58726487159729
61.260512857437135
61.16925220489502
61.346577744483945
61.39170251369476
61.025246448516846
60.51087618350983
60.09042805194855
59.79810970783234
59.90958633899689
60.151441764831546
59.9972234582901
59.47543018817902
58.831024675369264
58.17341591358185
57.317469120025635
56.29874739170074
55.01853345870972
53.18617548942566
50.95283866405487
49.212686800956725
49.046776151657106
47.163308696746824
43.43342205524445
38.08651872634888
31.65756803512573
25.938646640777588
22.675707092285155
22.61309874534607
21.1089879989624
19.242287764549257
18.00198065280914
17.682075219154356
18.266391282081603
18.513050060272217
17.88381434440613
17.323471240997314
17.306665172576903
17.90368848800659
19.224811801910402
20.41262990474701
21.192511377334593
21.200547909736635
21.757661838531494
23.2550488615036
24.601669034957887
25.265412492752077
25.099530611038208
25.215871615409853
25.779781775474547
26.77226239681244
27.617622356414795
27.779801425933837
27.212802209854125
26.549102969169617
26.529422879219055
26.952942447662352
27.48634370326996
28.243886585235597
28.781483044624327
28.908045744895936
28.800293884277345
29.08240046977997
29.50680054664612
29.639082012176512
29.34015145778656
28.858366618156435
28.211369819641114
27.436055846214295
26.748538279533385
26.53752716064453
26.679909706115723
26.79895758152008
26.71412615299225
26.74639928817749
26.828011250495912
26.766327137947084
26.76307631492615
26.787500829696654
26.84545796394348
26.97108962535858
26.867100744247438
26.422443137168884
25.71554018974304
24.999518728256227
24.799111499786378
24.579719576835632
23.934597883224487
23.01436589241028
21.98687566280365
20.892752227783202
19.892226934432983
19.44408667564392
19.0055784368515
17.824743971824645
16.452840971946717
16.04010506629944
16.220535945892333
15.91496376991272
15.539321446418763
15.155520024299621
14.472511677742004
13.949394989013673
14.018428206443787
14.172844309806823
13.916733999252319
13.33384443283081
12.641333532333373
11.93352714061737
11.277518401145935
10.98068395614624
11.042097129821776
10.857765974998474
10.370711321830749
10.230065989494324
10.227997107505798
10.63224006175995
11.54679295539856
12.320397019386292
12.788424754142762
13.195461411476135
13.702648544311524
14.126640920639039
14.277833170890808
14.367243428230285
14.990406212806702
15.868454351425171
16.825627822875976
17.832814106941225
18.503271827697755
18.507235889434813
18.746644883155824
18.951812596321105
18.89678312301636
19.0099232006073
19.12702569961548
19.129597148895265
19.07886824131012
19.148308954238892
18.968706212043763
18.65504894256592
18.61989320755005
18.85058538913727
18.673300771713258
18.697176494598388
18.836118636131285
18.59880683898926
18.38574535369873
18.27371054649353
18.038126993179322
18.02314266681671
18.78800799369812
19.809703245162964
20.55505069255829
21.258274292945863
22.056258063316346
22.826342191696167
23.375130100250246
23.44395285129547
23.43605372428894
23.64591085910797
24.004437251091005
24.704717297554016
25.92740128040314
26.8112863445282
27.416397156715394
27.18533511161804
26.614598546028137
26.595298681259155
27.15812325000763
27.88847016811371
28.688834142684936
29.894028692245485
31.437958979606627
32.387381362915036
31.868562035560608
31.58415068626404
31.28420591831207
30.327545280456544
29.607350964546203
29.563364906311037
29.20579864025116
28.988378410339354
29.482191534042357
30.410684032440187
31.65654053211212
33.01845996379852
34.411219544410706
35.684179067611694
37.308403444290164
39.3957085943222
41.3461420917511
42.57134702205658
42.87844603538513
42.67064085006714
42.58074693679809
42.65034720897675
42.44547298908233
42.12271975517273
41.908090410232546
41.72808428764343
41.520478730201724
41.47521028518677
41.64817882061005
41.65780101776123
41.38099765777588
41.46114224433899
42.356474208831784
43.75321311950684
45.178570652008055
46.770102801322935
48.357358231544495
49.33028490543366
49.695592384338376
49.98838814735413
50.402469844818114
50.81616849422455
50.666533236503604
50.0166107082367
49.313879981040955
48.99234942436218
49.97853068828583
53.01972651958466
56.840416655540466
58.97371878623962
58.95232834339142
59.63052491188049
60.386744270324705
62.03280277729034
64.55698476791382
67.90914841651916
71.74580842018128
75.46205358505249
78.2236054468155
79.27185294628143
78.83318497657775
78.08710893154144
77.96244134902955
78.67887169361114
80.25421323299408
82.3989693403244
84.36954637050628
85.7103256034851
86.16514302253724
87.17816686630249
89.54599989891052
91.86266288280487
93.47310436725617
94.29143118858337
94.55997578144074
94.4670928144455
93.947642827034
93.07751843452453
92.60448080539703
93.26071659088134
94.5015715456009
94.96416876792908
94.28705988407135
93.13040710449219
91.60349575519562
89.96128645420075
87.96669541358948
86.54217377185822
86.08309458255768
86.35329738140106
87.40348255634308
89.14475934505462
90.94035588264465
92.18360843658448
92.85732935905456
92.75884867668152
90.41255724906921
87.87947232246398
86.97904275417328
89.46015290260316
95.04001805305481
99.09876531124115
102.5518786096573
104.47387625217438
103.87054573535919
101.39002908706665
98.36177975177765
95.42536117076874
92.7780268907547
90.85843336105347
89.9425398683548
89.22703896522522
88.14070769309997
86.41926493167877
83.69619289875031
79.8649096441269
75.79375937461853
73.38567745685577
73.41456442832947
73.17711973667144
71.2509544467926
69.1115531539917
68.0130145740509
68.1028789138794
68.5484956407547
