0.05671891682432033
0.056481414147419855
0.05544007689110003
0.053291262806160374
0.05100915092858486
0.049764695037156345
0.04980944396578707
0.049206611949484794
0.048050447615096345
0.04673229859326966
0.04546830598381348
0.04437179233180359
0.04377413080888801
0.043525368983391675
0.04265464812400751
0.04200090830214322
0.04225595314288512
0.04236180287436582
0.041524169016629454
0.040447533673141155
0.03976846869685687
0.03969328515697271
0.039892414037603886
0.03981874185614288
0.0396816427342128
0.04008006151183508
0.040174634818686175
0.039614537176676096
0.038988596556009725
0.038796767750754954
0.03886248666094616
0.03899052023072727
0.03875894312513992
0.03806418412714265
0.0372394253697712
0.03657944643869996
0.03650573565158993
0.03670300918165594
0.0357782060734462
0.03446142277563922
0.03407138292910531
0.034533920082030815
0.034639350612415
0.03459913645870984
0.03442057078005746
0.03416304147802293
0.034134746675845234
0.033742957189679144
0.03297435533837415
0.03171654233708978
0.030296655922429635
0.02980683285742998
0.029991272698389367
0.029812847796129062
0.0294563353410922
0.028916639854433015
0.028517212646547704
0.02879976301221177
0.028804502608254554
0.02881381951854564
0.028792158763390033
0.028924639383330942
0.02899691795464605
0.028946954996790737
0.02900978143676184
0.0289284222794231
0.02898701963131316
0.02875907381530851
0.028528832932934164
0.02840266376850195
0.028197598725091665
0.027808499756501986
0.02747470808797516
0.02745587967452593
0.02767542209592648
0.027918291134992616
0.02810758667299524
0.028225239681778477
0.0282273393496871
0.028282592131290585
0.02827090592123568
0.028280722574563696
0.028555191775085406
0.028953302942682058
0.028811456076800822
0.029143880661576985
0.029524481579428538
0.029552220015320926
0.029486406177747993
0.029629208793630825
0.029479084264021366
0.028926220445428044
0.028452655954752118
0.028062196978135036
0.028283901633694767
0.028209976169746367
0.027987117822049185
0.027934761503711342
0.02807311121490784
0.028524331687949597
0.029151168620446696
0.02969908343628049
0.03019850765238516
0.03076059852843173
0.031081138495355844
0.03129863943089731
0.03233714749454521
0.0337650172971189
0.03503207279369235
0.035851713460870085
0.03633119180100039
0.03649017289979383
0.03656285390257835
0.03702040781034157
0.03758451501722448
0.038049890779657286
0.03818749604746699
0.03802732311189175
0.03789054960478097
0.03804318734211847
0.03837572837015614
0.03845817460911349
0.038146254449384284
0.03791288003092632
0.03798973580240272
0.03763804110931233
0.03708127191173844
0.03651873511262238
0.0358986594947055
0.03514513231231831
0.03443216950749047
0.034063397276913744
0.03413412899128161
0.03414518987061456
0.034066917343297975
0.03399200931191444
0.03381223371368833
0.033448509130394086
0.03323605024139397
0.0332076642033644
0.03298493430949748
0.03260486034327187
0.0323844325914979
0.03241522681084461
0.03240570103283971
0.03258707215776667
0.03291762811946683
0.033237986091990024
0.033528297917218876
0.034115685537690295
0.035183519687270744
0.03577980148140341
0.03568206531344913
0.03611365993274376
0.03696125431684777
0.0382195600180421
0.03978220412274822
0.04104014785727486
0.041743433979572725
0.04184928012429737
0.04261215043952689
0.04336384985828772
0.04364782696822658
0.043561132930917665
0.04347889101249166
0.043599491206696254
0.043991735752206294
0.04438120873295702
0.04439772749436088
0.04478767708525993
0.04533686374197714
0.045770129829179496
0.04599784164689481
0.045999884851044046
0.04577422893489711
0.045402920361375436
0.044895549311768264
0.04473939112736844
0.04504952295566909
0.045239811686333266
0.04487945449887775
0.04442511418601498
0.04399878412950784
0.043946383101865646
0.04444894409738481
0.04471043930738233
0.044938035680679604
0.0452650675107725
0.04553297183592804
0.04540392210823484
0.045171303530223667
0.045277687632478775
0.045637888661585746
0.04631836180924438
0.046533731651725245
0.0463880359462928
0.04658046082244255
0.046744500768836586
0.04667090330505744
0.046197045553708446
0.045498417349299415
0.044855303595541046
0.04430086022941396
0.043751776836579666
0.04340634323656559
0.043126352638937535
0.0420587035745848
0.04060188594390638
0.03947179567418061
0.03890108190360479
0.03843379800440744
0.03833663497702219
0.03855612118844874
0.03813799908501096
0.03733887025504373
0.03660945581737906
0.03619399073417298
0.03602933475514874
0.035831387953367086
0.03576098607853055
0.03565222530858591
0.03553510360652581
0.03552474232739769
0.035571208901237696
0.035482899305643516
0.03530144717311487
0.03518613450694829
0.035200714878737924
0.035228061927482485
0.03518197817844339
0.035174556935671716
0.03531058016000316
0.035525653354125095
0.035714857606217267
0.03581384284072556
0.035803821998415516
0.03578867910197005
0.03590749183436856
0.03611789773218334
0.036277841801056636
0.03643192069139332
0.03679163759108633
0.03718177899019793
0.03770482077496126
0.03841311212861911
0.0388136281084735
0.038753599659539756
0.03847399047575891
0.03822961422498338
0.03774829459376633
0.03701650249538943
0.03642675682669506
0.03633857928682119
0.036190144463907926
0.035940770013257864
0.03477905184612609
0.03395664081326686
0.03360498551977798
0.033600587691180406
0.034130991474958135
0.033917083482956516
0.0335941320785787
0.03334781068377197
0.033634140989743176
0.03416366602177732
0.03453024946385994
0.03464100426179357
0.03474841028219089
0.03509369353065267
0.03488927027559839
0.03453076334670186
0.03429939100285992
0.03398905259557068
0.033557211857987566
0.03332977472804487
0.033448271901579577
0.033841725639067594
0.033954964018194006
0.03370718667167239
0.033439928757725286
0.033484232915798204
0.03340804983745329
0.03319962498382665
0.032838826585793866
0.032334361837711184
0.03178001985768788
0.031248554080957548
0.03079734109574929
0.030473327218787746
0.03038260851986706
0.030530447569908574
0.030646057531703262
0.030419462851714343
0.03009898037533276
0.030114222349366174
0.03055206870078109
0.03074377997312695
0.030768512280192225
0.030715609235921874
0.030558748923940584
0.030244544398738072
0.029999239190947265
0.02994016058277339
0.029914721815148367
0.029989922461099924
0.030139724445762114
0.030196386935422197
0.03015143152908422
0.030035594587679952
0.029904234549030663
0.029919045580318198
0.02978588010300882
0.029565093814162537
0.029778918146621435
0.03027668143156916
0.03058249960653484
0.03062749694683589
0.030704140623565763
0.031025896957144142
0.0311081533273682
0.030979730701074005
0.030884689827216788
0.03089944406179711
0.03094611479784362
0.030961588931968435
0.03091437812894583
0.030998019439866766
0.031001263298094273
0.03090864045545459
0.030897355660563335
0.030889335217652844
0.030701304535614326
0.03041255472460762
0.030156711052404715
0.03006321310880594
0.03009744846262038
0.030148883007932455
0.030232052509672938
0.03042793640983291
0.030629163066623732
0.030539812182541936
0.030121586059685797
0.02969826174317859
0.02925541298580356
0.028841472138883547
0.028174286602297798
0.028408354999264702
0.028852312085218726
0.02890418582595885
0.02890948668005876
0.02910044462303631
0.029342858503805472
0.029425207631429657
0.029383145630126818
0.029334030573954804
0.029879297292791308
0.029709286285797134
0.02901585791260004
0.028473588060587644
0.02780404201708734
0.026780351776396857
0.025933473168406634
0.025787906942423434
0.025645836900221184
0.025270181393716486
0.024962692589033397
0.024884130466962234
0.024897875419119374
0.024759636875241995
0.024638219288317487
0.024541503621730954
0.024359033509390428
0.024433037063572555
0.024696003833087163
0.024575114375911655
0.024300840732175855
0.02423673036042601
0.02426589555456303
0.024280740708345547
0.024333787658251824
0.024322150466032325
0.024262797184055673
0.024315424237865955
0.02447392389527522
0.02454842719831504
0.02458734982996248
0.024703259968664498
0.02480123065644875
0.0248630487464834
0.024823640475515277
0.024719542036764325
0.0246070392918773
0.024421214764006435
0.024086178536526857
0.023692060095490887
0.023423454243456945
0.023343768233899026
0.02335791365825571
0.023313500019721687
0.023148172348737717
0.023094798846868797
0.023058079821057616
0.022912004147656262
0.02278736438951455
0.02266836419235915
0.022493603482143954
0.022337901436258106
0.022350057194707916
0.022351610007463024
0.022286575589096174
0.022404983186861502
0.022783906949916853
0.023172233443474397
0.02326921677449718
0.023019352236296982
0.022563150917412712
0.022125749062979594
0.02180837294552475
0.02144661465776153
0.021255383731331675
0.02127366429194808
0.021505933598382397
0.022007820882136
0.022600037150550634
0.023022950859740376
0.023269034567056222
0.023355107933748512
0.023494518308434634
0.023633456622483208
0.02372696369769983
0.02389041574439034
0.023971947433892637
0.02430691236979328
0.025137945798924193
0.02604182679555379
0.026650334839941933
0.026797060481039806
0.026490313884569332
0.026283887695753946
0.025866492667701094
0.02575889431987889
0.02596771957469173
0.02610756455687806
0.02619566106935963
0.026111319347983226
0.026171312578953804
0.02591714998241514
0.025862392634153367
0.026200071786297484
0.026638229201780633
0.026871276372112333
0.027037753597833215
0.027541103383991867
0.02781756629003212
0.027745763125130905
0.027510265222517774
0.027251391930039972
0.02705356542253867
0.026991513987304643
0.027059913851553576
0.02713964675203897
0.027138785189017654
0.027103463169187308
0.027033571182982996
0.026864676899276674
0.026556474239332602
0.026134985111420973
0.025667081619612873
0.02544611704768613
0.02535606608260423
0.02528743918403052
0.02532062179176137
0.025254274477483706
0.025111780940787868
0.025144510930404068
0.024962240263121202
0.024610462582204493
0.024287536090705542
0.024090558872558177
0.024056049619102852
0.02403874449664727
0.024195183141855522
0.024348718664841725
0.024446021766634657
0.024635061545995995
0.024837222044588998
0.02498662656871602
0.025245152317220344
0.02561538829584606
0.02593355909921229
0.02610788794234395
0.026262234105961398
0.02649350486579351
0.026673424209002407
0.02664347029523924
0.02642430147738196
0.026149521572515367
0.025931555023416878
0.02582719775964506
0.025836163442581894
0.02580662783468142
0.025745944965165107
0.025740783059736715
0.025782786757918074
0.02574602728942409
0.025858343825675548
0.026024530776776373
0.026083378643961624
0.026122302449075506
0.026113673995714636
0.02589696664828807
0.025455950939795004
0.02493543058866635
0.024484249720117077
0.02417469141888432
0.02406154021853581
0.024043492887867616
0.023964793767081573
0.024000098439864816
0.023992201773216947
0.02397532725473866
0.023868672949029134
0.023504983478924258
0.02296724232728593
0.022533213547430934
0.022326006767107175
0.02233384890947491
0.022515753904590385
0.022664784828666597
0.02254680131096393
0.022390936786541714
0.02240611254936084
0.02206589468754828
0.021127641724888235
0.020439128192374482
0.020478232802124696
0.020403859264915808
0.021353782978840174
0.02296870411024429
0.024710963653633372
0.025760786281898616
0.026085735026281327
0.026035623116185888
0.02577128560980782
0.02606884727953002
0.027426888007903473
0.029098992263898255
0.03037580562289804
0.031018674372462557
0.03126315899891779
0.031367598940851164
0.03119061602279544
0.030656787969637663
0.030386643005767836
0.02991701918421313
0.030089481802424416
0.03170369103667326
0.03421918214764446
0.036561360519845036
0.038150297476677225
0.03898698270437308
0.039125076620839534
0.039524421361275014
0.040269190064864235
0.041314028518972916
0.042522405652562156
0.043502857993589716
0.04402567532728426
0.04418673780979589
0.04424598957877606
0.04431204487453215
0.04441599980345927
0.044573550189379606
0.0447351872024592
0.04490169296972454
0.0451156700681895
0.045054217107826845
0.04519017026526853
0.045351741366321224
0.045390938204945996
0.04559212809195742
0.045456789729651066
0.04565018011955544
0.04601084579131566
0.04629175825393759
0.046269811866804955
0.046004981079604476
0.04588521927129477
0.0457048300432507
0.04537367514334619
0.0452365172887221
0.045193937015719714
0.04530434244312346
0.04576777853886597
0.04651256510405801
0.04720038182800636
0.04761057256022468
0.04780095914728008
0.047881870582932605
0.047829024442471564
0.048040098031051456
0.048455611311364916
0.048982872476335614
0.04969581875251606
0.050757871769601476
0.05187166733667255
0.05297719680937007
0.05406371820834465
0.0550687299692072
0.05599977244855836
0.05692435049684718
0.05781546236015856
0.05845312174758874
0.05862766560050659
0.05873935772338882
0.05878648831159808
0.058804998868145046
0.05890566224348731
0.059195450792321934
0.05945560168707743
0.05946222774335183
0.0594042955536861
0.059262855598935855
0.05917507491656579
0.05922321697231382
0.05929602720192634
0.05924282859428786
0.05911503967829049
0.059135737536707894
0.05928458341863006
0.05932151710032486
0.05936239216127433
0.05930974796996452
0.05948686839896254
0.05931495598168112
0.05853836265974678
0.05822753399028443
0.05735716623952612
0.05569253121502697
0.054047307851724326
0.0529774382931646
0.05273479884606786
0.05311119809746742
0.05370759307523258
0.05366456934134476
0.05271488486090675
0.051316058856900784
0.05017236599233001
0.049504400436999274
0.04905123300617561
0.048704773328499866
0.04879180708900094
0.049350057875271885
0.049538893678691236
0.049729485671268774
0.0492621607973706
0.04756826010649093
0.04514652198646218
0.042817253161920234
0.04106924656662159
0.04026001270627603
0.0402534074045252
0.03987657752004452
