10.256857919692994
10.238893144130707
10.1560764503479
10.16258086681366
10.24671817302704
10.285962800979615
10.191979434490204
9.94665593624115
9.658486700057983
9.508842170238495
9.568535046577454
9.729318804740906
9.835935592651367
9.855582337379456
9.869965608119964
9.906151237487792
9.885439219474792
9.810576667785645
9.801011757850647
9.85901396036148
9.863411791324616
9.79674120426178
9.746969337463378
9.752934215068818
9.798969388008118
9.866680827140808
9.919493525028228
9.898207468986511
9.797999053001403
9.736547844409943
9.80600248336792
9.942481637001038
10.042634420394897
10.041156101226807
9.964662294387818
9.94316960811615
9.993108344078063
9.982190270423889
9.879171853065492
9.786308007240295
9.767454161643983
9.82596453666687
9.952206678390503
10.053907680511475
10.025785474777221
9.946211771965027
9.944247002601623
9.972654161453248
9.926816864013672
9.826807470321656
9.775734248161315
9.81400767326355
9.864018106460572
9.841403322219849
9.748045372962952
9.622967319488525
9.53239553451538
9.55591718673706
9.701982064247131
9.89879141330719
10.00339168548584
9.922524976730347
9.768722290992736
9.679281644821167
9.62904095172882
9.576427245140076
9.574364433288574
9.647213654518128
9.688907704353333
9.588530187606812
9.420123238563537
9.353046126365662
9.371153225898743
9.327346239089966
9.230105051994324
9.192407445907593
9.228588767051697
9.288462028503417
9.330046281814575
9.307044272422791
9.245813422203064
9.225457210540771
9.220951752662659
9.20259476184845
9.204798150062562
9.15939103603363
9.027046575546265
8.973849225044251
9.100901918411255
9.269271879196166
9.321068887710572
9.212247166633606
8.987318692207337
8.810806403160095
8.82751323223114
8.937981834411621
8.957492079734802
8.898491315841675
8.87810676574707
8.883317332267762
8.807238397598267
8.664569678306579
8.596261143684387
8.619328899383545
8.60680850982666
8.544424891471863
8.524070053100585
8.566968145370483
8.618658838272095
8.60753662586212
8.549957938194275
8.569349222183227
8.701847009658813
8.84718415260315
8.91792552471161
8.902524256706238
8.85942750453949
8.869435710906982
8.969634647369384
9.12565146446228
9.201175737380982
9.09720097541809
8.979169292449951
9.052081112861634
9.211860675811767
9.276222352981568
9.25871813774109
9.214590487480164
9.167905859947204
9.151992483139038
9.1088916349411
8.969709067344665
8.844436173439027
8.85992910861969
8.946920976638793
9.004280676841736
9.058266654014588
9.107239398956299
9.066525135040283
8.953226284980774
8.899680733680725
8.971474933624268
9.091907987594604
9.143401699066162
9.11513334274292
9.109209790229798
9.171761622428894
9.194471230506897
9.073539562225342
8.90260688304901
8.868892245292663
8.97665653705597
9.052399430274964
9.042976250648499
9.074862408638001
9.200969920158386
9.326364698410034
9.371655597686768
9.37836573600769
9.445983653068543
9.572832450866699
9.647872476577758
9.6361518907547
9.615566630363464
9.609743328094483
9.55802047252655
9.434413356781006
9.269652552604676
9.1034779214859
8.988985109329224
8.984434762001037
9.062325477600098
9.094213590621948
9.010411906242371
8.899597148895264
8.867605829238892
8.898509130477905
8.938617606163024
8.95495795249939
8.905429534912109
8.820764288902282
8.792040538787841
8.800339226722718
8.732672743797302
8.587483177185058
8.50515558719635
8.550434055328369
8.652013192176819
8.7761217212677
8.931275091171266
9.063351020812988
9.11529776096344
9.116361436843873
9.13701916217804
9.16168939113617
9.10991180896759
9.008687558174133
8.968892941474914
9.032693996429444
9.14796552658081
9.216770730018617
9.20887336730957
9.196996903419494
9.211624150276185
9.205765585899353
9.153354148864747
9.062288460731507
8.953831157684327
8.834737596511841
8.68070767402649
8.520614285469055
8.4369265127182
8.4198450756073
8.383398313522338
8.352397055625916
8.428854541778565
8.57934564113617
8.676592650413513
8.698524222373962
8.731460943222046
8.81022617816925
8.857922039031983
8.86100618839264
8.934802751541138
9.05518918991089
9.036891508102418
8.901807951927186
8.855981917381287
8.925549058914184
9.0092986536026
9.115018882751464
9.248298726081849
9.32800594329834
9.375516457557678
9.475227398872375
9.557728085517883
9.507293906211853
9.338055663108825
9.144960017204285
9.007598495483398
8.929036598205567
8.882296767234802
8.8690154504776
8.854557995796204
8.808122053146363
8.78579300880432
8.849267430305481
8.988754253387452
9.096447887420654
9.056867218017578
8.93012529850006
8.839972386360168
8.806190462112427
8.875022311210632
9.06626190662384
9.240570549964906
9.345528841018677
9.465215067863465
9.582471809387208
9.650952434539795
9.662877907752991
9.576942701339721
9.45225401878357
9.43315354824066
9.518930187225342
9.578284816741943
9.543146271705627
9.494259781837464
9.520923571586609
9.535079035758972
9.430909819602967
9.334737672805787
9.377385196685792
9.44440025806427
9.442613739967346
9.464919672012329
9.528142776489258
9.508342938423157
9.402581968307494
9.33855206489563
9.338440861701965
9.349231820106507
9.386958518028258
9.464274463653565
9.52872889995575
9.54396155834198
9.553104815483094
9.623032107353211
9.738626742362976
9.838848991394043
9.885345768928527
9.836256766319275
9.706738901138305
9.59967252254486
9.59889901638031
9.693331990242005
9.769832758903503
9.748743829727173
9.716443395614624
9.784576845169067
9.94402925491333
10.124680976867676
10.207856636047364
10.053613796234131
9.75281448841095
9.581870837211609
9.543341031074524
9.450467429161073
9.34701858997345
9.349307255744934
9.437996673583985
9.556797604560852
9.624321303367616
9.586019740104675
9.482055048942566
9.39312910079956
9.400405502319336
9.487788591384888
9.529234690666199
9.495416593551635
9.481050457954407
9.490071535110474
9.429452848434448
9.298641977310181
9.188910584449768
9.151936864852905
9.18451066493988
9.273315253257751
9.376975388526917
9.422649340629578
9.39978111743927
9.354028511047364
9.253267011642457
9.0638991355896
8.907030301094055
8.885256776809692
8.915184679031372
8.907099499702454
8.865512189865113
8.80961669921875
8.781395196914673
8.794161972999573
8.824523706436157
8.926663460731506
9.077092065811158
9.095094633102416
8.984064536094666
8.963838267326356
9.08688117980957
9.183823881149292
9.137489466667175
9.01262387752533
8.945792393684387
8.978573775291443
9.01903000831604
8.993342094421386
8.986377863883972
9.087472453117371
9.204653487205505
9.199995293617249
9.083338108062744
8.984631381034852
8.996297793388367
9.093173570632935
9.220327339172364
9.351860566139221
9.417530279159546
9.364270272254943
9.292704062461853
9.33191298007965
9.450899863243103
9.533681020736694
9.550033011436462
9.55064425945282
9.57298463821411
9.594880714416504
9.537502512931823
9.376123147010803
9.208971118927002
9.123427939414977
9.086909856796265
9.05650722026825
9.091094889640807
9.202368969917297
9.256790280342102
9.214404592514038
9.214955596923827
9.322529611587525
9.448102641105653
9.50557095527649
9.500402793884277
9.534831376075745
9.66322208404541
9.749629096984863
9.693963098526002
9.6149747133255
9.574904022216797
9.45685736656189
9.235588345527649
9.038512587547302
8.919806656837464
8.816598949432374
8.706241488456726
8.615676169395448
8.552188444137574
8.522584958076477
8.50596839427948
8.45456389427185
8.383224897384643
8.357340817451478
8.384834699630737
8.402048954963684
8.389133372306823
8.409094820022583
8.46181493282318
8.453256850242616
8.390952219963074
8.374418029785156
8.381018800735474
8.321134238243102
8.24087227344513
8.246531105041504
8.32799132347107
8.422148241996766
8.525505905151368
8.662248058319092
8.816651439666748
8.929126434326172
9.006646852493287
9.137409329414368
9.295827231407166
9.337910013198853
9.250575819015502
9.187969551086425
9.23815523147583
9.297999348640442
9.217577152252197
9.014131712913514
8.852461462020875
8.812375168800354
8.814892706871033
8.774562983512878
8.681339564323425
8.56718234539032
8.464586997032166
8.387042217254638
8.359570207595825
8.420799369812011
8.575432753562927
8.7791632938385
8.959360256195069
9.061009650230408
9.088612413406372
9.106103649139405
9.178427152633667
9.301127181053161
9.409279160499572
9.43322319984436
9.366007161140441
9.293626918792725
9.297709856033325
9.361995306015015
9.404413614273071
9.367043380737305
9.290603041648865
9.263944034576417
9.284844689369201
9.270158586502076
9.20855450630188
9.165198822021484
9.14042230129242
9.08500834465027
8.981640186309814
8.826475811004638
8.649432578086852
8.482318363189698
8.313737330436707
8.196519999504089
8.196598963737488
8.229783768653869
8.20413556575775
8.178230123519898
8.213949246406555
8.25707311630249
8.260498490333557
8.295079174041748
8.415708236694336
8.540658841133117
8.58792223930359
8.585195651054383
8.598760685920716
8.653036632537841
8.721196570396422
8.774438738822937
8.837971959114075
8.957777409553527
9.106826529502868
9.204425344467163
9.20149151802063
9.099928903579713
8.989187545776367
8.996621346473693
9.108771500587464
9.186865520477294
9.154760036468506
9.063657145500184
9.016149168014527
9.058660697937011
9.140598702430726
9.184268498420716
9.182346467971803
9.197972235679627
9.252967953681946
9.27647358417511
9.207453694343567
9.07922996044159
8.985224423408509
9.001279878616334
9.115954990386962
9.256753926277161
9.384666700363159
9.497330856323241
9.610592594146729
9.731459393501282
9.81589322090149
9.87245065689087
9.975618543624877
10.087094812393188
10.107293705940247
10.055003762245178
9.99392731666565
9.923595685958862
9.839557518959046
9.777487211227417
9.743645730018615
9.682613983154297
9.596991686820983
9.579785866737366
9.633759770393372
9.651374292373657
9.598426332473755
9.485804228782653
9.29509834766388
9.123254752159118
9.109270553588868
9.184770340919494
9.188949961662292
9.105183720588684
9.031641387939453
9.034388017654418
9.070868573188783
9.083009705543517
9.087943329811097
9.091975002288818
9.107173566818238
9.20216872215271
9.345033831596375
9.418828530311584
9.43027919769287
9.446741843223572
9.43745991230011
9.365976185798646
9.30672080039978
9.342308144569397
9.444290056228638
9.557754759788514
9.670721325874329
9.723267278671266
9.650450658798217
9.519054441452026
9.415227794647217
9.30635205745697
9.18583291053772
9.183068814277648
9.32717044353485
9.415892539024354
9.3628479719162
9.331055145263672
9.381614089012146
9.401937370300294
9.360379586219787
9.360609431266784
9.483935084342956
9.6632124710083
9.773511052131653
9.80271821975708
9.800391049385071
9.755647802352906
9.665075907707214
9.598081698417664
9.614571738243104
9.721905498504638
9.852262063026428
9.877094550132751
9.787363896369934
9.719356970787048
9.741259956359864
9.797215995788575
9.838591260910034
9.881148767471313
9.92736961364746
9.915746173858643
9.835986700057983
9.791395201683045
9.792033290863037
9.703571858406066
9.516138143539429
9.374604554176331
9.350169982910156
9.384494190216065
9.402948827743531
9.395465121269226
9.412825136184692
9.497513341903687
9.596783599853516
9.608656692504884
9.526861567497253
9.4442116355896
9.443449096679688
9.532360982894897
9.646316466331482
9.721364932060242
9.731347780227662
9.648317790031433
9.504931201934815
9.419772253036498
9.404871926307678
9.342627658843995
9.220079946517945
9.13646282196045
9.111205139160155
9.07324704170227
8.981201763153075
8.887885384559631
8.87465705871582
8.92876341342926
8.98011061668396
9.023023262023926
9.100558137893676
9.213097324371338
9.29372803211212
9.296653003692628
9.302519302368164
9.396265716552735
9.47560142993927
9.413477993011474
9.292736911773682
9.2421865940094
9.225103149414062
9.194499053955077
9.222450523376464
9.312361869812012
9.33702820777893
9.26380211353302
9.215444350242615
9.250165100097655
9.295036053657531
9.289606685638427
9.224551119804381
9.157180404663086
9.175249409675597
9.222408108711242
9.151489119529725
8.9640025806427
8.813916888237
8.800506939888
8.887772212028503
9.014406514167785
9.1111811542511
9.085385732650757
8.965895886421203
8.910756707191467
8.990663080215453
9.094796376228333
9.08151542186737
8.982857899665833
8.990910367965698
9.199567651748657
9.45035394668579
9.569797105789185
9.625226817131043
9.735519638061524
9.827562918663025
9.76467803955078
9.578689556121827
9.449012947082519
9.459363813400268
9.501956624984741
9.459947533607483
9.338439240455628
9.237458949089051
9.27598054409027
9.424833650588988
9.531972360610961
9.590001168251037
9.671519312858582
9.703950581550599
9.616903548240662
9.501570191383362
9.440373373031616
9.401215047836304
9.399826183319092
9.526730618476869
9.727526831626893
9.81605522632599
9.759549765586852
9.708412594795227
9.773079600334167
9.929001288414002
10.079888892173766
10.183732228279114
10.288545169830321
10.376740274429322
10.345164070129394
10.227621297836304
10.186003022193908
10.224768500328064
10.188100142478943
10.08206636428833
10.090146055221558
10.236013402938843
10.319047164916991
10.208725290298462
10.037632508277893
9.988461117744446
9.98770875930786
9.872587385177612
9.690062437057495
9.546337532997132
9.434221262931823
9.356041011810303
9.333445444107056
9.340060262680053
9.390074081420899
9.49868196964264
9.558482522964477
9.486426753997803
9.370417003631593
9.320733289718628
9.346302676200867
9.38507975101471
9.347765378952026
9.24642255783081
9.176786255836486
9.115361666679382
9.0531822347641
9.132541842460633
9.341159639358521
9.469818859100341
9.46285472869873
9.416553111076356
9.347581124305725
9.25289701461792
9.228435001373292
9.322584629058838
9.424634313583374
9.423653507232666
9.325936212539673
9.191815023422242
9.060733847618103
8.925384783744812
8.776923661231995
8.663570232391358
8.637284035682677
8.669084439277649
8.700724287033081
8.730510048866272
8.784429440498352
8.85226550102234
8.896905875205993
8.928150477409362
8.994962573051453
9.084654650688172
9.139674015045166
9.171413984298706
9.244438118934632
9.356772651672363
9.455682291984559
9.545594940185547
9.641998672485352
9.690980429649352
9.6632848405838
9.606368985176086
9.54261103630066
9.476415615081788
9.45208158969879
9.492237377166749
9.574542088508606
9.667459535598756
9.73662962436676
9.761434369087219
9.765610942840576
9.773510222434998
9.771468887329101
9.779634575843811
9.786738615036011
9.674324431419372
9.45873628616333
9.34785125732422
9.416887030601501
9.54641939163208
9.643991184234618
9.683154225349426
9.629508624076843
9.514397373199463
9.469546971321106
9.540534796714782
9.632074332237243
9.691959767341613
9.77050076007843
9.907647018432618
10.03456639289856
10.044753112792968
9.971677823066711
9.918344192504883
9.845520300865173
9.674496684074402
9.499787135124206
9.466531190872193
9.510264549255371
9.435428042411804
9.261261768341065
9.204231157302857
9.31220220565796
9.453397464752197
9.53144944190979
9.482255668640137
9.29602647304535
9.102834620475768
9.048911490440368
9.13053071975708
9.24675145149231
9.335595321655273
9.41186692237854
9.503632593154908
9.581391720771789
9.585173025131226
9.520266056060791
9.455905890464782
9.41221107006073
9.371929869651794
9.343036031723022
9.325298624038696
9.334137516021729
9.400226478576661
9.508440809249878
9.620011024475097
9.694155697822572
9.690113677978516
9.608548455238342
9.491437811851501
9.370056228637695
9.263874368667603
9.224036188125611
9.281716270446777
9.370211095809937
9.416965670585633
9.436627678871155
9.429822058677674
9.333593182563781
9.164765024185181
9.059091711044312
9.088703474998475
9.162544622421265
9.178602538108827
9.180419511795044
9.269986939430236
9.394220051765442
9.366736836433411
9.184913377761841
9.095160546302795
9.20508508682251
9.31084623336792
9.219940466880798
9.008275957107545
8.90452495098114
9.012661671638488
9.185623731613159
9.231109647750854
9.13560794353485
8.99642689704895
8.88588888645172
8.814212551116944
8.734926247596741
8.634602599143982
8.6042791557312
8.68485242843628
8.761584415435792
8.79108404159546
8.887931509017944
9.03807538986206
9.072467150688171
8.975069918632506
8.863213720321655
8.756884746551513
8.646421089172364
8.601523866653443
8.639581027030944
8.662322511672974
8.61357889175415
8.559483289718628
8.570023875236512
8.637959551811218
8.715817527770996
8.759082417488099
8.744157538414001
8.681404914855957
8.602788586616516
8.542714691162109
8.53579526424408
8.584080839157105
8.67021921634674
8.811301145553589
9.001445055007935
9.150507073402405
9.16781840801239
9.067707138061524
8.951286063194274
8.897849097251893
8.898078169822693
8.89080599784851
8.84011927127838
8.795699114799499
8.842048258781434
8.927586646080018
8.891646332740784
8.732576131820679
8.647642884254456
8.766069707870484
9.004660239219666
9.188154740333557
9.230156021118164
9.19486726284027
9.184665031433106
9.223792152404785
9.29304844379425
9.37834743976593
9.416916575431824
9.329035930633545
9.177797474861144
9.119336891174317
9.18298855304718
9.267959985733032
9.313853068351746
9.350804529190064
9.387511024475097
9.360979499816894
9.266087579727174
9.226707754135132
9.312811546325683
9.396986536979675
9.354630551338197
9.277555532455445
9.286581530570984
9.301419382095338
9.2194584608078
9.128548336029052
9.176511030197144
9.333284344673157
9.410223503112793
9.33926215648651
9.242442650794983
9.20031678199768
9.174041090011597
9.15787365913391
9.221533846855163
9.348281216621398
9.413805613517761
9.387242074012756
9.374716854095459
9.450625348091126
9.53911346912384
9.504436841011048
9.390090837478638
9.405981750488282
9.583168540000916
9.709146909713745
9.66255828857422
9.521267671585083
9.383975720405578
9.305757694244384
9.293423018455506
9.302017345428467
9.300374846458435
9.254762210845946
9.110770349502564
8.899876880645753
8.778158473968507
8.863206033706666
9.045649766921997
9.115286736488342
9.0501717376709
8.978206958770752
8.948418221473695
8.913368902206422
8.852990612983703
8.821003222465515
8.855978479385376
8.902950539588929
8.91311619758606
8.934803895950317
9.006734008789062
9.055700464248657
9.00180890083313
8.913303322792054
8.930111751556396
9.029513301849365
9.037486596107483
8.939600825309753
8.912079582214355
8.998141689300537
9.064758234024048
9.01737826347351
8.901529436111451
8.823187580108643
8.768439173698425
8.675059733390809
8.657183623313903
8.85442183494568
9.129473176002502
9.210156631469726
9.111711406707764
9.116545991897583
9.259231243133545
9.255346417427063
9.06733519077301
8.975858130455016
9.0567409658432
9.123379139900207
9.070859208106995
8.958612761497498
8.876356568336487
8.833288559913635
8.794901342391968
8.783564238548278
8.825705304145814
8.887557964324952
8.92973596572876
8.93984211921692
8.931742072105408
8.927667608261109
8.936832313537598
8.976869173049927
9.038587985038758
9.060136361122131
9.037401685714721
9.034947834014893
9.072074227333069
9.105880265235902
9.077608699798583
8.994343805313111
8.927932085990905
8.909531126022339
8.96387746334076
9.089940423965453
9.147804551124572
9.058788623809814
8.980306305885314
9.025539345741272
9.083651247024536
9.052741746902466
8.997545237541198
9.007713685035705
9.02444338798523
8.944629888534546
8.859164204597473
8.930892848968506
9.059953083992005
9.012485666275024
8.842328333854676
8.796882019042968
8.881429781913758
8.890581254959107
8.798240218162537
8.773559517860413
8.837289490699767
8.848344140052795
8.793006768226624
8.789893698692321
8.887499709129333
9.013709907531739
9.092001280784608
9.149321494102479
9.25696291923523
9.41736934185028
9.565010828971863
9.638958854675293
9.617404508590699
9.498412327766419
9.343628087043761
9.292779288291932
9.363220200538635
9.380778403282166
9.27884177684784
9.192469439506532
9.187470831871032
9.197337079048157
9.190933990478516
9.20418884754181
9.231494045257568
9.22504092693329
9.233182158470154
9.315696988105774
9.351347560882568
9.258606834411621
9.207201414108276
9.299517879486084
9.355822734832763
9.241450080871582
9.116791410446167
9.15941394329071
9.273728113174439
9.330480103492738
9.427451777458192
9.64674075126648
9.847196593284608
9.867424240112305
9.7572501039505
9.684411745071412
9.662565217018127
9.595538668632507
9.535769181251526
9.597858037948608
9.710943546295166
9.724034371376037
9.668689947128296
9.664693655967712
9.667297787666321
9.599141435623169
9.538662133216858
9.57439857006073
9.688588814735413
9.788504672050475
9.785159215927123
9.69450162410736
9.60503719329834
9.560878462791443
9.544457306861878
9.546859760284423
9.570161771774291
9.574841589927674
9.553052926063538
9.59590672492981
9.752048463821412
9.91688653945923
9.942839097976684
9.82046320438385
9.690855979919434
9.641883316040039
9.641001176834106
9.636260104179382
9.545662097930908
9.348288307189941
9.190772528648376
9.145477390289306
9.076574783325196
8.922053089141846
8.846548104286194
8.991562294960023
9.219968419075013
9.265196666717529
9.063249936103821
8.957593431472779
9.060800867080689
9.421775822639466
9.933927240371704
10.310182604789734
10.391813230514526
10.209096255302429
10.390245099067688
11.057615690231323
12.22667299747467
13.633707051277161
14.872642378807068
15.89498914718628
16.81051908016205
17.317780394554138
17.183102903366088
17.505805525779724
18.105612449645996
19.0173393201828
19.86605703830719
20.074916248321532
20.063373742103575
20.29722352027893
20.56898063659668
21.17597692489624
22.354087433815003
23.836904187202453
24.99549120426178
25.251154527664184
25.46252323627472
26.1558163022995
26.635496678352357
26.602676453590394
26.721221575737
27.21310708999634
27.90091586589813
28.665924768447876
29.393437604904175
30.000856680870058
30.489192719459535
30.87888355255127
31.055948281288146
30.928092880249025
30.940353522300722
31.018420224189757
31.057953596115112
31.052999792098998
31.055739583969117
31.164680795669554
31.39264515399933
31.402134275436403
31.070706548690797
30.506523842811585
29.778836150169372
29.17537034034729
28.956136598587037
29.1818065738678
29.175996952056884
28.67964096546173
27.591403980255127
26.211642088890077
25.029244170188903
24.120288529396056
23.365393357276915
23.046392698287963
23.333674392700196
23.025760350227355
22.27584171772003
21.141352133750914
20.082097749710083
19.71038306236267
19.615057163238525
19.27365414619446
18.844546461105345
18.097762846946715
16.906060943603517
15.508747878074645
14.39043848514557
14.101068434715271
13.881526913642883
13.21090723514557
12.733778948783874
12.829418163299561
12.930544662475587
12.742991132736206
12.283760905265808
11.589427924156189
10.834180641174317
10.211701140403747
9.743745775222779
9.352430505752563
9.142278337478638
9.287813110351562
9.414423117637634
9.55875841140747
9.647445311546326
9.530611057281494
9.316090841293335
9.209849753379821
9.24427240371704
9.40104474067688
9.671090364456177
9.85582718372345
10.019705815315247
10.234461526870728
10.40424605369568
10.388063178062438
10.21592026233673
10.030244264602661
9.896429133415221
9.762101740837098
9.581760382652282
9.383726782798767
9.182998666763305
8.996437497138977
8.921013164520264
9.00292935848236
9.152509026527405
9.307610273361206
9.476730966567994
9.60637092590332
9.65073914051056
9.72419849395752
9.950090441703797
10.23016619682312
10.369148597717285
10.347067942619324
10.26597640991211
10.13115342617035
9.915229620933532
9.698296580314636
9.525195550918578
9.314428791999816
9.047254881858827
8.822389130592347
8.708608632087708
8.715588035583496
8.822037596702575
8.985983142852783
9.195016865730286
9.425835328102112
9.56576810836792
9.512961144447326
9.293867421150207
8.997820525169372
8.736688704490662
8.6175652551651
8.609605960845947
8.615014038085938
8.672771530151367
8.898587613105773
9.265369958877564
9.533780817985535
9.476111898422241
9.291840152740479
9.02896936416626
8.914963064193726
8.923393268585205
9.085504622459412
9.34232569694519
9.525851593017578
9.614436388015747
9.732296323776245
9.941172003746033
10.11480399608612
10.076254167556762
9.906202549934386
9.81974576473236
9.7643115234375
9.55666938304901
9.371486539840697
9.283487229347228
9.278520431518555
9.145630898475646
8.945659756660461
8.858300452232362
8.895274801254272
8.985093359947205
9.118248167037963
9.30788947582245
9.533330707550048
9.755872073173522
9.939016675949096
10.05330650806427
10.09511598110199
10.071480641365051
9.979283485412598
9.822013688087463
9.589942960739135
9.31459433555603
9.151244130134582
9.215467066764832
9.418826813697814
9.600849504470824
9.719575424194336
9.849774751663208
10.013338971138001
10.10022611618042
10.051979517936706
9.931795587539673
9.7103546667099
9.35000283718109
9.08810495853424
9.178231444358826
9.365045919418336
9.568424286842346
9.586622500419617
9.473727946281434
9.23888747215271
8.964036555290223
8.780058770179748
8.687014060020447
8.614630975723266
8.524373016357423
8.437760605812073
8.423370637893676
8.45598554611206
8.462697496414185
8.521180348396301
8.745407099723815
8.996337275505066
9.290565543174743
9.545138125419617
9.76862672805786
9.918034043312073
9.986197528839112
9.965074548721313
9.84031521320343
9.688163557052611
9.59381676197052
9.508739337921142
9.338963489532471
9.132053074836731
9.024456644058228
9.026406908035279
9.05291826725006
9.105475478172302
9.234644093513488
9.449380044937135
9.700443730354309
9.845617971420289
9.79105950832367
9.661288366317748
9.632838864326477
9.697639861106872
9.724397630691529
9.671725735664367
9.629918041229248
9.643334817886352
9.618697962760926
9.493902072906494
9.343179535865783
9.235937337875367
9.162361302375793
9.130775890350343
9.187273931503295
9.318920888900756
9.446366925239563
9.528335390090943
9.608699960708618
9.763399405479431
9.98378662109375
10.136257667541503
10.13377604484558
10.073597497940064
10.099045400619508
10.195559430122376
10.219444680213929
10.084621572494507
9.862490243911743
9.63135684967041
9.461275033950805
9.301362867355346
9.113873643875122
8.941884698867797
8.851218190193176
8.899619698524475
9.088489494323731
9.30702564239502
9.447478113174439
9.55898994922638
9.767492928504943
10.060290908813476
10.280655488967895
10.35238733291626
10.345306329727173
10.30669312953949
10.224867315292359
10.10333173274994
9.931552972793579
9.72971706390381
9.613631992340087
9.628660335540772
9.646094183921814
9.569989314079285
9.476499495506287
9.466349902153015
9.52291428565979
9.563069019317627
9.571783452033996
9.614890856742859
9.69734531879425
9.747080416679383
9.747975435256958
9.713611521720885
9.613853759765625
9.476007618904113
9.390222868919373
9.338516564369202
9.202102818489074
8.958855500221253
8.73746898174286
8.660020303726196
8.716700625419616
8.799250559806824
8.805286960601807
8.754935817718506
8.796551222801208
9.021796841621398
9.314438185691834
9.515441451072693
9.508890867233276
9.427513318061829
9.462112374305725
9.579571237564087
9.6324241065979
9.609219398498535
9.558393421173095
9.464946808815002
9.322058987617492
9.15246530532837
8.964094777107238
8.797061042785645
8.72047869682312
8.731004042625427
8.774857273101807
8.859962606430054
9.013059210777282
9.197743616104127
9.37375964164734
9.525990333557129
9.619239602088928
9.621762285232544
9.583348212242127
9.602760758399963
9.676834983825684
9.718535089492798
9.692423605918885
9.58983582496643
9.411687264442444
9.25007878780365
9.226506595611573
9.30685959815979
9.327559452056885
9.264431829452514
9.269743518829346
9.392742605209351
9.511058864593506
9.567995657920838
9.678544211387635
9.915475378036499
10.115134544372559
10.089392614364623
9.928080682754517
9.841514859199524
9.861431879997253
9.885953588485718
9.844070301055908
9.767969226837158
9.726579360961914
9.709073276519776
9.710440382957458
9.748339557647705
9.744688010215759
9.66793625354767
9.614623169898987
9.60083047389984
9.568442544937135
9.578591432571411
9.707687487602234
9.86256028175354
9.904842643737792
9.823945360183716
9.714509744644165
9.652430787086487
9.630602326393127
9.623552217483521
9.610712790489197
9.5408411693573
9.408091397285462
9.292669959068299
9.235920610427856
9.21427372455597
9.210829396247863
9.19394901752472
9.16574586391449
9.170945343971253
9.187585949897766
9.230900201797485
9.393544645309449
9.607176656723022
9.69322078704834
9.667916202545166
9.699296998977662
9.831939997673034
9.95360619544983
9.973561477661132
9.933619055747986
9.914548916816711
9.850273652076721
9.62857174873352
9.385581135749817
9.358570904731751
9.46548637866974
9.448638734817505
9.326028513908387
9.287470240592956
9.334381737709045
9.315599675178527
9.201647882461549
9.132865824699401
9.174796109199525
9.261371111869812
9.378003263473511
9.522328581809997
9.61789990901947
9.628055243492126
9.573437514305114
9.440954494476319
9.247852916717529
9.130066833496095
9.180638194084167
9.280139222145081
9.27980727672577
9.238987054824829
9.260658407211304
9.237882227897645
9.069634160995484
8.925696496963502
8.98045919418335
9.150386214256287
9.277632417678833
9.307846961021424
9.275191965103149
9.292062754631042
9.431075696945191
9.605111117362975
9.72398398399353
9.801297779083251
9.832287034988404
9.784335765838623
9.678650612831115
9.558728623390198
9.451963729858399
9.380600600242614
9.326689987182617
9.252367897033691
9.205254907608031
9.254976706504822
9.384193449020385
9.550779099464416
9.684999380111694
9.691436858177186
9.632584290504456
9.679561395645141
9.832698493003845
9.962464146614074
10.007188034057616
9.97980327129364
9.93084768295288
9.89496687889099
9.834974875450134
9.710493822097778
9.557855582237243
9.43705060005188
9.36068353652954
9.348217377662658
9.452035045623779
9.644445400238038
9.791215028762817
9.776801376342773
9.636162667274474
9.558734483718872
9.647255983352661
9.7641609954834
9.785607604980468
9.794403128623962
9.874587984085084
9.949611458778381
9.939892225265503
9.860467715263367
9.725873789787293
9.609796957969666
9.656343035697937
9.796565084457397
9.769951887130738
9.536586656570435
9.304464721679688
9.177757873535157
9.097352957725525
9.050431604385375
9.0965438747406
9.214458346366882
9.269245491027831
9.192014923095703
9.109605016708374
9.143054704666138
9.189533095359803
9.12647294998169
9.027012042999267
8.987462191581725
8.995011358261108
9.031914410591126
9.087325797080993
9.100872468948364
9.040698499679566
8.946142930984497
8.875352201461792
8.895766463279724
9.02606397151947
9.171162581443786
9.242081999778748
9.279245138168335
9.349227690696717
9.436457719802856
9.5204749584198
9.602522683143615
9.623792414665223
9.52690583229065
9.392328524589539
9.378084077835084
9.493551568984985
9.564753704071045
9.490017256736756
9.345262799263
9.22332127571106
9.140356183052063
9.071383872032165
9.013871235847473
8.996969270706177
9.03443507194519
9.126545853614807
9.257673201560975
9.386352033615113
9.488741903305053
9.55073736190796
9.56284230709076
9.562488799095155
9.596227841377258
9.664567370414733
9.716548233032226
9.688569250106811
9.614008913040161
9.598404927253723
9.626217346191407
9.59863525390625
9.5535999250412
9.605580134391785
9.743595581054688
9.851970620155335
9.838458108901978
9.720826406478881
9.588968024253845
9.472800817489624
9.35737982749939
9.247370448112488
9.163056244850159
9.143797817230224
9.157896041870117
9.096063656806946
8.998753881454467
9.041907205581666
9.201332049369812
9.264571232795715
9.17732400894165
9.05177406311035
8.94138223171234
8.865482277870179
8.894213924407959
9.017869849205017
9.099056782722473
9.068798480033875
8.992769207954407
8.961598739624023
9.027097520828248
9.124694972038268
9.136246523857118
9.085726776123046
9.08615032196045
9.153643722534179
9.200812449455261
9.170494627952575
9.10048538684845
9.034760241508485
8.962482523918151
8.89407072544098
8.905551352500915
9.027353239059448
9.140266923904418
9.104913692474366
8.982309718132019
8.939184169769288
8.969621305465699
8.958679776191712
8.91634066581726
8.911110715866089
8.90544934272766
8.82243417263031
8.691443400382996
8.638420433998109
8.745664567947388
8.95284243106842
9.141231112480163
9.280841245651246
9.399487853050232
9.482303748130798
9.497178282737732
9.466431412696839
9.466374902725219
9.534835844039916
9.578219747543335
9.458338379859924
9.216611466407777
9.044719619750976
9.012367691993713
9.069685759544372
9.204470109939574
9.34656307220459
9.344358477592468
9.207661151885986
9.128259911537171
9.18928023815155
9.288833084106445
9.332563772201539
9.313253784179688
9.282616691589356
9.297276468276978
9.336585564613342
9.346330423355102
9.324859204292297
9.300067911148071
9.285573534965515
9.264135694503784
9.197516903877258
9.088120565414428
9.01951810836792
9.044026260375977
9.08042401790619
9.06674744129181
9.061560206413269
9.07729040145874
9.053029294013976
9.031241817474365
9.136849493980408
9.348188276290893
9.465050001144409
9.41997516155243
9.388522939682007
9.440612988471985
9.440680446624755
9.340836877822875
9.225026679039
9.137269930839539
9.061734666824341
9.0080366897583
9.024823474884034
9.1277490234375
9.242871203422546
9.223512439727783
9.034095182418824
8.9046648645401
9.038783521652222
9.288604202270507
9.41864498615265
9.423546857833863
9.348686566352844
9.16526840686798
8.985007281303405
9.00483573436737
9.169724178314208
9.253016881942749
9.214235777854919
9.157300868034362
9.11676996231079
9.12423376083374
9.220304269790649
9.324438586235047
9.337190909385681
9.282005634307861
9.214874267578125
9.15399218082428
9.13198000907898
9.175717306137084
9.232187991142274
9.230316305160523
9.187947144508362
9.137863306999206
9.05649260520935
8.971038794517517
8.984755463600159
9.105315055847168
9.192812509536743
9.167035002708435
9.081989135742187
8.994134721755982
8.965681161880493
9.046302928924561
9.146759104728698
9.152918629646301
9.100630469322205
9.076523814201355
9.08555890083313
9.064277787208557
8.97354648590088
8.898983154296875
8.957624640464783
9.067668237686156
9.047257604598999
8.954982113838195
8.965350089073182
8.986533999443054
8.847655572891234
8.647659168243408
8.557623500823974
8.589898452758788
8.685858130455017
8.758271641731262
8.73061444759369
8.647257771492004
8.601019520759582
8.596106824874878
8.604774389266968
8.660643644332886
8.766751189231872
8.794316062927246
8.662169137001037
8.526739120483398
8.578366484642029
8.747079076766967
8.812314267158508
8.756835060119629
8.753115458488464
8.811771249771118
8.819044575691223
8.819808855056763
8.896609940528869
9.00638286113739
9.092149262428284
9.11106348991394
9.013020458221435
8.873687891960143
8.880296030044555
9.03428256034851
9.136976504325867
9.134728817939758
9.152363109588624
9.22449996471405
9.260440902709961
9.248911638259887
9.260293865203858
9.190227341651916
9.165940046310425
9.683151988983154
10.587350106239318
11.511579184532165
12.310034308433533
12.960966811180114
13.233151378631591
13.473559093475341
14.314111490249633
15.453258423805236
16.791615443229674
18.34195264339447
20.125609316825866
21.762358713150025
22.645072021484374
22.82701484680176
23.067095746994017
23.894741139411927
25.035698804855347
25.806097311973573
25.789724407196044
26.001877222061157
26.270718240737914
26.13375814437866
26.114276061058046
26.144783816337586
26.37405909061432
26.637245631217958
27.198009176254274
28.081461000442506
28.78303071975708
29.02097106933594
29.001001873016357
28.876896452903747
28.884094815254212
29.275205373764038
30.08760847091675
31.153942036628724
32.125585741996765
32.62301664352417
32.624974055290224
32.62376821041107
33.049432306289674
33.70728316783905
34.09682475090027
34.04909255027771
33.87415341377258
33.9973014497757
34.17946886062622
34.244885125160216
34.1052346944809
33.537019414901735
32.7097972202301
31.739523539543153
30.70827799797058
29.82760397911072
29.545994248390198
29.4103519153595
28.59625289440155
27.38650032043457
26.007942900657653
24.501554908752443
22.685327334403993
21.025348658561708
20.393574719429015
20.635765943527222
20.91521914958954
20.605871324539184
19.974928665161134
19.84236051082611
20.575013670921326
20.79755499839783
20.469074621200562
20.520679121017455
20.422746224403383
20.286621379852296
19.93227717399597
19.60371663093567
19.034481916427612
18.09950140953064
17.32701030254364
16.991754398345947
16.90757185935974
16.86257936954498
17.4421200799942
18.980883765220643
21.01892586708069
22.51002785205841
23.142037320137025
23.414270095825195
23.418880066871644
23.871670355796812
25.286562509536743
27.66871820449829
30.57184003829956
33.097996039390566
34.9078185749054
36.92693007946014
40.51447189331055
45.15462707996368
48.927917623519896
50.858004717826844
51.40916706562042
51.82457290649414
53.380288882255556
55.30695868968964
56.69392415046692
57.49405856609344
58.15223415851593
58.86690382003784
59.511096386909486
60.05124631404877
60.76247408390045
61.56801561832428
62.10727604866028
62.5323565864563
62.96282329082489
63.23477977752685
63.070194025039676
62.34736226081848
61.59372269153595
61.42086856842041
61.98277581214905
62.66851109981537
63.391682286262515
64.05435688018798
64.6507692527771
65.1595401096344
65.69089523792267
66.31716088294984
66.78742448329926
66.92281861305237
66.78570897102355
66.95191976070404
66.41939324855804
64.55052292346954
61.82190910339355
59.45449461460114
58.02373571872711
57.30552362442017
57.1677238368988
56.44766681194305
54.65738095760346
52.019384183883666
49.22813572406769
47.221121516227726
46.1640444278717
44.74231593608856
41.59591333866119
37.33174437522888
33.892477831840516
32.189435849189756
31.771496887207032
31.39643293380737
30.04784870147705
28.48780987262726
27.441534638404846
26.916805491447448
26.46660409927368
25.86114872932434
25.125763931274413
24.578515467643737
24.14567130088806
23.768994326591493
23.48348515033722
23.194252133369446
22.78618351459503
22.468631477355956
22.563895998001097
22.99238277435303
23.059107217788696
22.628385963439943
22.02433967113495
21.276641068458556
20.620653042793275
20.275539560317995
20.28078384399414
20.465805530548096
20.559493012428284
20.362834672927857
19.95323399066925
19.711273021698
19.961121411323546
20.40517391681671
21.23946695804596
22.187578358650207
22.743291630744935
22.828240661621095
22.96455767631531
23.636377539634704
24.706784811019897
25.66496572971344
25.912599415779113
25.53339163303375
24.880335688591003
24.145654940605162
23.554692397117616
23.17191876888275
22.884046096801757
22.588476362228395
22.3305938911438
22.054652514457704
22.00338448047638
22.525696148872374
23.11462182998657
23.375384511947633
23.30498128890991
23.247842750549317
23.654135479927064
24.562279210090637
25.573993263244628
25.97649172782898
25.6050936126709
25.35352416038513
24.98711190223694
24.506898951530456
24.23732261180878
24.20431415081024
24.104937963485717
23.951576743125916
24.025793204307558
24.100122613906862
24.15670276641846
24.450420508384706
24.669863843917845
24.624599466323854
24.289412446022034
23.714724359512328
23.090411310195922
22.618823499679564
22.70844002723694
23.212356033325197
23.66095564842224
23.577447843551635
22.6276425075531
21.630873436927796
21.060916562080383
21.200564799308776
22.104754033088685
23.178987379074098
23.65875581264496
23.44379030227661
23.048435130119323
22.976792211532594
23.287435297966002
23.806230697631836
24.229087357521056
24.461651911735533
24.595257544517516
24.65684374332428
24.675743074417113
25.32897940158844
26.225245456695557
26.85273865222931
27.138845829963685
27.04936993598938
26.82630741119385
27.496307282447816
27.929487500190735
27.297721953392028
26.563429703712462
26.28758674144745
26.385961995124816
26.29545023918152
26.045263023376464
26.0929847574234
25.838536586761474
26.33027900695801
27.650420961380004
29.33291717529297
30.653190536499025
31.39592914104462
31.564858965873718
31.247591886520386
31.578162145614623
32.65768361091614
33.80347284793854
34.08830809116363
34.576192536354064
35.892716054916384
36.665063433647155
36.23389666557312
36.013798818588256
35.756149730682374
35.945333199501036
36.2445831823349
36.17986401557923
35.578177061080936
34.38122365951538
32.579194402694704
31.06384449005127
30.47323688030243
30.476116886138914
30.449827613830568
30.338312973976134
30.43993917942047
30.63099078655243
30.34966185092926
30.110347843170167
30.80715655326843
31.979561815261842
32.8643532705307
33.40243865966797
33.29615428924561
32.50424733161926
32.01038898944855
31.835703482627867
30.97155222415924
30.224656581878662
30.31327000141144
30.54490620613098
30.58544870376587
30.62265567302704
30.472443075180053
30.395783348083498
30.310468096733093
30.737193522453307
30.34457634449005
29.08810986042023
27.562194294929505
26.40993447303772
25.89682782649994
25.859582376480102
26.084909405708313
25.48013095378876
24.4465336227417
23.82462697982788
24.27645667552948
24.116608204841615
22.97890317440033
22.262312402725218
22.348309049606325
22.580489959716797
23.43023721218109
24.935170116424562
26.932114095687865
29.163837308883668
30.74075957298279
31.058373560905455
31.21349060058594
31.515329241752625
31.62949433326721
31.638538188934326
31.771908445358278
31.93336361885071
31.742501735687256
31.151186237335207
30.76732741355896
30.440399565696715
29.61920376777649
28.563941807746886
27.159179210662842
25.681896238327028
24.84865247249603
24.850737795829772
24.827509598731993
24.943805856704714
25.288713235855102
25.812043657302855
26.308561148643495
26.471136374473573
26.24595295906067
26.40593343734741
26.60410397529602
26.807125039100647
26.955140023231507
26.63000774383545
26.469998564720154
26.228026366233827
26.945582656860353
27.638212819099426
27.478686366081238
27.89151044845581
28.582961196899415
29.144605989456178
28.972706999778747
28.299797558784483
27.727496757507325
27.790816450119017
28.215227465629578
28.586516361236573
28.909039936065675
28.527426962852477
27.70076732158661
26.187436399459838
23.87209666252136
21.575634517669677
20.217049560546876
19.900585045814513
19.82340352535248
19.753174924850462
19.762985391616823
19.750946245193482
19.521689262390137
19.571159262657165
20.353589792251586
21.382202339172363
21.791227111816408
22.226654324531555
23.209577126502992
24.533221821784974
26.11357319831848
27.635331659317018
28.59394082069397
28.83691828727722
28.734014296531676
28.938233156204223
29.144367566108702
29.160941100120546
29.31205215930939
29.993008165359498
30.661157727241516
30.733390822410584
31.62727745056152
32.5886839723587
33.306473350524904
34.56582032203674
35.86001389503479
36.51955330371857
35.53581655979156
34.74824055194855
35.28636872291565
35.827131357193
35.19933660507202
35.29968834877014
35.756993622779845
35.87655172824859
35.95308838844299
35.883905901908875
35.58129544734955
35.91190092563629
36.29854965209961
36.6646611738205
37.07072266578675
37.346363677978516
37.205818657875064
37.35536599159241
37.76333185195923
38.46157135486603
39.15962657928467
39.46867652416229
39.56283372879028
39.66736124038696
39.67237674236298
39.53669756889343
38.85631155014038
38.05576729297638
38.103858523368835
38.422833819389346
38.384174795150756
38.039533338546754
37.04717677116394
35.639928045272825
35.40344168186188
35.411785221099855
35.70759292125702
35.66469098567963
35.172887768745426
34.56587244510651
33.70384308815002
33.13504653453827
33.02479345321655
33.00527092933655
32.06082765579224
30.93370177745819
29.988842997550964
28.56822612285614
26.89406023025513
25.93937442779541
25.941770839691163
25.658972687721253
25.392535009384154
25.16164047241211
26.139498147964478
26.70205717563629
27.077524070739745
27.227918243408205
27.046028900146485
27.551123247146606
28.276230278015138
27.90195303916931
27.204496092796326
26.56324285030365
25.91433389663696
25.83072617530823
26.77629761219025
27.42325390815735
27.203672881126405
26.59075939178467
26.028584637641906
25.410611090660094
25.24249737262726
25.379663243293763
25.94908121109009
26.524688653945923
27.057689590454103
27.284581332206727
26.79374617099762
26.47501078605652
25.679536900520326
24.469790573120118
23.73780957698822
23.546975898742676
22.719255924224854
22.321301078796388
22.218590602874755
22.343413848876953
22.78551455974579
23.231254839897154
23.746756811141967
23.740054497718813
23.554876146316527
23.265171184539795
23.21975401878357
23.54911458015442
24.01890305519104
24.800036082267763
25.702881560325622
26.644400210380553
27.009086952209472
27.11316484928131
26.70066854953766
25.953981494903566
25.314792466163635
24.971808524131774
24.74230733394623
24.859927129745483
25.33179689884186
25.52255524635315
25.567239804267885
25.747469072341918
26.349168848991393
27.05572838306427
27.22855375766754
27.002218160629273
26.28456793308258
25.52743408203125
25.629987263679503
26.146873688697816
26.46994290828705
26.821113290786744
26.587944321632385
26.652266268730163
26.67928276538849
26.069822402000426
25.072013444900513
24.439864206314088
24.859026341438295
25.494038248062132
26.41880647659302
27.223329877853395
27.691107182502748
28.0269446849823
27.96249023914337
28.194430966377258
28.50967629432678
28.275227494239807
27.618014369010925
27.01054838180542
26.431994614601134
25.667561678886415
25.552099733352662
25.851251616477967
25.88550384044647
25.844736170768737
25.764810161590574
25.301212892532348
24.363167624473572
23.43899015903473
22.781255145072937
22.668791155815125
22.732634825706484
22.47186830997467
21.85336825847626
21.29499635219574
21.316246223449706
21.441327266693115
20.71175848484039
19.88899642467499
19.218083896636962
18.497405309677124
18.130515260696413
18.377768874168396
19.451375312805176
20.33020884037018
20.501504888534544
20.467917070388793
20.343601727485655
19.66239058494568
19.414137763977052
19.430588293075562
19.80572741508484
19.699488554000855
19.249110918045044
19.12684208869934
19.61368344783783
20.33467647075653
20.776284985542297
20.50391565799713
19.82601318359375
19.03574507713318
19.059121804237364
19.3869916677475
19.909704365730285
20.214894881248473
20.68946071624756
21.56834855556488
22.414548902511598
22.84240714073181
23.386871891021727
24.82740846157074
26.03426809310913
26.45619692802429
26.28817313671112
26.106069684028625
25.95569489479065
26.351151695251463
27.290194883346558
28.13334623336792
28.768203258514404
29.01446705341339
28.91457133769989
29.331155409812926
29.86277304172516
29.880150485038758
29.33987783908844
28.92440336227417
29.145150837898253
29.345971689224243
30.034502620697022
31.18865493774414
31.330764994621276
30.430310430526735
29.39387333869934
28.38319176197052
27.930303816795348
27.74924527645111
27.46327660560608
27.430196475982665
27.15392382621765
26.89011826992035
26.645681953430177
26.30790651321411
26.247057285308838
26.26833411693573
25.909930844306945
25.29826313972473
24.620962572097778
24.074201369285582
23.91828378677368
24.455575299263
24.585235919952392
24.374962520599365
24.0764009809494
23.576682629585267
22.683894538879393
21.61345872402191
20.76200665950775
20.18071660041809
19.467156953811646
18.08039813518524
16.582547159194945
16.045958242416383
16.247273135185242
16.249636077880858
16.042968788146972
15.519883985519408
14.816613821983337
14.265175404548645
14.035666942596436
14.08673279285431
14.387907338142394
14.207925133705139
13.85706392288208
13.636833243370056
13.523175125122071
13.372113614082336
13.090421075820922
12.569139413833618
11.507400856018066
10.382431540489197
9.99884117126465
9.977044920921326
9.722800183296204
9.736315016746522
10.130981378555298
10.532515292167664
10.706818776130676
10.817972798347473
10.772893886566163
10.716186366081239
10.719021677970886
10.833927693367004
10.787907180786133
10.610020680427551
10.495956978797913
10.323184895515443
10.244791522026063
10.172163233757018
9.978827772140503
9.572345461845398
8.98033127784729
8.450189189910889
8.13296953678131
8.131303305625915
8.413264260292053
8.825686049461364
9.176454505920411
9.449401159286499
9.618753695487976
9.827470593452453
10.084762020111084
10.170424246788025
10.208089413642883
10.292509918212891
10.365860204696656
10.353590598106384
10.227357730865478
9.959153122901917
9.600363187789917
9.308240017890931
9.142152462005615
9.036913561820985
9.005898785591125
9.073018503189086
9.141387219429015
9.17102623462677
9.271058139801026
9.394470291137695
9.67147373199463
10.022646884918213
10.214202265739441
10.347178845405578
10.482822566032409
10.556473507881165
10.385897688865661
10.122831015586852
9.972524509429931
9.945186095237732
9.890673260688782
9.936321783065797
10.21432023048401
10.94913157939911
12.28729616165161
13.942207007408141
15.404749937057495
16.543569617271423
16.85428026199341
17.28457717418671
18.94642382144928
21.550496549606322
24.563048548698426
27.621665787696838
30.920921678543092
34.248185181617735
36.29039430618286
35.88558398246765
37.31517159938812
39.22853452205658
40.9450414276123
42.315047764778136
42.95977073669434
42.838526496887205
42.5683319568634
42.33277497291565
42.075764279365536
41.91874779701233
41.8675879240036
41.9694288110733
42.17792330265045
42.3298944568634
42.399886226654054
42.49928703784943
42.68183504104614
42.92486480236053
43.1823722743988
43.38911793708801
43.42774244308472
43.38435859680176
43.58295192718506
43.74822935581207
43.70939482688904
43.588103327751156
43.51984474182129
43.37755985736847
43.247858934402466
43.361466174125674
43.558780937194825
43.871099891662595
44.42959189414978
44.84851321697235
44.7329225063324
43.95940328598022
42.73754951477051
41.426628789901734
40.266495037078855
39.41370443344116
39.24906428337097
38.92735810756683
37.4191701221466
35.09432606697082
32.52132647037506
29.944540438652037
27.09685562610626
24.02871533870697
21.953217639923096
22.0588228225708
20.285354981422426
18.19191286087036
16.27987576007843
14.630961847305297
13.733828415870667
13.765170884132385
14.044002132415772
14.154041638374329
14.2870175075531
14.513337912559509
14.768590846061706
15.050808029174805
15.380923914909364
15.731779351234437
16.04764181137085
16.32336821556091
16.535859575271605
16.63352123737335
16.61125624656677
16.472951111793517
16.312151641845702
16.394057321548463
16.209005808830263
16.004741134643556
16.182582006454467
16.74678164958954
17.316552815437316
17.77790368080139
18.267005882263184
18.854162921905516
19.364376316070558
19.136297965049742
19.073339257240296
19.29746922492981
20.021708993911744
21.384361686706544
22.95778944015503
24.20916477203369
24.857274441719056
24.771497378349306
24.76639602661133
24.444330611228942
24.862478404045106
25.808173928260803
26.588669962882996
26.622931241989136
26.234640674591063
25.84137718677521
25.972277398109437
26.289644894599913
26.30477541923523
26.524845037460327
26.88873924255371
27.247150716781615
27.392503428459168
27.140150232315065
26.991112174987794
26.972127590179444
26.857499055862426
26.561552700996398
26.355693426132202
26.14765571117401
25.86738646507263
25.70984228134155
25.701637139320372
25.483330903053282
24.925952310562135
24.433113360404967
24.00103488922119
23.816169533729553
23.84984275817871
23.76522704601288
23.63351948738098
23.46387438297272
23.297394466400146
23.134548563957214
23.002567830085756
22.88442537307739
22.452008638381958
21.61092671394348
20.913332290649414
20.863087739944458
20.514242701530456
19.92063214302063
19.015812873840332
17.57962464809418
15.821482605934143
14.193111352920532
13.240608186721802
13.265267477035522
13.351693634986878
13.817524819374084
13.638422303199768
12.902807984352112
12.075785202980041
11.755856204032899
11.885844826698303
12.209869298934937
12.099560713768005
11.794108901023865
11.791166462898254
11.525666103363037
11.122394576072693
10.88851155281067
10.829511961936952
10.931863279342652
10.793333230018616
10.878462195396423
11.173520298004151
11.538325653076171
11.86414864063263
12.25432819366455
12.646883482933044
12.810475468635559
12.756562228202819
12.776983013153076
12.90192913532257
12.840610184669494
12.901060981750488
12.94153012752533
13.008657312393188
13.078256964683533
13.135061497688293
13.061183404922485
12.694550132751464
12.26858371257782
11.81727129459381
11.536664962768555
11.709843587875366
12.204758195877075
12.657057962417603
13.092290525436402
13.526078634262085
13.962376017570495
14.33620665550232
14.561347951889038
14.641226615905762
14.647460222244263
14.681060938835143
14.699805636405944
14.654758701324463
14.418805360794067
13.893996534347535
13.222636799812317
12.805283875465394
12.691095457077026
12.655165753364564
12.49476453781128
12.340423860549926
12.473317880630493
12.91139817237854
13.455776076316834
13.980189056396485
14.323975672721863
14.757993097305297
15.396864361763
15.932589902877808
15.918894152641297
15.626612539291381
15.273619852066041
14.777752470970153
14.142990536689759
13.450194420814514
12.89192322731018
12.556125855445861
12.342475886344909
12.245956954956055
12.386873908042908
12.481739912033081
12.63857515335083
12.934094705581664
13.243707361221313
13.406693391799926
13.549792885780334
13.966397604942323
14.450768208503723
14.830691018104552
14.916022357940674
14.657131819725036
14.123777108192444
13.655595717430115
13.38516411304474
13.143191394805909
12.794977321624756
12.466522932052612
12.296463742256165
12.244090118408202
12.453599228858948
12.654758849143981
12.784695262908935
12.88559621810913
12.982991347312927
13.146143269538879
13.525385069847108
14.03685049533844
14.54424232006073
14.902488055229187
15.132900085449219
15.222604055404663
14.979335460662842
14.632421255111694
14.140325999259948
13.61838888645172
13.163083562850952
12.575549516677857
11.879162192344666
11.397104516029358
11.255942759513855
11.309657683372498
11.491393570899964
11.76382074356079
12.06748276233673
12.43648530960083
12.781676688194274
13.011512184143067
13.24488383769989
13.578078308105468
13.813350400924683
13.88965732574463
13.665030841827393
13.417182350158692
12.972821736335755
12.599226899147034
12.3237242603302
11.904734897613526
11.415975904464721
11.127835988998413
11.100648369789123
11.204486770629883
11.44029411315918
11.672673735618591
11.771162648200988
11.76664355278015
11.812572355270385
11.94149709701538
12.087092652320862
12.281478490829468
12.35508906841278
12.265678420066834
11.923357162475586
11.586688690185547
11.33093563556671
11.145444931983947
10.815769567489625
10.340739374160767
9.976569051742553
9.765034818649292
9.677237148284911
9.743382663726807
10.03479506969452
10.226031370162964
10.47078519821167
10.860677824020385
11.297829313278198
11.713983426094055
11.981638550758362
12.079348430633544
12.148891582489014
12.216047067642211
12.130893249511718
11.887197175025939
11.58484869003296
11.238918747901916
10.88022952079773
10.50800398826599
10.195331449508666
10.023313736915588
9.920343832969666
9.925288214683533
10.17364531993866
10.362664504051208
10.703739237785339
11.035105619430542
11.297807569503783
11.561144094467164
11.769149537086486
11.84112621307373
11.75305874824524
11.551959710121155
11.338756031990052
11.02042221546173
10.670783624649047
10.412204990386963
10.112100105285645
9.891212992668152
9.686667141914368
9.573611702919006
9.50429015159607
9.545252718925475
9.838060483932495
10.191950187683105
10.711772394180297
11.3330810546875
11.875415539741516
12.217199726104736
12.34144464969635
12.352555589675903
12.25159791946411
11.995227508544922
11.73311499118805
11.585094075202942
11.377718715667724
11.057256608009338
10.624922890663147
10.199411821365356
9.880224804878235
9.762845859527587
9.916729192733765
10.243762454986573
10.582099795341492
10.864860429763795
11.079148211479186
11.350118436813354
11.741156659126283
12.19350383758545
12.510856003761292
12.587177042961121
12.580187635421753
12.588754558563233
12.462906880378723
12.121505460739137
11.779954795837403
11.458743796348571
11.205692958831786
10.942283701896667
10.800946559906006
10.768399119377136
10.887536945343017
11.183186259269714
11.516278810501099
11.850329070091247
12.081893482208251
12.213240747451783
12.449592752456665
12.594268436431884
12.689668421745301
12.753121590614318
12.870136480331421
12.954871649742126
12.81703010559082
12.425082750320435
12.095303525924683
11.77797899723053
11.44127972126007
11.094751424789429
11.155976276397706
11.369726023674012
11.530621376037598
11.73809681892395
12.04270049571991
12.287250909805298
12.493115148544312
12.703756828308105
12.99326096534729
13.321695013046265
13.642426977157593
13.810988273620605
13.621387243270874
13.177112483978272
12.746550626754761
12.425203709602355
12.199678907394409
11.906377673149109
11.463898777961731
11.024748368263245
10.749054517745972
10.635039620399475
10.565766229629517
10.511920919418335
10.616448740959168
10.94411039352417
11.317106280326843
11.767212762832642
12.197371029853821
12.54585268497467
12.697179212570191
12.849414329528809
12.965754008293152
12.832509851455688
12.488264064788819
12.225592641830444
12.001677474975587
11.832852401733398
11.611727061271667
11.417830953598022
11.45522050857544
11.601765904426575
11.58929117679596
11.453257932662964
11.468882822990418
11.710133533477784
11.764889755249023
11.719953265190124
11.810574493408204
12.074761428833007
11.952000017166137
11.5941082239151
11.261510438919068
11.025373945236206
10.723337316513062
10.31395724773407
10.081174597740173
9.878796057701111
9.581565499305725
9.34733850955963
9.156975803375245
9.050709052085876
9.145832285881042
9.463618245124817
9.874610857963562
10.242947216033935
10.560168304443359
10.993036284446717
11.426060304641723
11.495510601997376
11.711218843460083
11.875774712562562
11.782884845733642
11.627859148979187
11.453209567070008
11.325626301765443
11.462483100891113
11.494560980796814
11.347942790985108
11.366808090209961
11.511051330566406
11.394806966781616
11.091324868202209
11.048860731124877
11.295751872062683
11.451845211982727
11.609525723457336
11.790769400596618
12.000947165489197
12.17808557510376
12.153897380828857
11.89167682647705
11.61273847103119
11.4604966878891
11.261786642074584
11.063956356048584
10.812978754043579
10.472480640411376
10.155336408615112
9.882108387947083
9.757774424552917
9.840089316368102
10.03979034423828
10.234643731117249
10.433244585990906
10.700812125205994
10.866653923988343
11.078695073127747
11.41647933959961
11.731234226226807
12.041245331764221
12.22290602684021
12.150078191757203
11.890590109825133
11.587287693023681
11.261445970535279
11.047610177993775
10.686463332176208
10.342172298431397
10.503778834342956
10.452808918952941
10.16584671497345
10.334234352111816
10.34725769996643
10.621153244972229
10.830847930908202
10.624375081062317
10.660309338569641
11.062725076675415
11.203115854263306
10.978159260749816
10.862637677192687
10.888511924743652
10.807771229743958
10.576672449111939
10.374463806152344
10.319473061561585
10.219603686332702
9.991208701133727
9.856050515174866
9.718877692222595
9.856847476959228
10.205387268066406
10.532582516670226
10.799997253417969
10.981584777832031
11.278401865959168
11.721788115501404
12.121893658638001
12.425825123786927
12.51388955116272
12.357431955337525
12.110488595962524
11.90546392440796
11.687419095039367
11.434267301559448
11.200253291130066
10.9259117603302
10.615274014472961
10.235743708610535
9.950913686752319
9.967368454933167
10.23682650089264
10.50849371433258
10.703886694908142
10.973081212043763
11.154422664642334
11.372257223129273
11.61785882472992
11.727672944068908
11.789153237342834
11.93918378829956
11.818725099563599
11.954257283210755
11.752668676376343
11.338865418434143
11.05795090675354
10.546608929634095
9.884552354812621
9.486779656410217
9.286737480163573
9.439335217475891
9.759220843315125
10.04370481967926
10.325171647071839
10.679385948181153
10.954963674545288
11.197185506820679
11.547265768051147
11.847309007644654
12.155383472442628
12.139868373870849
11.75795590877533
11.469594831466674
11.318071842193604
11.172282390594482
10.878211092948913
10.444854292869568
10.127719078063965
9.905512990951538
9.853875055313111
10.021721320152283
10.263096008300781
10.45438311100006
10.686309666633607
10.975110311508178
11.214163584709167
11.414207239151
11.5414688539505
11.639767274856567
11.664493403434754
11.587380113601684
11.441400394439697
11.229118332862853
10.93409330844879
10.645170063972474
10.482733101844788
10.418943877220153
10.311921682357788
10.0881240940094
9.789139895439147
9.770561547279359
9.881462497711182
9.94578697681427
10.02231146812439
10.220604815483092
10.431481213569642
10.899315271377564
11.486373152732849
11.78692057132721
11.79628396511078
11.519263200759887
11.57201446056366
11.967347331047058
11.701361050605774
12.502515134811402
14.179853014945984
16.136407775878908
18.265849938392638
20.773940806388854
23.37541205406189
25.38691798686981
26.57780577659607
26.853503675460814
26.987764043807985
27.451148476600647
27.745023188591002
27.846600227355957
28.018947148323058
28.440152220726013
28.735163798332213
28.70402859687805
28.700758819580077
29.07417634963989
29.682809953689574
30.283765664100645
31.033790550231934
32.243338828086856
33.79538219451904
35.08608689785004
35.64357126235962
35.62110366344452
35.40404382705688
35.526917595863345
36.095058336257935
36.44751352787018
36.922935376167295
38.254248723983764
40.2219571685791
43.00170653343201
46.37770855903626
48.20457002162934
49.65146522045136
54.644287223815915
60.17166557788849
64.01212858200073
66.69680038928986
69.45755689620972
72.86791393756866
77.29014419078827
82.2711242198944
85.98049439430237
86.89936601161956
86.75377941608429
88.23955842018127
89.20927945137024
89.78787577629089
89.81874081134796
88.55390319347381
86.14686583042145
83.97703361034394
83.00739577293396
82.92611500740051
83.40679071903229
84.22894748210906
85.21471807956695
86.6045656490326
87.60749468326568
87.72598489284515
88.80053734779358
89.81700463294983
90.07331385612488
89.83371607780457
89.69328225612641
90.19788931369781
91.03815017223359
91.8715272808075
92.89291372776032
94.42426290035247
96.70348159790039
99.6743480014801
102.20787564754487
102.7734257555008
104.03218193531036
105.70708399295808
107.52732875347138
109.11262806892395
109.91209739208222
110.05869976997376
109.0436942100525
106.9646906709671
105.82741184711456
104.67638814926147
99.80005209445953
94.42380294799804
90.75128095626832
87.8661240720749
84.95718752861023
81.65497662067413
77.6611877298355
73.3967259979248
70.35764136314393
69.6991801071167
69.75668472290039
68.53760795593261
66.43623428344726
64.16225890636444
62.29425535678863
61.49955276966095
61.45257318019867
61.04035715103149
59.86137292861938
59.263422412872316
59.15554259777069
58.914419193267825
58.29762487411499
57.53083860874176
57.356050119400024
57.8815278339386
57.203257536888124
56.542627325057985
56.56658168315887
56.59782912254334
56.455592370033266
55.61553816795349
54.374727716445925
52.905187821388246
50.79972984790802
47.95590487957001
44.670912070274355
41.119341974258425
38.731838150024416
38.95034752845764
38.174462156295775
36.29283927440643
34.31639545917511
32.31048313617706
29.974120445251465
27.738260679244995
25.84686737060547
24.804457936286926
24.3848516702652
24.282676973342895
24.12889669895172
23.812844738960266
23.454137001037598
23.402906618118287
23.149417781829833
22.573737030029296
21.98858854293823
22.1564080953598
22.76273129463196
23.458777613639832
24.084631633758544
24.506168909072876
24.56723162174225
24.29925917625427
23.844915099143982
23.54142909526825
23.319630584716798
23.11615503311157
23.147196497917175
23.03576684474945
22.882362909317017
22.466473140716552
21.620909075737
20.633170914649963
19.722974758148194
18.925741834640505
18.209516339302063
17.63162244796753
17.334924073219298
17.33311970233917
17.213070454597474
17.09464168071747
16.79889873981476
16.76533137798309
17.30420603275299
17.98496596336365
18.478104124069215
18.87170582771301
18.798162875175475
18.213992409706115
17.56797152042389
17.24927697658539
17.274418148994446
17.415661649703978
17.746650161743165
18.03536985874176
18.46156264305115
18.603482394218446
18.391314063072205
17.973834180831908
17.78486406803131
17.877210512161255
18.170063300132753
18.53641975402832
18.662847800254823
18.66650520801544
19.09092966556549
19.048591504096986
18.456859493255614
17.21028856754303
16.643916878700256
17.555727934837343
19.889919652938843
22.564605417251588
24.995505847930907
26.480313029289245
26.950549683570863
26.85955341339111
27.31380205154419
27.810826110839844
28.11077751159668
28.149171438217163
28.06323085784912
28.341644678115845
28.705316820144652
29.02845645904541
29.19933844089508
29.20375015735626
29.13860451221466
29.147770533561708
28.966583008766175
28.759630460739135
28.964534330368043
29.12857669353485
28.685141191482543
27.91117607116699
27.325274353027343
27.145729460716247
27.100133748054503
26.902158818244935
27.031271286010742
27.407138862609862
27.810534873008727
28.280323038101198
28.83986015319824
29.411777606010435
29.82461061477661
30.009707074165345
30.063936824798585
30.04585694313049
30.22174068927765
30.605571751594542
31.0788867521286
31.551150007247927
32.15507699012756
32.5444922208786
31.873463740348814
31.712260270118712
32.017022914886475
32.76475821018219
32.883846321105956
32.045778164863584
30.385174913406374
28.402916841506958
26.785126214027404
25.92293382167816
25.863128595352173
26.37878116607666
26.2943772983551
25.533279032707213
24.94275085926056
25.40743953704834
27.01677927494049
28.68742687225342
29.813791232109068
29.982402591705323
29.740881638526915
30.38952003955841
32.10512466430664
34.71374454021454
37.37902092933655
39.04373074054718
39.5684787940979
39.5560380935669
39.59781789302826
39.73339559555054
39.81070149421692
39.96259241580963
40.19916682243347
40.27674518585205
41.09661039829254
42.82586123466492
45.34985292911529
47.780082063674925
49.00425501346588
48.92501550197601
48.21141489982605
48.483925166130064
50.91804362773895
54.96257016181946
57.88884610176086
57.93086245536804
58.31716613769531
58.4940084695816
57.842939376831055
57.53750470638275
57.75545650482178
57.376622972488406
57.16878963470459
56.3936289358139
57.26925892353058
59.67539543628693
62.017846460342405
63.19389820098877
63.67681907653809
64.50349663257599
65.47415125370026
65.11832688808441
66.58733450889588
69.32521527290345
70.9407417678833
70.33030044555665
69.02913139343262
67.17628456115723
66.3491363477707
66.4619087266922
66.64650923252105
65.75507973670959
64.27651217937469
62.317082924842836
60.73588128566742
60.334442553520205
60.70830913066864
60.78554804325104
60.31273028373718
60.01256628513336
60.05706411838531
60.55869807243347
61.30144588947296
61.97831048488617
61.09020345687866
59.07630853176117
56.272026777267456
53.54992918491364
51.954368529319765
51.64884433746338
52.2188242149353
52.16307822704315
50.12606451034546
46.4446341085434
43.371999564170835
43.052990536689755
42.40441061019897
42.09641408920288
42.8915860748291
43.68944110870361
44.29397838115692
44.41897111415863
43.647658944129944
44.15315544128418
43.483887572288516
41.03127381324768
38.241915907859806
36.51223216056824
35.38375593662262
33.8261695098877
32.26797659873962
32.464609909057614
31.208094449043273
29.0707985162735
28.55545786380768
30.669478058815002
32.78754711151123
34.044632697105406
33.81530589580536
33.19646888256073
33.18096480846405
34.363604979515074
35.96300068855285
37.071967492103575
36.43822382926941
35.9719044303894
36.59574583053589
38.54424624919891
41.60562480926514
44.34281974792481
45.62093312740326
45.03618938446045
44.10403311252594
43.95091073989868
44.614256143569946
45.49132097244263
46.37709880828857
47.18515969276428
47.79418087482453
48.16977808952331
48.35135087966919
48.289699273109434
47.8082186126709
47.93469377040863
48.76996675014496
49.31247143745422
49.464146795272825
49.56149956703186
49.6386914730072
49.60911746025086
49.53269302845001
49.465291447639466
49.56289691448212
48.96310812950134
48.167378792762754
47.86186531066895
48.1606386756897
48.61284097194672
49.107041840553286
49.757003259658816
50.236920104026794
49.96936209201813
49.448828811645505
48.927191100120545
47.90717465877533
46.10051678657532
44.352281308174135
43.72238844871521
44.17206065654754
45.020244812965394
45.30909489631653
44.33243977069855
42.453901777267454
40.72304451465607
40.24802927017212
39.487424783706665
38.028404641151425
36.01046364784241
33.295771412849426
30.573841557502746
28.884416661262513
28.52366937160492
28.627763028144837
28.715406017303465
28.621745028495788
28.32807590484619
28.17731960773468
28.209663887023925
28.101889452934266
27.758080797195433
27.364859013557435
27.158102927207945
27.473945231437682
27.439010634422303
26.821456179618835
26.323286728858946
26.60712124347687
26.906750507354737
26.671857833862305
25.997934436798097
25.23680842399597
24.963253712654115
24.90444423675537
24.88790891647339
25.295236039161683
25.96525146961212
26.3479070520401
26.46833718776703
26.527482895851136
26.149863052368165
26.11729284286499
26.741680130958557
26.74958216190338
27.32153043270111
28.400364837646485
29.476864333152772
30.324403071403502
30.64825545787811
30.18406364440918
29.31187611103058
28.855025000572205
28.93579008102417
28.900085139274598
28.993455281257628
28.993261771202086
28.957002172470094
28.478160467147827
28.415868916511535
28.555179715156555
28.61675395965576
28.71224479675293
28.860184650421143
28.57910837173462
28.085812087059022
27.63120813846588
26.890023474693297
26.047633929252626
24.85605055332184
23.81815390110016
23.327602524757385
23.201650142669678
22.998053631782533
22.510162825584413
22.203055362701416
22.168993158340456
22.319372153282167
22.23369246482849
22.144355483055115
21.75035650730133
21.924929604530334
22.72454691886902
22.721708312034608
23.01633452415466
23.069402933120728
22.48671739578247
22.275461406707763
23.075057954788207
23.834151048660278
23.471657695770265
23.560524950027467
23.30778968334198
22.65466648578644
23.299243521690368
23.978829498291017
23.750612897872927
22.581705222129823
21.17672878742218
21.14804636478424
22.634413504600523
24.602223892211914
25.702078833580018
25.75841555595398
25.7824085187912
25.928143200874327
26.301933116912842
26.32250506401062
26.452750482559203
26.213957843780516
25.915458526611328
25.773243827819826
25.967540864944457
25.978488602638244
26.1080011510849
26.873183164596558
28.0165114402771
29.095270853042603
28.845656433105468
30.1276452255249
32.986896271705625
36.68361083984375
40.11278497219086
42.83056000232696
44.93817950248718
45.82312605857849
46.03295825481415
47.6492004442215
49.41863379001617
50.333034529685975
51.06363235473633
51.57943821907043
52.10141035079956
53.250228152275085
53.60808451652527
53.84737898349762
54.332736439704895
54.054173622131344
52.6480427980423
53.589944109916686
57.15290165424347
60.09541850566864
61.01635093688965
61.63326716899872
61.788456954956054
60.617811040878294
59.3960896396637
58.956366200447086
59.05811756134033
58.2680015039444
56.366058101654055
54.398290719985965
53.27973133563995
53.22944881439209
53.59779583930969
53.63747699260712
53.362242617607116
53.123973817825316
53.06885640621185
53.222466263771054
53.5430410194397
53.815019669532774
53.49612554073334
53.55656056880951
53.92869504451752
53.761761193275454
53.0964582490921
52.75315555095673
53.78792402267456
53.651008257865904
51.91951788902283
48.8072709941864
45.35161776542664
42.51748076915741
40.57060031890869
39.511776652336124
39.40644530773163
38.02961403369903
36.20167814254761
35.046066236495975
34.75904275894165
34.75043190956116
34.61911217212677
34.68069740772248
35.55678016662598
36.84936834335327
36.87247997283936
37.7362869310379
40.78666957855225
42.837180409431454
43.81302826404571
44.901391220092776
46.42487401485443
46.054952387809756
46.29558399677276
47.567889261245725
48.95308948040009
50.089794478416444
51.01354413986206
51.89753541946411
52.91823523521423
53.705150518417355
54.06333699703217
53.82667399406433
53.5541361951828
53.48967007637024
53.5942507314682
53.65324938774109
53.60648982048035
53.298589272499086
52.86745514392853
52.77695271968842
52.90588936328888
52.74869338989258
52.266292214393616
51.839052443504336
51.984215178489684
52.14037506103516
51.64796420097351
50.706163816452026
50.07761878490448
50.11391880035401
50.49286091804505
50.66745717048645
50.53538111209869
50.841512784957885
50.71660493373871
50.05439674377441
49.50745578765869
49.12572552204132
48.739248127937316
48.10789451122284
47.29229907512665
46.582020506858825
45.95788243293762
45.27002251148224
45.087599873542786
43.68727913856506
40.29270748615265
35.94301443099975
31.471400918960573
27.475563311576842
25.128708329200744
25.004116706848144
23.934736800193786
22.45158992767334
21.201948981285096
