0.010150300565874204
0.010138209870783612
0.010116017465479672
0.010094822810497135
0.010078641677973793
0.010082489422056824
0.010111184353008866
0.010141409094212578
0.010150678786449135
0.010139182845596223
0.010135181016521529
0.010168427473399789
0.010226620855974033
0.010268891718005761
0.010271002743393183
0.010247735509183257
0.010228120618266985
0.010212054137373344
0.01019674954470247
0.010206878003664314
0.010249023248907179
0.010291175950551406
0.010305623813765123
0.010301638875389471
0.010303481314331293
0.010315608838573099
0.010331747274613008
0.010343894973630086
0.010335898915072902
0.01030505190952681
0.010275588041404262
0.010271854301681742
0.010292007070966065
0.010313916478771716
0.010320879148785024
0.010313729793997481
0.010302316381130367
0.01029916935483925
0.010308742066845298
0.010316627132706344
0.010309736778726802
0.010293437079526483
0.010273996297037229
0.010246828083181754
0.01021691799396649
0.01020795971620828
0.010226056752726436
0.010246699377894401
0.010259691316168756
0.01028320188052021
0.010323864673264325
0.010362650054739788
0.010384302118327469
0.010397120240377263
0.010414009328233078
0.010424039997160435
0.010409738167654723
0.010383546277880669
0.010365230027819052
0.010347771284868941
0.010326835485175252
0.01032127220532857
0.010335767682408913
0.010350581865059211
0.010351845225086436
0.010332825500518084
0.010296440575039013
0.010274518742226063
0.010288539994508027
0.01030511422199197
0.010289583711419255
0.010265517357038335
0.010270814106334
0.01029590932186693
0.010307059471961111
0.010295978534268216
0.010277207583421842
0.010268932076869533
0.010277662521693855
0.010285073171835392
0.010272567799547687
0.010243987661087885
0.01021668381174095
0.010210285526700318
0.01021792474319227
0.010207935136277229
0.010181905230274424
0.01017004917259328
0.010173259583534672
0.010174701608484611
0.010175509529653936
0.01017931937938556
0.010181266420986504
0.010185238290578127
0.010197964339749888
0.010211252756416798
0.01021696210023947
0.010221586513798684
0.010236031190725043
0.010264464729698376
0.010290567633928731
0.010293380855582655
0.010286230323836208
0.010288639272330329
0.010285132711287589
0.010264580969233066
0.010248486521886662
0.010253024614648894
0.010272374626947568
0.010290581764420494
0.01028570465510711
0.010267201522365212
0.010278129627695308
0.010309742606477813
0.010312735245097428
0.010299740174086764
0.010312507733469829
0.010336342306109145
0.010338324485346675
0.010322624649852515
0.010307587129063904
0.010300423137377947
0.010300250824075192
0.01029915717546828
0.0102874234423507
0.010261707111494616
0.010229458438698203
0.010210302892373875
0.010214531124802306
0.010221420851303264
0.010206196389626712
0.010177985797636211
0.010164158606203273
0.010174452903447673
0.010200817307922988
0.010231502189999447
0.010250802030786871
0.010244530972559006
0.010216243760660292
0.010189261377090588
0.010189833531621844
0.010215448475209997
0.010226575921988114
0.010198932505445554
0.010160885524237528
0.010150332624325529
0.010164404126117006
0.010181615680921822
0.010203584054252132
0.010235747330589219
0.010255221318220719
0.010237373494310304
0.010192910379264503
0.010154631779296324
0.010147403299342841
0.010171738951466978
0.010203658050158992
0.010222083441913127
0.010226872864877804
0.010228384640067817
0.01023826071061194
0.010255594975315035
0.010259790412383153
0.01024276960408315
0.01022897191112861
0.01022897267015651
0.010215350528014824
0.010184523710049688
0.010171923710731789
0.010179478009231389
0.010178363181184978
0.010174615250434726
0.01018799571087584
0.010200378744630144
0.010186396578792483
0.01016638721106574
0.010178017494035884
0.010212300019338727
0.010230870466912165
0.010221844631014393
0.010200315326219424
0.010188879909692332
0.010202199151972308
0.010228673930978403
0.010246861694613472
0.010252682756399735
0.010252167781582102
0.010257120107999071
0.010283120259409771
0.01031992723699659
0.010339428667211905
0.010341653063660488
0.010339590954827145
0.010321963716996833
0.010286638383986428
0.01027160339173861
0.01029672077158466
0.010322428272338584
0.01031522742821835
0.010301018860191106
0.010321939184796064
0.010371453028637916
0.010405328233027832
0.01041530973277986
0.010423925542272627
0.010423668589210138
0.010406775611918419
0.010393003433709963
0.010393020572373644
0.010403899087104946
0.01041236266726628
0.010402676988160237
0.010384515080368147
0.010373100872384385
0.01036506877397187
0.010359489627880976
0.010365269590402022
0.010382475887890905
0.010394369954010472
0.010387430407572538
0.01036927235778421
0.010352668830892071
0.01033960196073167
0.010326537195360287
0.010313391742529347
0.010305568809853867
0.010304938743356615
0.010308205549372361
0.010316177572822199
0.01032987582613714
0.010340668904827908
0.010339304915396497
0.010328816015971824
0.010315710696158931
0.01030578752863221
0.010310630121966823
0.01033301159623079
0.010358996544964612
0.010372571613406762
0.01035914476495236
0.01031692263437435
0.010276898829033598
0.010277751634130255
0.010319528960390017
0.010365105672972276
0.0103844222787302
0.010382708305260167
0.01038167476770468
0.010385419348021969
0.010380141912028193
0.010358950935769827
0.010333876491058618
0.010323791593546048
0.010328585656825453
0.010336759900674224
0.010357554437359796
0.010396306997863576
0.010426086729858071
0.010434190888190642
0.010444933351827786
0.010466416766867041
0.01047033074661158
0.01044185446226038
0.01040103735984303
0.010375383204082027
0.010380604710662737
0.01040625463007018
0.010423463683109731
0.01042764976155013
0.010445658530807122
0.01048343880684115
0.010505007539177314
0.010485482073854656
0.01044617489213124
0.010421348829986528
0.010421524152625351
0.010436245360178873
0.01045254064607434
0.010469350303756073
0.010495527917519211
0.010527483166661113
0.01054594128509052
0.010536778008099646
0.01050676102284342
0.010482488877605646
0.010475793591467664
0.010473822939675302
0.010480692649725825
0.01050688240211457
0.010528053359594195
0.010517688774270936
0.010493090191157534
0.01048670625546947
0.010494264754233882
0.010491493084700779
0.010482669768389314
0.010489334029844031
0.010512741492129862
0.010526834861375392
0.010506819620495662
0.010469196386402473
0.01044704111176543
0.010436911429278552
0.010425176915014163
0.010423899252200499
0.010439739794237539
0.01045300945872441
0.01044562080525793
0.010422564060427249
0.01039865646045655
0.010387653694488108
0.010399826030479745
0.010428447452140973
0.010456588752567768
0.010476057066116483
0.010482774199917912
0.010473940799711272
0.010457882249029353
0.010442794071277604
0.010423431003000588
0.010400048290612175
0.010382149757351727
0.010375715227564797
0.010387440180638806
0.010409218145068734
0.010420003146864474
0.01042737150681205
0.010453825555741788
0.010491249092156067
0.010515137271722779
0.01052110558259301
0.010521385396132246
0.010518579912604764
0.010508152385009453
0.01050088957301341
0.01051132442895323
0.010532261522021144
0.010546687927562743
0.010554807388689368
0.010561115235323087
0.010551963329780846
0.010522383109200745
0.010492203189060093
0.010478545738151298
0.010484158386243508
0.010502109859371557
0.01051487541408278
0.010501478696241975
0.010465779943624512
0.010441165659576654
0.010444713636534288
0.010465243231737986
0.010493402889696881
0.010521301599219442
0.010537496422184631
0.010540299272397533
0.010531556671485304
0.010505708077689633
0.01046514870831743
0.01042632910888642
0.010399769190698863
0.010387394945137202
0.01039847659994848
0.010431276307208463
0.010446517346426844
0.010418736798455938
0.010391033015912399
0.01040600897395052
0.010435140344779938
0.010439482876099646
0.010428576893173159
0.010423609338467942
0.010420159181812778
0.010409493074985222
0.010404318404616787
0.010410992670804262
0.010408194632036611
0.010387329678051173
0.0103689120314084
0.010368741439888253
0.010384575844509527
0.010403638517018407
0.010411727846367284
0.010405007995432243
0.010391994439996778
0.010382749607088045
0.01037164869834669
0.010341246231691912
0.010293949802871794
0.010250961378915235
0.010213739216560498
0.01017482926370576
0.010157345334300771
0.010182264726608992
0.010218018537852914
0.010216547516174615
0.010183276005554943
0.010165605348302052
0.010177895571105182
0.010189098169794306
0.010179182282881812
0.01016277935821563
0.0101568474015221
0.010151090581202879
0.010139012659201398
0.010145348276710138
0.010175725668668747
0.010203231858322398
0.010221546799875796
0.01024126891279593
0.010256584597518667
0.01025582387112081
0.010243796649156138
0.010240227649919689
0.010255133188329636
0.010278837650548666
0.010304477965692059
0.010335560644743964
0.010366894823964684
0.010382704302901401
0.010375923140672967
0.010359171924646944
0.010351269136881456
0.01035189256654121
0.010344963849056511
0.010322634327458217
0.010289214216172696
0.010260494862450287
0.010252912492724135
0.010258178643416613
0.01026082708965987
0.010268474790500477
0.010287187660578638
0.010299105533631519
0.010296076682861895
0.010294599639018997
0.010294743428239599
0.01027971953037195
0.010262538122478872
0.010271961140679195
0.010299840805819258
0.010311474195914343
0.010299620021833107
0.010288128259126096
0.010288869767682627
0.010296117453835905
0.01030888750916347
0.010321858240058646
0.010322305136360227
0.010315316655905918
0.010316158530768007
0.010321917255641893
0.010323777893790975
0.010324986492050811
0.01032294456847012
0.010307484214426949
0.01028746277326718
0.010276125153759495
0.01026059795054607
0.010231768691446631
0.010209744286257774
0.01020779826096259
0.010215814796974882
0.010228282851167024
0.010249759488506243
0.010269291806034744
0.010260604890063404
0.010226410593604669
0.010207332200370728
0.010217352451290936
0.010223717803601175
0.01021114117000252
0.010204167193733156
0.010220102753955872
0.010246778331929818
0.010266924388706683
0.010273647316498682
0.01026664165663533
0.010251501731108874
0.010227111008716747
0.010182201410643757
0.010136116502108052
0.010140648179221898
0.010197383910417556
0.010244059612741694
0.010255471036070957
0.010264168516732753
0.010280392447020859
0.010282835598336532
0.010269618475576862
0.010263556439895183
0.010275882788700983
0.010287649228703231
0.010285803240258247
0.010288357753306627
0.010301827548537403
0.010306632691062988
0.010301006031222642
0.010303816323867067
0.010317163405707106
0.010328421607846394
0.01034221719368361
0.010368436897406354
0.010388596291886643
0.01038561353692785
0.01037718659848906
0.010382760794600472
0.010403190313372761
0.010428881659172475
0.010441580693004653
0.010434015454957262
0.010418527397559956
0.010402300242567435
0.010381375092547386
0.010360940584214405
0.010353956976905465
0.010359871800756083
0.01036420467775315
0.010364093258976937
0.010375300537561997
0.010402664178982376
0.010437589718494565
0.01047084762598388
0.010478980420157314
0.010457624794216826
0.010446179108694196
0.010459946289192884
0.010466120078926906
0.01044465156737715
0.010419713953742757
0.01042390355374664
0.010449170400388539
0.010470335802529008
0.010487740917596966
0.010500780686270446
0.01049405405530706
0.010471277771284804
0.010459371429169551
0.010470477644121274
0.010491557164350525
0.010514696632744744
0.010541422893293202
0.01056763798929751
0.01058375132153742
0.010579104603966698
0.010553571142954752
0.010528018799377606
0.01052385212155059
0.010526812575990334
0.010513637097319587
0.010500801170710474
0.010498742531053722
0.010484370911726729
0.010464024182874709
0.010458916438510641
0.010447959838202223
0.010421043554088101
0.010413312769960612
0.010435970079852268
0.010464101245161147
0.010487353212665767
0.010504010503645987
0.010500899888575077
0.010484129240503536
0.010488746885675937
0.010519101012032479
0.010529117935802787
0.010493561860639601
0.010446270215325057
0.01042674827738665
0.010432955045253038
0.010444442852167413
0.010453463218873367
0.010457578311907127
0.010452824092935771
0.010448335278779268
0.010462222434580327
0.010488378189038486
0.010501677626743913
0.0104988641734235
0.010496067878557369
0.010501578298863024
0.0105129930912517
0.010524467393988744
0.010532265048241243
0.010542432883521542
0.01057005939888768
0.010618633851408958
0.010669932012679056
0.010706169791519641
0.010725306962849573
0.010727615039795637
0.010706289523513988
0.010670982494484633
0.010657249049982056
0.01067705569206737
0.010699551303405315
0.010708533111028373
0.010723017504205927
0.010750727606937288
0.010769468449288978
0.010762058135587721
0.01074246341479011
0.010730873869033531
0.010723173562437295
0.010708388548810035
0.010691808592528105
0.010677864879835398
0.01065836664289236
0.010637981325853616
0.010637180249905214
0.01065686347312294
0.010677492130780593
0.010690101643558592
0.010702284247381613
0.010717598940245807
0.010719997591804713
0.010697750478284434
0.010670389777515084
0.010659734002547338
0.010657205906463787
0.010640856566606089
0.010608590040355921
0.010591666381806135
0.010614463886013255
0.010647847388172522
0.010661280548665672
0.010669310599332675
0.010676062174607068
0.010667994571849703
0.01065679408959113
0.010646923360181972
0.010623416068265215
0.010603516269475222
0.010610253924969584
0.010619931793771685
0.010612178323790432
0.010605722969630733
0.010615656906738878
0.010638364321785047
0.01066457039793022
0.010689127107616514
0.010722751144785434
0.010782140144146978
0.010871838831808417
0.01096725593903102
0.011022175672696904
0.011030421237228439
0.011043261373415589
0.011082645141286776
0.011083253093529493
0.011083507566945627
0.011135577766690403
0.011127381079131738
0.011089344175998122
0.011127206837991253
0.01121704829391092
0.011253468218492345
0.01121747489203699
0.011281669158488512
0.011400007999036461
0.011511535877361893
0.011577098311390728
0.011607260820455849
0.011623846713919193
0.011625115833012387
0.011615498944884166
0.011613078267546371
0.011614959873259067
0.011615158239146694
0.011641509195324034
0.01172433990985155
0.011846144095761702
0.011956311209360138
0.01202441547298804
0.012056317045353353
0.01206658934126608
0.012038261336274446
0.01204890186432749
0.012089282321976497
0.012100842234212905
0.012112186183221638
0.01214344096602872
0.012152221912983804
0.012160208420827984
0.012170169666642323
0.01216561257489957
0.012148846797645092
0.012130294819362461
0.01212572398595512
0.012170463966904209
0.012291059099370614
0.012457813165383413
0.012598401003051549
0.012664337467867881
0.01266393747413531
0.012624109502648934
0.012598004108294845
0.012703985383268446
0.01293946331134066
0.013144312544027344
0.013150711122434586
0.013199450365500525
0.013262810666346922
0.013311197290895506
0.013381454831687734
0.01346411687321961
0.013508067119400948
0.013498666288796812
0.01347389598027803
0.013466894110897555
0.013486548516666516
0.013529709553113207
0.01358260911074467
0.013642808375880121
0.013718093429924921
0.013796283488627523
0.01387110929354094
0.01395740693085827
0.014033208518521861
0.014053992008557543
0.01403236151440069
0.014008881148183718
0.013971145729301497
0.013971281190169976
0.014049235453130677
0.01413891216274351
0.014194955598795786
0.014227868841262535
0.014233239301247522
0.014211858004564419
0.014298618469620123
0.014442408001050353
0.014558066851459444
0.014634138278197498
0.014717161156004294
0.014815973190125079
0.014864304411457852
0.014800233143614606
0.01478478724253364
0.01474694081582129
0.014719601704273373
0.014686875180341303
0.014671921805711464
0.014759080174844712
0.014943675409303978
0.015100556153338402
0.015136685247998685
0.0151133571669925
0.015092809787020087
0.01509560163365677
0.0150988617783878
0.015099391364492476
0.015091409343294799
0.015082709217676894
0.015089574569137766
0.015096267038024962
0.015110552804544567
0.015170488179428503
0.015233932301634922
0.01523109030094929
0.015201640161685646
0.015220743763493375
0.015267686609877273
0.015266764767002314
0.01518316644593142
0.015258987615816295
0.015474323179805651
0.015676955592352895
0.015738074475666507
0.0157116660324391
0.015734230441739782
0.01576302598346956
0.0157847699848935
0.01580205904552713
0.015841366255190222
0.015925148621900007
0.016024153843754902
0.016081055558752267
0.016076440744800493
0.016055382721824572
0.016086476476630196
0.016189579183701425
0.016326861197594553
0.016471740239067004
0.016633931399555876
0.01680202630115673
0.016938676601275803
0.017057555106002837
0.017209111825795844
0.017355116774560884
0.017384489387040958
0.017401120867580177
0.017379367871908472
0.017342992890626192
0.01741251646191813
0.01771873866324313
0.01802111936383881
0.01802775310818106
0.018174607548862697
0.018279192151967435
0.018357493594521657
0.018684831261634827
0.018940124107757583
0.01898702512960881
0.01898109298548661
0.019051256556995213
0.01913457632996142
0.01911635107244365
0.019183549784356727
0.01938889708602801
0.01972240298637189
0.020056860890472306
0.020254869433119892
0.020346770968753845
0.020458159133559094
0.02062708488549106
0.020786397486226633
0.020886437779990955
0.020938830195227638
0.02091817660140805
0.02101402472355403
0.021201871049124747
0.02130432554753497
0.021234673282597216
0.021230875017354264
0.021227094820933417
0.02120144937536679
0.02119490225566551
0.02126368207973428
0.0213579314481467
0.02145270129898563
0.021597153126494958
0.021778653603978456
0.02190586632466875
0.021941556634847075
0.021936355140060187
0.02194195329444483
0.021960283428197728
0.02194301666342653
0.021954089322825894
0.02206459702225402
0.022085085147991776
0.022022925495402888
0.021980666593881325
0.021902408702299
0.021853686386020855
0.021855941349640487
0.02185264102299698
0.021832805976737292
0.021849803085206076
0.02181968789314851
0.02176971089094877
0.021826155823655425
0.02191526216920465
0.02185849776957184
0.021851870324462654
0.022081662953132762
0.022512495003174992
0.022849009657511486
0.02301794833736494
0.023042513735126703
0.022983314093435184
0.022994935841998087
0.023115613950649275
0.023338768359972163
0.023572614770382642
0.02366252877865918
0.023674855850404127
0.02365547703113407
0.023591750242048876
0.023596048982581122
0.023610883951187135
0.023587048110784964
0.023560727483127267
0.02353031615144573
0.0235972043662332
0.023917974022915588
0.024241233243374155
0.024385952644515783
0.024413578564999625
0.024413484651595353
0.02441137809189968
0.024435508152237162
0.02449598201084882
0.024614959993632512
0.024793931340100245
0.025067980269668624
0.02543941725161858
0.025674274115590378
0.025725213757250457
0.026053319692146033
0.02624883417855017
0.02612704231753014
0.026099174389382824
0.026076143425889313
0.02612254019360989
0.0261267923458945
0.026054173881420867
0.02595333904027939
0.025922996257431805
0.02614621752873063
0.026398012147983537
0.02661220183246769
0.026671287923818454
0.026548205871367827
0.026420281548053027
0.026372300290968268
0.026375651890411973
0.02647197583108209
0.02658294550026767
0.026723873909795658
0.026920191628159954
0.027054181104758754
0.026957930692005902
0.027179729755735026
0.027567219007760286
0.027937383607495578
0.028158045646268875
0.028205493986606597
0.028163080151425674
0.028333873271476476
0.028577270995592697
0.028666679933667182
0.028780151274986565
0.02890696594957262
0.028959774802206083
0.029030708631034942
0.02909558276645839
0.029056559121236204
0.029241136718774215
0.029520154885249214
0.02992705039912835
0.030358687387779356
0.030517076703254133
0.03051651202025823
0.030747233751462773
0.031015036277240143
0.031320311109302564
0.03155241291737184
0.03175975550198928
0.03186892231693492
0.031960826113354414
0.03212418027338572
0.032323241789126766
0.03252041831379757
0.03273912507342175
0.03297378858202137
0.03310680058435537
0.03313207205850631
0.03319770461297594
0.03320198821136728
0.03317561552277766
0.03320076377363876
0.033225037246011196
0.03327427090727724
0.033404789108317345
0.03347943388740532
0.033535740143852306
0.033919499351177364
0.034409082365455104
0.034632080746814606
0.03464330718386918
0.03475006065797061
0.03482123798574321
0.034906749749789016
0.03485602284315974
0.034693255930906164
0.03449987719417549
0.0344759443437215
0.03464162064017728
0.03476764745893888
0.03475658186944201
0.03475755302002653
0.03492090704385191
0.035248814238002524
0.03560916514950804
0.035752700250595806
0.03565129472175613
0.0357197935867589
0.035730883390642704
0.03588323087315075
0.03601033792598173
0.03593581374385394
0.03579405515338294
0.03562315853894688
0.03549310288857668
0.03538697489188053
0.03531236483948305
0.03535950022051111
0.03538768413593061
0.035532674310961736
0.03579297836520709
0.0360561835533008
0.0360610082373023
0.03615000231773593
0.03613448979798704
0.03625671281013638
0.036801838908577335
0.037127442099153994
0.03715787049732171
0.03719816888449714
0.03719537031138316
0.03726672556134872
0.037477520689135416
0.037681753437500444
0.03776051466586068
0.037673867262201385
0.0380012245895341
0.038639204371720554
0.03918167253490537
0.039358895148616284
0.03936293008737266
0.03944336977554485
0.03944625113159418
0.03943562633008696
0.03959956760634668
0.039726648527430374
0.03983238268760033
0.040047397302696484
0.04032361452234909
0.04028911345638335
0.04012737856130116
0.040011586801847444
0.04005195932812058
0.040077027830993754
0.040113886485341935
0.04018003875855356
0.04029322867630981
0.04040390443988144
0.04054576810915023
0.04078730209148489
0.04107994183315895
0.04126458333921619
0.04123386837192811
0.0412381401786115
0.04132751051103696
0.04130093218176625
0.041224537850357595
0.04124234969029203
0.04121274086064659
0.04110847396426834
0.04103655654937029
0.04111560443183407
0.041229329938068986
0.041384904138976705
0.04164211650029756
0.04200702576665208
0.04220094644813798
0.04233844153466634
0.042724284942960364
0.04304138959385455
0.043099981382256375
0.04301574940793216
0.043035599598661066
0.04313470057910308
0.04305535074905492
0.04294623805093579
0.042722245771437885
0.04249301111907698
0.04237144346465357
0.04235423990176059
0.04251262547448278
0.0427511888067238
0.042826105946442115
0.04258636481827125
0.042337032980285585
0.042233589816605674
0.04221991131198592
0.042199233503779396
0.042260592756792906
0.04232732969452627
0.04237126411520876
0.04232054079417139
0.042366728227352726
0.0426471225079149
0.042845498544629664
0.04261331166606396
0.04243839663569816
0.04262757879332639
0.042934767220867795
0.042980092025827615
0.043184947329573335
0.043457723277388144
0.04354245679685846
0.04339664711500518
0.043196274308720604
0.043008882139110936
0.04285175924072973
0.042907182038761676
0.043085314003983514
0.04276707448880188
0.042362950126407665
0.04244007132365368
0.042420938672730696
0.042521568671800195
0.04276457792962901
0.04307084694155492
0.04321288252947852
0.04302817190648057
0.04302777598844841
0.042957258860114964
0.04270593692664988
0.04293318721815012
0.04351606448879466
0.04386154099367559
0.044125915698241445
0.04461505654850043
0.044878237834200266
0.044835860815364864
0.04498415172332898
0.04494135497603566
0.044708032025955614
0.04453832100145519
0.04457577101769857
0.04442649324424565
0.044214126752922314
0.04387309376266785
0.04361540128709748
0.04364316931925714
0.04380255982163362
0.043746782565722245
0.04345781466457993
0.04358024509157985
0.04372184810461476
0.04373108698520809
0.04377709558233619
0.043713724814588205
0.04384840997634456
0.044598534816177565
0.04516537383664399
0.044877129344968125
0.044794782371027395
0.04475462173810229
0.04455870335688814
0.04477675925591029
0.04485575132071972
0.04470066270790994
0.04445805723429658
0.04447658107848838
0.04480189593043178
0.04512970549869351
0.045307409991510214
0.045418093227781356
0.045434579621069136
0.045153909233631565
0.04493149212561548
0.044957243215758357
0.045071991176810114
0.04517729387385771
0.04519200055277906
0.04525848684366793
0.04528104894212447
0.04544126245426014
0.04544108571484685
0.045512059530010446
0.0453593113226816
0.04570364620769397
0.04633778355899267
0.04641904043150134
0.04589511856087483
0.0460090077156201
0.04634587584296242
0.0465031152148731
0.046631312429672105
0.04662082023336552
0.04668155546300113
0.04689493162557483
0.04727126504178159
0.04764014104148373
0.047732675784500314
0.04766630739206448
0.048308811127208175
0.049430386112071574
0.050394255575956774
0.050450974946143104
0.050486625810153785
0.051092357663437726
0.05156602563569322
0.05152902401168831
0.05157294641132466
0.05138177415472455
0.05135108961723745
0.051681997120613235
0.05187161670066416
0.05195563523680903
0.05244132098508999
0.05335755604319274
0.05427205494605005
0.054519971038680524
0.05450903499615379
0.0548938847030513
0.05550592855201103
0.05570520733483136
0.05597816331894137
0.05638742772163823
0.056506418826757
0.05634637393523008
0.05620995670557022
0.05638074180111289
0.05693910677102394
0.05726928151794709
0.05710555758327246
0.057821131198434156
0.058739864531671626
0.05898944946005941
0.05882349911611527
0.05885734452982433
0.05870676447520964
0.058031304506585
0.05750951589550823
0.05705267141922377
0.0566879930626601
0.0564623188925907
0.05670908734900877
0.05700951259816065
0.056697661634534595
0.05685547228204087
0.05723959729657509
0.05710002961102873
0.05704929357743822
0.057032874498981985
0.05738651364808902
0.057916770438896495
0.05815689680282958
0.05818811032338999
0.05857858571107499
0.05907638256321661
0.059308023082558066
0.05915647789486684
0.059120148674119265
0.05919381733168848
0.05911393177579157
0.05894181952113286
0.05907582466956228
0.05933351061074063
0.059346644952893254
0.059471747206989674
0.05974217884591781
0.059824440121883524
0.05978799511794932
0.05973742775735445
0.059726183214224876
0.05961166823399253
0.05950298562645912
0.05963329124613665
0.0595959168986883
0.05921114619937726
0.05931971868965775
0.05979619633406401
0.06008829163038172
0.06012034443789162
0.06017050589201972
0.06061122482991777
0.06103574246750213
0.06099113917211071
0.061248121692333374
0.06128535841475241
0.061080050185555596
0.06094336458016187
0.06081597249256447
0.06092781546292827
0.061046889383578676
0.0609808512404561
0.06091420151060447
0.061138480213703585
0.06158255410264246
0.06206103974953294
0.062107056758832185
0.06261182743823156
0.06332495248760096
0.06367455297964625
0.06365067201200873
0.06361045451136306
0.06356169660575688
0.06346535042976029
0.06331917601288296
0.06328536226646975
0.06311701843515038
0.06277832824038342
0.06270038535818458
0.06300937505089678
0.06297776123159565
0.06262444184045307
0.06238654249231331
0.06251170926261693
0.06275089427130297
0.06278812012635171
0.06258719162316993
0.06229026230284944
0.06202328401152044
0.06185394590371288
0.06186693645315245
0.061724062432767825
0.061664415955310685
0.06152451215777546
0.06122209690744057
0.061013148463098334
0.0608944330457598
0.06102409587823786
0.06101273288833909
0.060838201737497
0.060858960178447885
0.06035192920127883
0.05965905913384631
0.05952821838203817
0.05971242605126463
0.05960714282700792
0.05952943957527168
0.05951031607924961
0.059310679361224174
0.05955280611175112
0.060030204739887266
0.06015853639226407
0.06028328424668871
0.0602313771203626
0.05997943383874372
0.059846601703902706
0.0600051113194786
0.060200341793242844
0.060409258134895935
0.06055575677542947
0.06072253611520864
0.06055495780776255
0.06024779345956631
0.06008718576398678
0.06002414070651867
0.059960476661799475
0.059751535163959486
0.05911289506126195
0.05854288701317273
0.05863453062716872
0.05873021826148033
0.05856892344192602
0.0584862536448054
0.05824240505346097
0.057998922854894774
0.058180728256702424
0.05847641518339515
0.05822332308162004
0.05787595653673634
0.05773403936997056
0.05789343107608147
0.05802144245943055
0.05773276986787096
0.05787540785386227
0.05779684299253859
0.05767651499947533
0.05778743369970471
0.05817553580622189
0.05853344618692063
0.058485335474833845
0.059076467693084854
0.05937856290838681
0.05932560569839552
0.05929964879527688
0.0593737271707505
0.05916429140721448
0.058461916294181716
0.057975921425968406
0.05797740507987328
0.05761610012734309
0.057419633608078585
0.057460222326917575
0.057408564697252584
0.057378915563458574
0.057248641821788626
0.057251551933586595
0.05722144211176783
0.05695107572712004
0.056689678836846724
0.056712790533201766
0.05631525363074616
0.055257685051765294
0.054225728830788286
0.05391593857901171
0.05343632628093473
0.05260423685307614
0.052212908860528845
0.052275156951509416
0.05223629997228272
0.0523892022203654
0.052240000627934935
0.051876784567721185
0.0517049322638195
0.05187138822278939
0.052010420963633806
0.0514624623011332
0.05083191676181741
0.05132986375014298
0.05186344131128862
0.051451369905844334
0.051335317343473436
0.05128745653666556
0.05122178462799638
0.050816830085823314
0.05047046629479155
0.05035436336533167
0.05001366796903312
0.04948470997158438
0.048920837338082494
0.048417397271841765
0.04848363990662619
0.04767563650384545
0.046597552531166
0.046653087839949876
0.04717842610087246
0.04740632872330025
0.04732556044007651
0.04727677684044465
0.047377998967422175
0.048082392236683515
0.048973652457352725
0.04927511291578412
0.04937003117054701
0.04999057070934214
0.05069556857692078
0.05037727145012468
0.04973635870730504
0.049771791188977656
0.04990473810117692
0.05008781037176959
0.04971269176341593
0.04932133956928737
0.04911012805998325
0.04905059862998314
0.04886544292909093
0.04858976372168399
0.04837971802218817
0.048957800518255684
0.04924695799127221
0.04886411387706176
0.04881922155385837
0.048699373772833496
0.048536051594419406
0.04826313986559398
0.048207338207867
0.048317110553616656
0.0484062054019887
0.04849838471855037
0.04871580319479108
0.049327096882043404
0.04971084788790904
0.04973424204741605
0.049650524482131
0.049646151699125764
0.04947255763458088
0.04983787054428831
0.04984750699601136
0.04922436256078072
0.04872151207178831
0.048596392315812406
0.048683392032980916
0.048399004272650925
0.04786875889869407
0.04783358569256961
0.04757397380424663
0.04742856031865813
0.04755968473968096
0.04751841433579102
0.047512655133614315
0.047247568871825935
0.04695709819789044
0.04688779056654312
0.04702386312070303
0.04701516314875334
0.04663159583462402
0.046273518968373534
0.04644565907190554
0.046002150665735826
0.04548537479364313
0.045446452603209765
0.04555475724395364
0.045516803620848804
0.045486149360658604
0.04554256703821011
0.045598720726557074
0.045664691899437455
0.045985421811928974
0.04611212582327426
0.04583503753761761
0.045647039477480576
0.045840409353841094
0.045869695690926165
0.0465571853145957
0.04718630998395383
0.04711857356713153
0.0472333613759838
0.04744377361261286
0.0474828873865772
0.047441650551045315
0.04744029935915023
0.04740004063700326
0.047423711086157706
0.047551962537691
0.04768718949053437
0.04778956025722437
0.047814477977808564
0.048107870992971584
0.04884889325825498
0.04899363925913349
0.04939988148049451
0.049724589842371644
0.049711672432022166
0.04967837465694174
0.04948718548053876
0.0492533632053528
0.04934288914548233
0.04945316005963832
0.049463446844602
0.04962086585699581
0.04932959012687206
0.04892289761570282
0.04886501499218866
0.04888425410841592
0.04923914162442088
0.049466015818761665
0.04959124087588861
0.04957891006721184
0.04922997697489336
0.0489044486999046
0.04896677752025425
0.04914643980329856
0.04910681047243998
0.049121795196551826
0.04919439096353017
0.04920630164793693
0.04916684747906402
0.049328197315335276
0.049408633350394665
0.04927285175654106
0.04927986069465987
0.04866948271286674
0.048707652962766586
0.04922034225310199
0.049274403187446296
0.049240146657684815
0.04901535000186413
0.048781447135843335
0.04917123526218347
0.04977268960094079
0.05013031576992944
0.049842899406794455
0.04962635940872133
0.04979209137847647
0.049563501350348815
0.04947904418106191
0.04942293129861355
0.04920662799850106
0.04873326337430626
0.048442538757808504
0.04851880858186632
0.047917802896117793
0.04776495606522076
0.048371012149145826
0.04859805618529208
0.04890964459395036
0.049782116200076415
0.05073419870110229
0.05096934564062394
0.05106238437118009
0.05105674787773751
0.050936692147515714
0.050593923600390556
0.05056876023183577
0.050640641018981115
0.05066811225726269
0.05051178204827011
0.05024512618314475
0.05014506042469293
0.050357737665763125
0.05033673840225674
0.050125000518746674
0.05018197417608462
0.05016563792829402
0.05021496044006199
0.050403850114671515
0.05042800606111996
0.050684782626340165
0.050850380548508836
0.05190358325606212
0.05241914151236415
0.05268559119780548
0.05342019971460104
0.0538862706720829
0.05380813348921947
0.05310595876420848
0.052738892619963736
0.05243374629179016
0.0514996061148122
0.05087665665429086
0.050810747959185394
0.05002979452488944
0.04967410437064245
0.04967351032886654
0.04996070282068103
0.04997258293209597
0.050306708884891124
0.05078210772247985
0.050787449600175026
0.05060783009743318
0.05072280215681531
0.05054476242163219
0.05092179013532586
0.05156398336053826
0.051299939557211474
0.050740591742796826
0.05062232351046987
0.050741068634670226
0.05077209011418745
0.05061535155517049
0.049877256189938636
0.0490370672265999
0.04860819532419555
0.04828121374710463
0.047251952539663765
0.046824677793774756
0.047137371010612696
0.04728578512556851
0.047198846557876095
0.046891265489393846
0.0466481914720498
0.046684274305589496
0.046724467193707826
0.04695438624825329
0.04713831469300203
0.04690382586442866
0.046832640476059166
0.047050933589925986
0.04667171409819275
0.04621800381108187
0.04627795799169689
0.046217505687382074
0.0463713638484478
0.04639792450005189
0.0464287096937187
0.046432945237029344
0.04622687400900759
0.046188014184590426
0.04628394547966309
0.04612138840719126
0.04593582893605344
0.045879161744378505
0.04588845161604695
0.046118627936812116
0.04593285129871219
0.045825997105566785
0.0455504634429235
0.04533408117596991
0.04534069556044415
0.04513160602538847
0.04499441134859808
0.04493926044437103
0.045055780531838535
0.04535143058281392
0.045424818713217976
0.04549232169636525
0.04551427840720862
0.045379439839161935
0.04543343710713089
0.04549327640212141
0.04581844987347722
0.04657653266331181
0.0467193460976705
0.046806230610236525
0.04689605811843649
0.04703372310264967
0.04740590033703484
0.04745237857219763
0.04737218928989023
0.04734985759248957
0.0473342531779781
0.0476051296305377
0.04796186213032343
0.04796080622007139
0.0480756263283547
0.04826219331589528
0.04837822107714601
0.04808764564106241
0.04809482365846634
0.04851899108267389
0.0485661702696234
0.04837103387806565
0.048698011132655664
0.048110271138139066
0.04740672390209511
0.04727368615567684
0.04742291063535958
0.04756303043104708
0.04749339730013162
0.04769759272108786
0.04768667208380066
0.047803371050395074
0.047917246784782035
0.04804259333759546
0.048132885036757216
0.04879681416787207
0.049324654588708654
0.049102345486171546
0.04841307128313929
0.04835489333607256
0.04820236191619188
0.04805082820705138
0.04829813446500339
0.04831386431236751
0.04867927918792702
0.04902570115868002
0.048716953510884196
0.04864849065314047
0.0488142771134153
0.04878013771609403
0.04915966185275465
0.049245116893434894
0.049240034837275744
0.04919202267425135
0.048776144033763555
0.048640243753325194
0.048508373571094124
0.04835122415679507
0.04838657167274505
0.0483497475553304
0.04803710710722953
0.047785702478140596
0.047762307733064516
0.047950842117425056
0.04804728837567382
0.047980451696785165
0.04796445345389657
0.04778296110453084
0.047719855182804166
0.04776939671020955
0.04770904328906909
0.04809706368483603
0.04812881565769203
0.047767969000851736
0.04769589625881054
0.04751643915777095
0.047370922814588996
0.04753218093654141
0.047651383260963485
0.04731447350350208
0.04692820994067006
0.04708158719120547
0.04715220323880203
0.047140026197303085
0.047996269195573406
0.04902140740887262
0.04944372064084746
0.04934160804958083
0.049655700766015796
0.049953426982974634
0.049872155350167306
0.050538095391821115
0.050525239624548704
0.05025430547539145
0.050261176410131156
0.04987958384561352
0.048933624015189706
0.04823216236429289
0.048277593497186896
0.048214260240783915
0.04865793426055461
0.04916018498479389
0.0494218547095079
0.049249178983736784
0.04916525185923092
0.04914402896305546
0.04903321722289547
0.048983436443377285
0.049040381994564085
0.04895939713926054
0.04901170984026976
0.04911684043123387
0.049045957402558994
0.049059348283335566
0.04930360303493217
0.04952951723593287
0.04959620181587525
0.05003617660724558
0.05030417402391322
0.049456105877179656
0.04955789219005965
0.04983743899036199
0.04913061893894337
0.048673998939339075
0.04851671669632197
0.04864447874133475
0.04855169637012295
0.04858007860602811
0.04859793083393015
0.04849422815139406
0.04851677122991532
0.04855188671150245
0.04864865744486451
0.04856091064983047
0.048246416001347825
0.04851965653593652
0.048170627515064554
0.047698556386167185
0.04761776358354837
0.04774779800325632
0.047887777900323274
0.04798000253387727
0.0473957393260207
0.046649327718187125
0.04649843212449923
0.046662977704545486
0.046500607108464466
0.046566576870391146
0.04704631015076302
0.04744922892190516
0.04762241910677403
0.04796676841448061
0.04864640691434033
0.04886206836788915
0.048940087897935886
0.048599055559607224
0.04818612693925388
0.04835355146671645
0.04855561978183687
0.04854958488605916
0.048701887738425285
0.04897662765346467
0.0491455552179832
0.048967300058575344
0.048873631387250496
0.0490081094764173
0.048808448059717194
0.04858241179957986
0.04842224112013355
0.04894591993535869
0.04959615355473943
0.04981572897871956
0.04975237403996289
0.04974183213082142
0.04976442360319197
0.04979883878142573
0.04993974985089153
0.04966083403327502
0.04987783943768591
0.05088978954823688
0.051447201434057205
0.051615899610333145
0.051622305639320985
0.0515856368932873
0.05183614185662009
0.052159097258700056
0.05204008404049091
0.05202981228590943
0.05203238367335871
0.05233503393363208
0.05260993322939612
0.05256363921100274
0.05233317102305591
0.05211595967062749
0.052154351670760664
0.052312823031097654
0.05224008429679088
0.05267706419923343
0.053068917308701204
0.05303791817161255
0.052927929755533114
0.05284882354200818
0.05306479273131117
0.05277739002136514
0.05276021646568552
0.05254010334494524
0.052181317562935876
0.05189447059878148
0.051917446341831236
0.05169022270478308
0.05121642216923647
0.050688627902418376
0.05038642282714136
0.050338691965444014
0.05001082777860574
0.04973788008908741
0.049658408706309276
0.049865284075494856
0.049899302502162755
0.049536890920717266
0.0495674478309229
0.049391509449342265
0.049319553397363054
0.04936982533428818
0.04927065450698137
0.04925402915803716
0.0489477790473029
0.048636507479241115
0.04881499095004983
0.048975163527065886
0.04912384314928204
0.04919538866728544
0.04922782723791897
0.049061090229079125
0.04920795343467035
0.048738196755293756
0.04808679453213699
0.04820422604563646
0.04826682043494657
0.048144921242492277
0.04819173305761069
0.04823261023848317
0.047953440364217385
0.048292695612180976
0.04843858978245407
0.04840131390374154
0.048605199690209704
0.04860732374712825
0.048478832022519784
0.048437351607717574
0.04838316394831054
0.048441745409509164
0.048486317556817086
0.04891531153232791
0.04953584310831502
0.049836941001703966
0.05008123164880089
0.05090307833394036
0.051654147160006686
0.051915142063517127
0.05186626898124814
0.051776630108943206
0.05182490050443448
0.051902272193692624
0.052087759311543774
0.05236129518481903
0.052496757040498776
0.05260818445123732
0.05282212777528912
0.05306927416124381
0.053111772066913546
0.05278157640364953
0.05232987660798244
0.05231960746576078
0.052744498954853045
0.05336125124944374
0.053606413354864345
0.05344552845694125
0.05291383786476217
0.05296104685752653
0.05340454425662756
0.05334812502376735
0.053477118192240596
0.05385304564144462
0.053120219924021515
0.052259977092035115
0.051879203605931255
0.051984612938249485
0.051794531295308845
0.051404217750532555
0.0513642396661453
0.05070988334249705
0.05041077350499108
0.05018184095271863
0.049803343031089756
0.049928703339537604
0.04981307487934828
0.0497057284147013
0.04965648870682344
0.0496740842028521
0.04927822588593699
0.04890837021637708
0.04911428552353755
0.04942023877287283
0.04957888219505548
0.05005563963553868
0.050415782639756795
0.05057576134684496
0.05073661786154844
0.050847275611013175
0.050849577630870044
0.05117171326885
0.051349231442436576
0.05121066013001837
0.05094637020258233
0.050924275203142313
0.05106339357909746
0.05028565218672156
0.049793207215843724
0.04958916307077743
0.04887876642867923
0.04829646491562016
0.04824133431655355
0.04846955730346963
0.0488438344525639
0.04882474104058929
0.04921827396610752
0.04973828102229163
0.050104869581991805
0.05016112950164825
0.05021967381355353
0.050406187616754326
0.05055420476477593
0.05098227923619561
0.051366965147899464
0.05096558503457345
0.05165377192082815
0.05270556134986691
0.053261381248012184
0.05317925421637483
0.053164730165153745
0.052992731522535905
0.05306537231779657
0.053046601235400885
0.05302645264891907
0.05315405054949224
0.053632910561282186
0.0537766854534857
0.053302376887295395
0.05286410701577551
0.05263013059622608
0.052429130325326694
0.05175405903835781
0.05177977028419264
0.0520999028289225
0.052309136252151806
0.0523644771927502
0.05214846412534826
0.05189572913572192
0.05203851422527805
0.05218645080574788
0.0520384177158121
0.05173004290787503
0.051653315504081546
0.051500949980691074
0.05133185661863535
0.051538669504225254
0.051607761130435394
0.05162114117876627
0.05131823019124568
0.050642017072532325
0.0501542571070604
0.0500299751770217
0.04992819005390629
0.05000282387714833
0.05019680278375745
0.05033246855484322
0.050578676910372454
0.050042509065242484
0.049292462321463976
0.048491988772293555
0.048118633970152584
0.04830173269496299
0.048263065707869826
0.048044513536151495
0.04794754449394532
0.04800547842052765
0.04808924474637024
0.048366608079522845
0.04815685363952071
0.048030854573007674
0.04815375595120713
0.04824252845486626
0.0485104178939946
0.04851843046839349
0.048289006393169985
0.04835326323634945
0.04796593672246672
0.04763777214102447
0.047683052251813934
0.04768757612677291
0.04739907961338759
0.047111391552025456
0.048023659291211516
0.04843037935206666
0.04850304161431268
0.048622648781165484
0.04863461905159056
0.04865629568579607
0.04865597373456694
0.04883495670976117
0.049034085161983966
0.04904215417802334
0.04907478802022524
0.04927525007282384
0.050137276025488973
0.05128118015243672
0.051797802969813345
0.05164285760489293
0.05251510643516667
0.053732166204135866
0.05492715180735104
0.05513501039706171
0.055122591125546024
0.05528909590560943
0.0552575108432211
0.05545960703515448
0.05574372464325279
0.05563949908479117
0.05540459675481543
0.05525297005078755
0.055401274343021216
0.055701729360735044
0.055987678200472145
0.05587945892941207
0.05586797067895532
0.056231486637843775
0.056206359874922784
0.055963476637844
0.05588920503505505
0.05566248597344384
0.055707458313554524
0.05642070409143343
0.056615743837319314
0.056108180326409636
0.055821678963257
0.055547746752854434
0.05544302119640634
0.05592876821057871
0.056619976457441226
0.05672926748287864
0.056534732424188404
0.056342246341519055
0.055842197153251616
0.05517422765144147
0.05481801458168775
0.05469421719200909
0.05386694116401486
0.05309012577170506
0.05287869360414334
0.052908986726542935
0.05290629092021845
0.052852984492201355
0.05268408049014397
0.05246943546226248
0.052260335501050574
0.05214137362781912
0.05198730305419304
0.051679803875740615
0.05132671134080738
0.05112453315290622
0.05117040837765671
0.051231370269088077
0.05115276501281187
0.050717626535333696
0.050153887468622996
0.05004740113974549
0.05011810605414212
0.05012954507023096
0.04982847277657129
0.04929042039322667
0.04920469140750356
0.049159246931085365
0.04872188942157663
0.04857255172566511
0.0485494530654978
0.04862693198141642
0.04851437766221352
0.04865166540141217
0.048705046967370436
0.04871538891573437
0.04878112662467174
0.0490923027775716
0.04929206866538152
0.0493247053027153
0.04946284018806182
0.04952554953400977
0.04934057151316665
0.049179907210636885
0.04958609041874297
0.049979442865587774
0.04993636545026675
0.04948657123255543
0.04917288958793506
0.04925983762019314
0.049112988411216064
0.04882253549876623
0.04866194422822446
0.04839795261970721
0.04836179983569309
0.04879235894070007
0.0489218530675862
0.04874632482999004
0.04925597949419171
0.04987311309319921
0.050027939407154914
0.049722631671465935
0.05047107627149671
0.05132690269849263
0.0515188077208586
0.051732509256107735
0.05177005550242029
0.05193481854978017
0.05174021927639842
0.0513356893020682
0.05127864528563805
0.05108540329965763
0.05052090081386268
0.050258140560472384
0.0506164267740678
0.050787316693458706
0.050610903983470054
0.05068882325198501
0.05035104255191982
0.049793428679695356
0.04983640173682943
0.049255280636716636
0.048437751376768576
0.048111272834939885
0.04828230693121441
0.048045407340396196
0.048241016695974394
0.0482982942822855
0.048283310459228235
0.04825219484046102
0.0480178875499405
0.04763714623404667
0.04738990201614797
0.047416410361183804
0.047289231029571964
0.04738312107045203
0.047281462932005525
0.04747559270937927
0.04719243333907798
0.046791597538394854
0.04677112488192506
0.04687779640778899
0.047031245618127285
0.04711635581916198
0.04693355853203684
0.04662613288033754
0.04667527836048976
0.04686137301847339
0.04683891790220514
0.04689712803461589
0.04693246943294071
0.046938680951716376
0.04692434708005749
0.0470006496575661
0.0472234333853703
0.04728300132905133
0.0477238315413706
0.048235339034581555
0.04847318812506273
0.048355545394588265
0.04832334775594063
0.04824898972408846
0.04801171127008274
0.04811379150603898
0.04790046522044577
0.04775741961668246
0.04767299374449067
0.047420497053535654
0.047240465418435636
0.047262021808419374
0.047539661488262934
0.04765988602186553
0.04772728141513653
0.04752310182666406
0.04768696828978136
0.04772929230006412
0.04747811695560813
0.047505942039424556
0.04727421395131387
0.04716092713060789
0.047121225423179564
0.04718036105157807
0.047754162102937696
0.04819085998111405
0.04839874699013308
0.04932015473023057
0.04983636894146912
0.04990699517657049
0.048933865072904155
0.048256924218731
0.048172763646580276
0.04809687689063139
0.04837642435450107
0.04851909952005371
0.04853085162700154
0.048493768292246386
0.048251995884347705
0.048366372281452644
0.04849843935458921
0.04823287118575536
0.04742146371398121
0.04634898689808324
0.04568418646929786
0.04570089603425004
0.04499263683566824
0.04371349741355516
0.04253544921055436
0.04229463350842707
0.042394378774333746
0.04230365257477388
0.04237009348813445
0.04228568176156841
0.042136617874493826
0.04215485721477307
0.042078260247362775
0.04220299682114273
0.041991310772718865
0.041532640204532074
0.04115050314925611
0.04095791909727268
0.04070175978704356
0.04030120075680316
0.040141440242296086
0.04040460309712216
0.040596820753999056
0.04078364513115958
0.04070103453239426
0.04014174026087858
0.03970388932269998
0.04004217879031785
0.04024350240826607
0.04059301548753865
0.04064006402040832
0.040493060485459864
0.04036139948409982
0.040124824978411196
0.04014041046961211
0.0402543013880495
0.04027050724020228
0.04037287489860319
0.04031601348891854
0.04046778191579506
0.040672365850768985
0.040638491479912775
0.040755978770321236
0.04092879613512196
0.0410551380016841
0.041092960867099466
0.04113369458820671
0.04135433777002618
0.041830846054945144
0.04232725442270748
0.04252422019606456
0.042565393227851016
0.042556627548765394
0.04277630190132186
0.04318195827305317
0.04375606539193541
0.044133417933480815
0.044151541435858234
0.04464117540279403
0.04494955033878796
0.04493408262613229
0.04498179846443236
0.044888864242238924
0.04472519935225137
0.04469069545273669
0.04444563504774123
0.04433802773943171
0.0444268156203907
0.044296214720234275
0.04404456928721629
0.04404787292587571
0.04391066779033281
0.043949096847791226
0.04396240734029561
0.043860381287522614
0.04362591989338398
0.04350655690417625
0.0435047163371928
0.04339318471378647
0.04345894802827388
0.04344337456859648
0.04356718015973456
0.04329052450368181
0.04298893614439294
0.04303907343186438
0.04304862300748937
0.0430830700986553
0.04285052933031693
0.042946522283600644
0.043447802481241526
0.04353168337838724
0.04386849342146888
0.043935235751559956
0.04347403585677966
0.0431410379265435
0.04307305519818328
0.042776049048407004
0.04223629732849076
0.041639540333999324
0.04197892338852398
0.04160156811587513
0.04074954323587008
0.04051453227060847
0.04049067935207859
0.040802707793191076
0.04072794577223249
0.040669458771590145
0.04065724593470804
0.04062535484903492
0.04042350757401437
0.040360232489183544
0.04019777923123911
0.03981988306157291
0.03952226185821928
0.039689927542349325
0.039501421839231624
0.039326233944157137
0.03930631497409195
0.03933612571563572
0.03926568151568063
0.039122729236260055
0.03884024840779603
0.03863726149429567
0.03874801562051289
0.03890562287881039
0.03911132104112767
0.039226701359730214
0.03927930959151126
0.03930864169844426
0.03926513471640646
0.039157267482951286
0.039110587283503265
0.03911706498009153
0.03910751137067564
0.03913367634406313
0.03905697245034389
0.039170316950185226
0.03917414510506205
0.03934264170471579
0.03941072453395464
0.03929771842435002
0.03928319377591834
0.03947326820576563
0.039643664584727956
0.03948636590852402
0.03924102419288829
0.0393058922176715
0.03938787739141844
0.039428969722939654
0.03921256925910711
0.03908653759281151
0.03898680142941885
0.03856257173814811
0.03847862593480386
0.038033910150406885
0.03747774002025835
0.037221388880861926
0.037206216846825554
0.037034177948953584
0.03681800400139764
0.036809340375475584
0.036746320921229196
0.03671411417191848
0.03683014478068799
0.036903509559342636
0.03703008624492213
0.037207579881651326
0.03700579952681437
0.03663179806084372
0.03659821106353775
0.03664815644850023
0.03678045499371365
0.036766424315283076
0.036752940425649284
0.03679045711061917
0.036817785635357723
0.03693964907084592
0.036952583304373544
0.03712169624282979
0.037165413874899966
0.0365467166446615
0.03631702867336571
0.03637540013762191
0.035404408224858346
0.03535985322203487
0.03583935220143758
0.03598657250404358
0.035987669249298054
0.03623199107707478
0.03617653877357952
0.035996927897213024
0.035929480915656314
0.035890732035040854
0.035739088536938655
0.035862044660607356
0.03596021286444739
0.0361328144359868
0.036313935896614566
0.03621239288011566
0.0362364210258238
0.036430242580827325
0.036504724065307526
0.0364061931881588
0.03646365853492171
0.0365372150822077
0.036890727342106404
0.03734413731377572
0.037492952819447964
0.03788014476886019
0.03845493518398144
0.038653324107872325
0.038691515688551587
0.038873144093668086
0.038850352120352906
0.03883429234847426
0.038993736415868625
0.039178947391919794
0.03921352052828297
0.03927308837883174
0.039502004439709706
0.03945941470796242
0.0393163092888426
0.03916966108605266
0.03900967276655137
0.038864522232906894
0.03885944123612717
0.038911043793195856
0.0387218532175757
0.03839906919631176
0.03803248386480845
0.03790927492897026
0.03752304348396138
0.03697071031667292
0.036680508042918517
0.03690108276088722
0.03725372435408644
0.03746919146040455
0.037455352800898255
0.03744920092867687
0.03730396254220977
0.0373579823737964
0.03776267411187291
0.038075278842588885
0.03827139338944107
0.038283968198811635
0.038860298780491576
0.039275849205441776
0.03922210372635163
0.03899402545415796
0.03885044695460237
0.03876131390919909
0.0388106449553743
0.03925351937417872
0.03972097871941514
0.03955824669799767
0.0392507658759132
0.03934291827026755
0.03932149713858962
0.03904274768661708
0.038674828050425276
0.03866443443344906
0.03873292488511652
0.03873033905751072
0.03887030122452415
0.038913731338689105
0.03918586759828031
0.03928609341848641
0.03929959634668194
0.03927576996735297
0.03940496140043251
0.039414129881188274
0.03928501426009461
0.03952962650102563
0.04007125012343749
0.04020767065230757
0.04027707523899153
0.040289331150706854
0.040370781789533794
0.04034304314525798
0.04054300973890349
0.040702398493885995
0.04055952976807021
0.0404305617895443
0.04041579624987207
0.040223242937354374
0.040235716310562566
0.040331919831223785
0.040458144249860196
0.040033633898710834
0.03980064727365971
0.04007206621114165
0.03975732469698414
0.039611158217303453
0.039457870067562906
0.039197020108113066
0.03929466780158691
0.03942941083922051
0.039294632989913224
0.03967224222025834
0.039921252909116446
0.039853942687623205
0.03980887048994191
0.03994983949116431
0.03975743802962825
0.039336116958875206
0.039397865678183736
0.03966422182857059
0.0398464404058177
0.0398546749074012
0.03989488316932693
0.0399618418852333
0.03992939388263039
0.04006027393625118
0.04025672378716991
0.040024900167481975
0.04023097623372451
0.04077786498470232
0.041308943664189426
0.04153315357165411
0.04154454073868692
0.04207877665758133
0.04256599735585041
0.04267616054858081
0.04283852186519652
0.04259661526419222
0.04252702396479435
0.04255368799204007
0.042503884359030054
0.042566403159871695
0.04253941439790651
0.04250750080100261
0.042510205041617156
0.04244236223748885
0.04238255334319547
0.04225393127766438
0.04227376265218481
0.04230100055923686
0.04251173391356133
0.042329899390460925
0.04204827744164504
0.04204835979966447
0.04197870265576057
0.041993425969267265
0.04227583759929985
0.04248793919803575
0.042652153384406116
0.042846658038906756
0.04285477732075378
0.043236297090770676
0.043438871178077536
0.04347649498144165
0.043575371730839835
0.043725338826188814
0.04399302573991008
0.04424826983944513
0.04427584478748031
0.04487000614288263
0.045765082022408025
0.04634536577621475
0.04640996178262867
0.046577912365319205
0.04680025871261023
0.04703679635655135
0.047147675728192555
0.04707401629770175
0.0471802501718048
0.04727032044553198
0.04734944614465349
0.04723015364841558
0.047198840946657585
0.04711797593277879
0.04718318567844108
0.047148677489021795
0.047088096665684136
0.047663534687599166
0.04786178848007694
0.04763152697356418
0.04762256607529707
0.047665723484242334
0.04769532874925062
0.04789064656943083
0.04821622149203904
0.04833103561308235
0.04821996979531832
0.047619529640069234
0.046842215718934314
0.04688431791379116
0.04701674669981003
0.046900210006861016
0.04679980942164548
0.046776128568453715
0.04667450895765796
0.04699137183954008
0.047375421688193455
0.04738592639914714
0.047235956453951074
0.04703675259021111
0.046862641819752755
0.046823723179986704
0.04682203875971027
0.046742475650971754
0.04669423272134736
0.04699193245265633
0.047006893672514705
0.04701704150182195
0.04673889646423049
0.0462205960880965
0.046115418166155
0.04599390622344799
0.04540468994877301
0.04516669859411195
0.04520971920341253
0.04523477204726078
0.04560864252271131
0.04572851034696214
0.04554799519246444
0.04542684519663453
0.045422212592093274
0.04543009235989302
0.04522546928958036
0.04521838987362571
0.04512921420275234
0.04506082927342504
0.04502931605558842
0.045027116612764075
0.04541489912662655
0.0460744111216627
0.04591015991172753
0.047274569298606364
0.04893789357738569
0.04942715908400715
0.049695850266143676
0.049650405276333916
0.04986189376097173
0.04960343660204671
0.04933076203567907
0.04912186946137808
0.049035307312151416
0.049118957329774275
0.04921531343716197
0.04895805189735256
0.04867733707651496
0.04829851056681946
0.04797491795849055
0.04785162547254004
0.047380541570018975
0.04707473454996944
0.04683178653009236
0.04641965112881735
0.04612157953903079
0.04631492516724393
0.046522635717410596
0.046386389075778425
0.046680590762989596
0.04705399185768329
0.046791465531568974
0.04692734247772023
0.04773693238501437
0.04830289847450331
0.048721711053512994
0.04871881459490396
0.04863792541320436
0.048687003372469916
0.04862318220664747
0.04861364708514884
0.04854913548682816
0.04854553463053889
0.04856076344149187
0.04862562554888427
0.048573326891055334
0.04855749114532955
0.048771425480954346
0.048481046436354515
0.04801807627314702
0.048072872839402404
0.04793746943352744
0.04780204934766516
0.047864223275100815
0.04788731779321097
0.047613624654477466
0.04752739290008321
0.047504859562031924
0.04806856921059079
0.048984279255382714
0.04974188651307486
0.049917493279790504
0.05124286949634552
0.052432269549462944
0.05243016449152492
0.0528311095177196
0.05256605999544263
0.05321667412412353
0.05379644491127692
0.054011724466690794
0.0539898170682136
0.05389936613501049
0.05371109446743503
0.053598980143433436
0.053421053667552766
0.05288944349158555
0.052732163645559924
0.05283281940384768
0.05276244670269079
0.05280553690972738
0.05285710884141736
0.05292379614314996
0.052959301541559395
0.05278503509471193
0.052985582934925335
0.0531128743570298
0.05309650825802237
0.05330254088970832
0.05332783841062337
0.05313048643292859
0.053298190733185036
0.05313054598867893
0.05252803861978464
0.05234322293661535
0.05257446670322679
0.05261494431179017
0.05232981718727388
0.052715949720004575
0.05314659621217288
0.053076576861785726
0.05314229957992211
0.05290473720757291
0.05327492677955888
0.053566566727822645
0.0535656077391468
0.054078735037473964
0.05463919252273627
0.054971025591949
0.05507881497498602
0.055051126447506246
0.055019825109047814
0.05491830595885403
0.05470342290704139
0.05452373610343784
0.05451607258873992
0.05478675048332662
0.054841970780398694
0.05498279557097703
0.055280199277913195
0.05514628903707489
0.054883433996001256
0.05471869379398413
0.054628504818538204
0.05465792235801928
0.05428787118406035
0.05414361234055832
0.05406685727881268
0.05400359191233292
0.05393691653269343
0.05414268144988455
0.054118660285603255
0.054497874606167895
0.05440477849682793
0.05356771588907577
0.053170244921930135
0.053834329925011845
0.05408645856659859
0.054293004643404856
0.05490810215007514
0.05517942547914572
0.05516432763775811
0.05533011148916558
0.055411229599267246
0.05537105013965629
0.055919190042186526
0.056298285643570124
0.05613275874522514
0.0559225199278444
0.055750795861240474
0.05603878907393664
0.056074247807264326
0.055928836460225284
0.05601294239633717
0.05604915786650963
0.05586227302905172
0.05571430117241107
0.05553466785233468
0.05509617235744372
0.05499828110332601
0.05529209021711722
0.0551347443764098
0.05515693597029894
0.05501882345415652
0.05506706004031003
0.0553939993341919
0.05587167896796018
0.05605313161504455
0.05615773911355063
0.05617051053093746
0.05579024304868654
0.056071923091076316
0.05598980051581748
0.056710446125362066
0.05787030005012639
0.05849788484512828
0.05836873922147788
0.058339763302356004
0.05866691901697777
0.05868643000721931
0.05861243323190138
0.05853309390600771
0.05837427361751907
0.0583852767967619
0.05829313744325191
0.058151575059164316
0.05809676062315702
0.057934638517908754
0.05782109598978422
0.05759812337579206
0.05727354006958194
0.05762194014736451
0.05846934089087881
0.058793635523179545
0.059254026756389064
0.06039096649503335
0.06150970500311814
0.06201655888580717
0.06229084348655306
0.06265255421050825
0.06293964333017357
0.06285227890708484
0.062434155528899284
0.06165209966944531
0.06167603556183167
0.060209629910532386
0.058638671868247914
0.05838662022724748
0.05856567000271753
0.05909655708819628
0.05904105236055329
0.05971720214933157
0.060343506584176795
0.060308020763332026
0.06058357183705084
0.06050200462923385
0.060426362964790314
0.060365186299895866
0.060335536014754325
0.06027843425283209
0.06032989621162414
0.06035192326758988
0.060302457625512035
0.06011549368384294
0.060147933553671463
0.060437965684104714
0.060368680492974815
0.06040015094913542
0.06037585744983517
0.06018479898804799
0.05919214472058229
0.05853520165430382
0.05849130391725339
0.057939093238674105
0.057148680521640925
0.056530765885254367
0.05620629134005867
0.05627891572308727
0.056648972189286724
0.05656619947287254
0.05677509986213408
0.056979785307776185
0.05686984247993678
0.05674113623914309
0.05696124599082395
0.05766278008231893
0.0583893083059229
0.05880210685660131
0.05863381233881228
0.058557697482174265
0.05860940188053064
0.05866484951227904
0.05877370168454945
0.05869772492907941
0.058624193809228016
0.058522479793755335
0.05843297772808
0.05842034908477217
0.058394344974076376
0.057771360421320424
0.056802466120570896
0.056085544113302604
0.055962858794955536
0.054752651554299515
0.05365292693837546
0.05368478817283176
0.053193666123552245
0.05337548137875274
0.05280727047123946
0.05222606084309518
0.05234199169208296
0.05250279858242721
0.05257518723839894
0.0526986731600482
0.05286449410836212
0.0526914220105391
0.05276965210097842
0.05273729516193271
0.052794546678196635
0.052999712307937444
0.05301038607372902
0.05298857911257073
0.05271834435756318
0.0526361977448687
0.05301405986770988
0.05289851927547715
0.053070033345138656
0.053576605084817853
0.05370572303654626
0.05353819225449115
0.053667433030204846
0.05368165401392616
0.05367797964834608
0.05401824631146155
0.05398023259127513
0.053655883378814904
0.053585519916377965
0.05337292941752821
0.05265526436502114
0.05210685408790596
0.05209718747762963
0.05226615761290304
0.052372428668895736
0.05213873352389783
0.05228959907079116
0.05230004104902036
0.05205954415723681
0.05180727645172738
0.05167172790039331
0.05185750152450055
0.05206615691306069
0.052192016751505435
0.05256062993081287
0.05283508126391098
0.05274282551952638
0.05282101743854582
0.05268730982672423
0.0526025436562486
0.05271978602744639
0.05257061601034366
0.05250673353555612
0.052637526966864245
0.05264484121580608
0.052899862355552614
0.053550717061152685
0.05407401520060375
0.0541294560697861
0.05488228539121337
0.05560029154527001
0.05589797974680551
0.05555427910177969
0.05544158114120364
0.05504000945249572
0.05457807970466092
0.054461627196287735
0.05425954369129613
0.05363162779132836
0.05319641536800191
0.05292867319658399
0.052425697051221506
0.05221952858613804
0.05232485516113229
0.05252076268196106
0.05252875330508686
0.05263449557707645
0.05234025642392225
0.052050587987760084
0.052517609798815104
0.052780723090982064
0.0527166156633757
0.05234353117644787
0.05167884136433713
0.051474849371006715
0.05137096947291866
0.0512943341745995
0.051285050372825935
0.05122270960593596
0.05136169243138283
0.051304182254243644
0.05092643385520205
0.05066405615885742
0.05069712749798782
0.050788487516110765
0.05075423710630275
0.05111028464511037
0.05127964288461953
0.05129765179241076
0.05258142574573867
0.05356300636893138
0.05325963406939991
0.05355733387754299
0.053336636824533344
0.05348839137353934
0.052864805021090436
0.05187456637155265
0.051318772371159865
0.051266950262943284
0.05110323824221268
0.05088504055631347
0.05072388375061564
0.050605989377945665
0.050773088072892276
0.05108836107538082
0.051453307581832634
0.05150935437064618
0.052013385600876066
0.052873657839372756
0.053303294392535464
0.053390983142890036
0.05343596813385375
0.05345971240662038
0.053026079370174554
0.05217639517388307
0.051789991495898
0.05137413207557984
0.05019935191608965
0.04926285714609548
0.04901473197969608
0.04882747532683425
0.048595643633743746
0.04859153144876473
0.04884811672032811
0.048911770064150914
0.04898118452518247
0.04907175492262468
0.049151983081828804
0.04902791196946055
0.04900064102024771
0.04879142175544984
0.04813125550979749
0.04832351017626934
0.0478870167711284
0.04712904904969037
0.04723328977474012
0.04699804392876104
0.04722879935405217
0.0472882975731045
0.04737785025499761
0.047321157481055705
0.04744639196200296
0.04770972984610125
0.04777516195201315
0.04825571622350253
0.04885031038546003
0.0486975579475984
0.048762225358514114
0.048956749091157686
0.049271739207906645
0.04925159719772637
0.04942316114436835
0.049931027388665825
0.0502917487337254
0.05057297449791804
0.050498722398187965
0.050763158038025724
0.05097986774751916
0.0508789084944874
0.05130108985933475
0.05151600467041135
0.05167254085070454
0.05141048897989094
0.05111579343327321
0.050914012131979686
0.05090801664395258
0.05059670091955923
0.050013244702713566
0.0494219778617844
0.048985813691979276
0.04895757983438671
0.049110002279048784
0.04893794661271386
0.04953450354398228
0.05033608649391681
0.05037140189553611
0.05079388746991754
0.050929927420802414
0.051117846007691696
0.051337191864149645
0.05133676702855155
0.05153744578943588
0.051707246048608796
0.05167415644042194
0.05187775546452031
0.051975581966107715
0.05195766415097751
0.052176864135544745
0.052114072616677734
0.051902906654868276
0.05206791751901619
0.05205529536353424
0.0517315733875148
0.05158930253470317
0.05147171738208271
0.05125780492904596
0.05114684119005688
0.05113059082766995
0.05101799016585574
0.05091902496293187
0.050769214389147235
0.05052609617472626
0.05044727795408108
0.050549276107922196
0.05068119450821541
0.05057281160028651
0.05032243908382952
0.050229196235304696
0.049929903234587986
0.0493682189413812
0.04939916500938125
0.04995711247087456
0.050012097402941436
0.049973711371421814
0.05000265403650701
0.05011267507332377
0.05051218464272097
0.05093312345677987
0.05088420009356923
0.05084468863438815
0.05092750053387135
0.05119055271614343
0.05124715409707278
0.05091593638760969
0.05096317887771875
0.05097706885426305
0.05055569508112967
0.05043599246302619
0.05016682093264535
0.04980626887292601
0.04959649299969897
0.04947127258055843
0.04962214089697227
0.049921456821030004
0.04979087585583329
0.049577210664283486
0.0496217683062423
0.04942256313515827
0.049433993954444304
0.049475570912472906
0.04921680426225066
0.04901871858979576
0.049057363270549104
0.04894943904248066
0.04924654580419883
0.04916181940818205
0.048664139087777586
0.04836701850523241
0.04837086543673649
0.04767649661982432
0.04698851932305843
0.04659101092955097
0.04644878099905327
0.046502573975594715
0.04669098527752794
0.046827648915350434
0.04690699797240086
0.04685346809681505
0.046856259688502176
0.04695656749769114
0.04680782651761547
0.04640504171606153
0.046095131444744766
0.046067492823349314
0.0456820605439134
0.0454998359689489
0.04530950226006098
0.045262506254948674
0.0452479126455728
0.044700632742606106
0.044446497013559565
0.04464972443995066
0.044749242910183964
0.04491650504642166
0.044892458696849644
0.045230396707775074
0.045684275365201754
0.04590417948784307
0.04589206569478847
0.04581301509053446
0.045738673867890614
0.04594706931733526
0.046303735509281976
0.046639681212836875
0.04683910004445352
0.04684815699234605
0.04626442535663955
0.04571922429488041
0.04521813077037223
0.043767494317144155
0.04283032609382644
0.043080344629706814
0.04303997763316147
0.04288455896545201
0.04280100913601927
0.04256158921984024
0.042491935142315924
0.04246607007808052
0.042876759733771905
0.04331310803885571
0.04310133873717859
0.04306872646557167
0.04326184744248167
0.04331351931206882
0.04317000173497945
0.04276219189399853
0.04284415166708641
0.04223363965982571
0.04141189901973121
0.0411583145824261
0.041022788577247414
0.040951897783670574
0.04094348147511482
0.04104806444258429
0.04105115425074473
0.041440575673477725
0.041704448518576104
0.04164529292262159
0.041712393844500185
0.041430251138517636
0.04152723252773285
0.041341123105958104
0.041301536326063794
0.04132770404685289
0.04127319127786905
0.04123921579914167
0.041263061295030636
0.04118439064361155
0.041331033860333266
0.04121959570678882
0.04100218281033449
0.041234350919257846
0.04104202680988237
0.040754181762458756
0.04078724748571403
0.04078561433474533
0.0411812678608112
0.04120293560903519
0.04112858616979793
0.041260047727264465
0.04125234118895605
0.04130868114880286
0.041113138239597904
0.04102109403349459
0.04047537348698824
0.03985684584011324
0.03985828100237995
0.03951136521529406
0.03938436558819376
0.0387352069944609
0.03854070454952307
0.03837380597600713
0.03795773217105307
0.03757935494999401
0.03726543274126016
0.03741243479773402
0.03737148549989797
0.03704084809403867
0.037193154352717105
0.03668278094613925
0.03624436783371493
0.03608303701155819
0.03643793137744069
0.03673954669735394
0.03682275884086266
0.0370213399711065
0.03718583325040527
0.037383265411481265
0.037172736898064614
0.03750578636769206
0.037745475687552245
0.03754010938107968
0.03783023861586116
0.0373150846909266
0.03638168546138331
0.03660831164801493
0.03620531200198457
0.03642986865597777
0.036931448249379176
0.037013599390629676
0.03693269297713414
0.03672967614606023
0.036584056174615395
0.03658115266938694
0.03622394678415731
0.03587010685005225
0.03563137277611531
0.03545447165612131
0.035435757464729246
0.035387873575091364
0.035242273670155554
0.035328334301011635
0.035478462007595225
0.03546494310256094
0.03556097195134498
0.03571244481136091
0.035822802225593475
0.03587235461571254
0.035863553469534966
0.035894402248086404
0.03601962654152885
0.03618758572032675
0.03622547952691093
0.03676500568864867
0.037266511276829985
0.0372560809168499
0.03781221889541484
0.038073864100733774
0.03821943798684515
0.03825092684593983
0.0383162273815833
0.03804519406054169
0.03784629921312444
0.037715937301982194
0.03752448130631819
0.03712091794819571
0.03646878003957681
0.036060666023986415
0.03625537051120773
0.03634049433982
0.0361294068756979
0.03596988300792873
0.035871336288983
0.03599755593691953
0.036025282057235014
0.03618238921626471
0.036652409153757615
0.03718596472754143
0.03743662916123867
0.03758347043418325
0.0379518675187137
0.03804479665588587
0.037740257681580264
0.03735590386320837
0.03710352718248032
0.0369842816889286
0.03695996262598783
0.03695459150127135
0.03697238571941853
0.03704477005638182
0.036993627689080315
0.03704494663747027
0.03674875631346367
0.0370160989172291
0.03690418859361671
0.03661570540512912
0.03629770374041982
0.03617699531372637
0.03606835949118249
0.03626731750555336
0.036431398678105326
0.03642433879896998
0.036474215416237715
0.03640682854922488
0.0363082640862558
0.036283603459596636
0.03636321337311529
0.03653246624511666
0.0365775921405293
0.03655209575314075
0.036839812489924954
0.036836871823761615
0.0372715502709616
0.03752221773727797
0.03734014230663888
0.037248772343155
0.03764578820555471
0.037766938015120106
0.03757989733479917
0.037814438133500515
0.0378128919552546
0.03775055345264264
0.037801369400694965
0.03781105017173104
0.037864036583341656
0.03780531337135471
0.037501376427244396
0.03732446908717975
0.03734102792222984
0.03727992503088899
0.03731393981841393
0.03725389213417657
0.03692989473696798
0.0369260174036026
0.037110567471245304
0.037292776089161636
0.03726899217697792
0.037568558322964234
0.038163699598517266
0.03864615988219157
0.03881044396897778
0.03858362311962992
0.038310966411372646
0.03836901500937529
0.038406075485982
0.03846251192386262
0.03840046160970814
0.03840603332850151
0.037958936183713377
0.03748470547609031
0.03745917836902663
0.03718827840173617
0.03709606443298981
0.03722475909395143
0.0371728663041722
0.037248321456136185
0.03764069978729822
0.037676474998006595
0.038037404608912764
0.03837458810186945
0.03847828526399098
0.03866723305196501
0.038863043559249494
0.03900435000308789
0.0392763736739289
0.03944262415287085
0.039207283403957266
0.03947084668674506
0.03955574786989018
0.03959844923927449
0.039494418904650955
0.039662210365058854
0.039867007569409904
0.03974292869097553
0.04001902119489387
0.04042668026755564
0.04031939255306497
0.04060981146991253
0.04081695201108232
0.04115046493592672
0.04140649262582883
0.04125110611086711
0.041274383326526734
0.041303227667231115
0.04128096500993706
0.04122768019908108
0.040910463755717504
0.04064712246414274
0.04056439508800395
0.0403806212102063
0.04035898973466828
0.04012789188069291
0.04001185459666885
0.040127070707967505
0.040216878603678195
0.040243881600908936
0.040225185866001996
0.04019604427390732
0.04016707926755771
0.04021783442120068
0.04014803222496994
0.04017573947319761
0.04024732500547543
0.04019299217266962
0.04050756042473949
0.04076975468778983
0.040594232121948154
0.04080927370116114
0.040923939074855295
0.04082827673177235
0.04104376407340169
0.0412123151042033
0.04090941579896026
0.04054264746955596
0.04070438192808069
0.04072102928650565
0.04050459190271795
0.04013421862968244
0.040148247152101246
0.039891298455186186
0.039926262494409455
0.0402512261364609
0.039970636896323415
0.039964275065576656
0.04015049436129629
0.03993074476602487
0.03987650675699115
0.03959679312654771
0.03906913637998514
0.03894613698939793
0.039173914310522376
0.03921502385986969
0.039204137288033965
0.03931738776271231
0.039678698958596215
0.0400237264286261
0.04020780248218216
0.04080574577790685
0.04109826582716778
0.04111152841709554
0.04112009578268044
0.04123744900338352
0.04121971955872141
0.0412840215570759
0.04136963493772782
0.041361724764574316
0.041378725680988285
0.041427555952686816
0.041502361489692705
0.041451724482467395
0.04161300831125118
0.041883578144479544
0.041884821624262256
0.04140985675039701
0.04076828654622659
0.04083264098968357
0.040174165348289534
0.04011567444889806
0.040227295946097
0.0403522287751548
0.04003582448931411
0.03989692833391018
0.03995781639358029
0.04015121042379178
0.040522796398727225
0.04086675686761737
0.04106832111487165
0.04111120655317791
0.04094169672811404
0.04073414403595962
0.040798468490829694
0.04086706603644416
0.041038287546252834
0.04088123967288993
0.040877712834626434
0.04056696234503761
0.04010045006521978
0.03968128200387582
0.03938032887643203
0.039245535044465214
0.039049958160612734
0.03913192945416086
0.039198354134568944
0.03936030434211716
0.039641246392857286
0.03969727155403234
0.03994623552425765
0.04025678780511953
0.040182793216081335
0.040188754320843144
0.04043425118899904
0.04036017469246872
0.04089052386232652
0.040957051313016565
0.040788140393560754
0.040788447548402475
0.04079961177194491
0.04075160945067182
0.041083158672554417
0.04103532151784748
0.040837412214605136
0.041079437922453506
0.04106227173586376
0.041094166204566136
0.04106272410950623
0.04104934400063939
0.04120676937978715
0.041267969594337046
0.04108766600373201
0.04122727419482544
0.04118677522521466
0.041357525828061625
0.04097859757835977
0.0409514683263842
0.04121908646193333
0.041199655102100226
0.04091784499119967
0.04087983338395133
0.04113036682945676
0.04092813728377223
0.04082829542458057
0.040962886683410034
0.04090690876939334
0.04086476412368938
0.04095037444727495
0.04076850620214827
0.04078867606818676
0.0408531396870967
0.04130086246295832
0.041718983456958084
0.04164449760457501
0.041632367077982055
0.041651646945392716
0.041180824424372986
0.040722382806707175
0.04063723516417667
0.041128422435140234
0.041080707600340244
0.0405416253732983
0.040062613596674054
0.03984626619727351
0.039948324692668395
0.0399552761670202
0.039946949924342334
0.03983691657544114
0.0398494078591466
0.040025156143819914
0.04022282339865342
0.040348749865079296
0.04035171548253857
0.04037665958167054
0.040606587810907514
0.04065711525152437
0.04037487409426831
0.0402321405056864
0.04017571361269802
0.039627795551205054
0.0397327265131753
0.0395171585411299
0.03936305159353651
0.03955399253405631
0.039391351022059096
0.03917961894534528
0.03882461023051292
0.03877117017051205
0.038260279868263754
0.038603354847291486
0.03890447934740223
0.038803461833158505
0.0387581105181016
0.038823621697956695
0.038927582716569306
0.03844093743013218
0.038389470231486485
0.0380565345834475
0.03763406780082732
0.03759661834221333
0.037561547606019305
0.037405450572259726
0.03689731554244645
0.03672452535829507
0.03682266653515399
0.03678369192406535
0.036865363685647023
0.03688216264708899
0.03686541782575659
0.036841589132091034
0.03691553916898556
0.03686436018324457
0.0369084767694585
0.037050775946117935
0.03725037218304351
0.03724607883603312
0.03740036440896802
0.03775889093987644
0.03796486763516441
0.03793564508436248
0.0379914318677038
0.037964118873933334
0.037970034651225434
0.038020430419128386
0.03798148933798075
0.03789113290258683
0.037887130359886216
0.03758635235484689
0.03734905152115971
0.037551851348252965
0.0374092869355809
0.037156283211661506
0.037282907977933065
0.03694643025868572
0.036811355206882584
0.03685341509408317
0.03689811483607627
0.036663231373531745
0.03655854607350193
0.0365903066622559
0.03676211827900261
0.037087833718396725
0.0373891397821717
0.03727862454834394
0.03695977856987156
0.036972734258743006
0.036689114967593923
0.03656351038254797
0.036610635195393114
0.03662062868592329
0.036739510376937685
0.03679356742883101
0.03661908136680722
0.036465405664639544
0.036636067011859265
0.036753984637325626
0.03659828694420866
0.03634747090516612
0.036151776029728355
0.03621672812383622
0.035885035634273664
0.035656223520636555
0.03572630340815522
0.03609944051480852
0.03618134838761762
0.03604394936002791
0.03599914885009639
0.035880547154229135
0.035730122681707145
0.035540875715669246
0.0354769854946062
0.03550503691192716
0.03552454703603871
0.03526419501635246
0.03481314714648761
0.03491928133298643
0.035016782267484815
0.03512152868672274
0.03510116969817318
0.0354283319239039
0.03537885188823566
0.035225731091341
0.03534612468560226
0.0353863488859497
0.035214762970572334
0.03514930152450688
0.03502510929480195
0.03487789052072912
0.03495442624320276
0.03506613275036216
0.034871588223613796
0.03480528261512518
0.034732041211100295
0.03472975662094541
0.03458744265837595
0.0345287783711683
0.03495217159274034
0.03482693291618489
0.034883045338792724
0.03501830240478739
0.03501640869071707
0.03514119042432867
0.035233946370426567
0.035037852004170415
0.03478505282546394
0.03479005601606332
0.03466188370715827
0.03446198568097316
0.0346399696636945
0.03451167741091922
0.03421288083074615
0.034186115976190194
0.03407470614765771
0.03415122250560671
0.03434620280750096
0.03399177944404073
0.03365675916429609
0.033711457742610945
0.03379501638934016
0.03383000373491086
0.03391589089646004
0.034067976956721396
0.03408474160823971
0.03426259915693663
0.03444167508860119
0.03450762090855278
0.034438996750395745
0.03434048746828921
0.03435287267435342
0.03422290953574702
0.03407450322411023
0.0340967537346296
0.033919633992481976
0.03383773291483522
0.034003776910249146
0.03419428615598008
0.03391411748714745
0.03408972092438489
0.03447193192318082
0.034445257112383845
0.03425370062934235
0.03400786249665543
0.03400065745925531
0.03407025374704972
0.03389061419293284
0.033696580339455974
0.033596545738400894
0.03376022356445901
0.03405750561039895
0.034024345236830414
0.03396709266584366
0.033583595344098285
0.03321730898227543
0.033280262295156716
0.03323067112942226
0.033136413055472075
0.03335953008150682
0.03342840559547767
0.03339182914351113
0.033170566101325676
0.03285763039719313
0.03315625684102997
0.03352545150904916
0.03363894173293375
0.03346973592182621
0.03348284195526503
0.03353203018195927
0.033663574061356484
0.03373776799766347
0.033568351976573464
0.033343002282781524
0.03327144655631855
0.03327210396993905
0.033324156572343784
0.033147089075064286
0.032935175803722815
0.03288983650738373
0.032909695875132455
0.0328969344496727
0.032876989967189726
0.03273269904777407
0.032514055086066945
0.03225297047174536
0.032008978425292295
0.031957494465168566
0.03191879147547297
0.03212762187584303
0.032099185860715806
0.03207541124313138
0.03156406606547534
0.031056580916047096
0.03079929154366255
0.03084967377362773
0.03074678085395135
0.030496632357826455
0.03046201212797314
0.030294219200732185
0.03030218608910218
0.030391119406558573
0.03047409129329026
0.030768474594224243
0.031071197274141014
0.031201066818321122
0.031153101125964894
0.03105600125622004
0.03093992215814069
0.030854557891143487
0.03087369885412045
0.031137188118882476
0.03130673066480085
0.03132967261248268
0.0316223623463884
0.03165200990391895
0.03155116020236164
0.03142908113542944
0.03151523519656621
0.03145954699954018
0.031161179342307152
0.030950748075265436
0.0309909160353709
0.030970062090782447
0.030967303464422002
0.03094630868290551
0.03088974306010641
0.030870016312692313
0.030878124667797237
0.030950261923717335
0.031050278051989153
0.03091496246517636
0.030691156539833172
0.030840278964024036
0.03095977018820122
0.030805756525369363
0.030959425120381637
0.0311730824096594
0.031289646455552426
0.03133810189552605
0.031345339181134475
0.031333802293520424
0.03135316153406165
0.031276900769444185
0.031161346839508042
0.0309129678865429
0.03070184064330533
0.030755098314257337
0.030865167418960483
0.031028553557116537
0.031579699114663524
0.03199421703466214
0.032016488641966136
0.03216071308939718
0.03202704401104711
0.03212446748511866
0.032152978994417936
0.032584655535174534
0.03294568080804311
0.03294494439382106
0.03296664715744555
0.03300423264619894
0.03305181121337228
0.032713274769485
0.0326829926238861
0.03256801665993407
0.03220930443494581
0.03191398144816048
0.0319692539179232
0.03209940105676651
0.03222667798167095
0.03215949331293814
0.03249434023397044
0.03293122990289703
0.03295854835305363
0.03318619963596575
0.03329103348427452
0.03339546874631196
0.03336331136408262
0.033228742376668376
0.03332936282036826
0.0332515808113385
0.03292997358017601
0.032857876925263554
0.032716513315681366
0.03248412599787116
0.03237848888151348
0.03244429518119432
0.03246909838519059
0.03241502273827791
0.032145107068354266
0.031822940189158544
0.031719590100692585
0.03176173573243432
0.031865176669089126
0.03215722175082192
0.03203696444514208
0.032251234623836354
0.03224169334862381
0.03198212475399487
0.031949272126657886
0.031762253812048585
0.031638259269529956
0.03164453447330743
0.0315931671729777
0.03155746697564609
0.03179608014062978
0.0319892724964302
0.03189733975334093
0.03207619502209127
0.03213793129194528
0.032145950626581904
0.03234488735091873
0.03238003409351222
0.032564686055993664
0.03264520595432259
0.03287328457343392
0.032840487107168886
0.032711237819166857
0.032708171546692026
0.03270986365969293
0.03258927628048695
0.03255859075579792
0.03238620272721164
0.03206505698966794
0.031976048165233806
0.03188928220770322
0.03201930745970458
0.03234501462313347
0.032318677456350996
0.032498457848560064
0.03254821051494219
0.03255484356661327
0.03258717821910977
0.032637232274282724
0.03301388737629168
0.03317166971974075
0.03289285145699978
0.03288702270481735
0.032841402374906466
0.0326151711482089
0.03219361621537246
0.032365281329257416
0.03255098560010083
0.0325577309995424
0.03281530012143776
0.03301920605590567
0.03304288473911583
0.03303158143302426
0.033007377489702776
0.03274635116918944
0.03240807480993681
0.0326453174802009
0.03290039690793492
0.032894882211694496
0.033055817942367866
0.03293357641319744
0.03300000990508124
0.03316702979616821
0.03310233458410949
0.03308765379129909
0.03294822104740888
0.03271101842983626
0.0328216548578348
0.032540980022167786
0.03205806932877749
0.03182854066719301
0.0319099977822043
0.031926270325202497
0.03191850424045697
0.03198127612937242
0.03197234896244481
0.03199332933174446
0.032204133300110696
0.03240604489808902
0.03243547983467579
0.03276902851415798
0.033510654480196536
0.034222495002904904
0.03442456952761859
0.03431350456085056
0.03428160013630986
0.034312112012412396
0.03422020651982166
0.03448330888408236
0.03498415830079466
0.03522299361415207
0.03540153849986382
0.03563329494558275
0.0356223272474017
0.03554373257094994
0.035579780475236474
0.03614149538450875
0.03683036669739522
0.03698793620569631
0.03823595043504611
0.03933650773833506
0.039389742454513904
0.0396888059459161
0.03968756028218195
0.03980752690695226
0.039659609966911376
0.039734713707584884
0.03930375695694238
0.03874999149818905
0.03872255705064163
0.038726881789043544
0.038721193490782756
0.038703620933229106
0.0387193650205154
0.03870132884243503
0.038399454198079185
0.03833004335639998
0.03833430056343787
0.03809931455762126
0.038029308128170666
0.037983569290954616
0.03805590953445062
0.038199834395200014
0.03812783445231616
0.038007484844420104
0.03796838714159094
0.038006468825042244
0.038016467769630254
0.03801415187772363
0.038022820859914645
0.03813364675268531
0.03815279928618111
0.03807267257594504
0.03799260120140389
0.03809518436552026
0.03844256197451614
0.03852949613588862
0.038417569305747745
0.03839146859594621
0.03843475202098489
0.038186256686458364
0.03824298377381638
0.03832658250350505
0.03845308900577948
0.03889516908559017
0.03890708194929175
0.039020382304443046
0.038990949458675456
0.03879557701176964
0.03877318633021787
0.03882378877373412
0.039331432713661345
0.040032264556502925
0.04020253982162103
0.039793903415557
0.03953097669989802
0.03958452585618943
0.03943468605633825
0.03935224553453736
0.039265737201785667
0.03923486711923033
0.03867685809498653
0.03828210938721895
0.03848323312588036
0.038554904222255576
0.03845238755224273
0.03830412049777806
0.03860382915940136
0.03858823893009685
0.038568063265411186
0.0384161805792246
0.03849077471997589
0.03870581130846404
0.038665585204726086
0.03852260779007338
0.03863339974777773
0.03846967644989491
0.038194691888056694
0.03815301534719765
0.03819066527648829
0.03861330021987669
0.03891192816779949
0.03882639373652637
0.03870561813469976
0.038658413586672394
0.03884184046648443
0.039186121979728344
0.03946039041155018
0.03977454733918421
0.039946237053954975
0.040046571415150535
0.04002521452493966
0.04000704462523572
0.040120147508569064
0.04021354604279623
0.04013432616717182
0.03986099539208226
0.03990741799352691
0.04001460703555495
0.03985195359098725
0.04030430334736593
0.04099777915747836
0.04124966331059113
0.04171003256924451
0.042750385978724804
0.043220298561500385
0.04345920594292693
0.04360013172612526
0.043798475111834705
0.04417931708972901
0.04410696461447514
0.04382120079942979
0.04382201426080428
0.043661772173363714
0.0435764802491758
0.043670025430619715
0.04368338002357632
0.04366657939273864
0.04393192630610429
0.044103577106725425
0.04365169411175884
0.04355725961970165
0.0435389715002384
0.04349842241965234
0.04348581594764255
0.043496176921762525
0.04369067952153273
0.04383602777030319
0.043702384971547874
0.043543277024291456
0.04333633774193004
0.04276683744275942
0.04228960800217465
0.04247656362364069
0.04268625653698109
0.042590265091275795
0.042653356218943374
0.04282397406408563
0.04280345821985975
0.042557025597197935
0.04237719077849761
0.042313822340220214
0.04216011906857602
0.04217456963611767
0.04199636409408413
0.042066561656538395
0.04205486262333579
0.041976511918473985
0.04272993315360509
0.04296914788312279
0.042745905866613615
0.04280657309689559
0.04279073738027364
0.04281288217403926
0.042790366605622694
0.04277045146562159
0.042498819885076956
0.042429253695299846
0.04278809934970923
0.04293375111767091
0.042967227749759335
0.04296820204821415
0.04300739890662953
0.04303227665368468
0.04298309334204532
0.04297447258722968
0.04292716047726572
0.042868690660689025
0.04283987316535786
0.042978754269424824
0.04328087823232636
0.0434911328938324
0.04350284868502058
0.043623350478010255
0.043493737765820696
0.04364042943692766
0.044079598190728576
0.04512547119054943
0.04568625968531705
0.045688283811323345
0.045388230322860185
0.0447755669511389
0.04411578369443305
0.04405837869620882
0.044245284744538364
0.0441315318539273
0.044310634559951725
0.04452455734019168
0.04421929617994465
0.043652058156440035
0.04339124035439454
0.043278904877370225
0.04311123059131205
0.04307399593177252
0.04305688210413791
0.04298747173277661
0.04243146675289609
0.04172522471752018
0.041570809269323945
0.04037956634303555
0.03939726745011285
0.039422648547915745
0.03912126949406229
0.03917313171899878
0.039080827144207436
0.039165073513286186
0.039070675825932995
0.03906492778449319
0.03928982709418051
0.039509566787164656
0.03972222452634014
0.03984731404227205
0.03982265944359824
0.03991469338885509
0.04013496718253009
0.04071943737217225
0.04134024010389112
0.04180690645822324
0.041873324281768876
0.0420480953506194
0.04269447334343567
0.04343159912736155
0.043804435920901594
0.043944018688052894
0.04404622172471136
0.04416556076495908
0.044118223815457894
0.04417606088565663
0.04428962512407452
0.04431032545980997
0.04426353364251554
0.04424651123932563
0.04425066953757778
0.04444961630506441
0.04461266455473378
0.04465688256779685
0.04466376900672912
0.044636507214745505
0.04462474710657261
0.044611270235618575
0.044746093925787135
0.04439246010966599
0.04429779244703241
0.04436452479683794
0.04390027685672976
0.0442833312950097
0.0447168138215784
0.04477076502866112
0.045109532049391415
0.04536629372043535
0.045443728693062437
0.045249708357732746
0.04449286680202931
0.044185633924789726
0.04410372374462895
0.044176333459327
0.04420212991768494
0.04399208629620262
0.04400277685606852
0.04406592707149684
0.04418174209538847
0.04432116499287076
0.0443967718933709
0.044265445184428244
0.044179801631253214
0.04426975619979203
0.044296315058600155
0.04421461014309898
0.044331189665244894
0.04463668381096795
0.04480573809589259
0.044682119736680764
0.04445435635745525
0.04429162855143659
0.044345707203028724
0.04445337374927476
0.044549280885839836
0.044670914160087706
0.04480723288259469
0.04474548792233691
0.0448529304144904
0.044986835616873576
0.04493460818193853
0.04495895754662342
0.0449401179200504
0.04476220086915419
0.04443831012235023
0.04423425686778501
0.04406346694333479
0.044052911605685946
0.04435069275205024
0.04487248335615732
0.045100804016692565
0.04540042795822956
0.046330433271359654
0.04729275210527703
0.04775985840708017
0.04761508455616422
0.04729285279521719
0.047436663818079976
0.047203319816617295
0.0464327469712589
0.04632063269382343
0.0458833769580815
0.04477846667636186
0.044358113708440214
0.04399609581101686
0.04371778627391905
0.04349692152696662
0.04312373915570788
0.043080574321793394
0.04314918346353806
0.04327065249090083
0.04347988003166393
0.04341279735788703
0.043533440955216066
0.04366141020786017
0.04372223227052018
0.04320063291816041
0.04283073152881116
0.04274595098104328
0.04265658654854633
0.042738034924259406
0.04279598799301312
0.04281148279784247
0.04276377767324448
0.042726105900947005
0.042726990574738014
0.04275610876502469
0.04273726780200377
0.04275492805754766
0.04277331172139384
0.042790371843148024
0.04262630363693461
0.04236922829062678
0.04228690112591721
0.0422203075827565
0.04223576260614209
0.042263324931263925
0.04245664624031633
0.042845633855322376
0.04319468528497964
0.04313159971032292
0.04318242343375459
0.04342092437087558
0.04361819238518365
0.04337942758924328
0.04350261632702313
0.04317014283151366
0.042865234706550834
0.04287940047448501
0.04296173551119864
0.043216337889898565
0.04347236664034426
0.04381467148195952
0.044127558844629676
0.044116443915991115
0.043982815175550055
0.04365404413198121
0.04327482080669142
0.04328354044584557
0.04338260771939531
0.04355386859853752
0.04356591018731706
0.043594005326740445
0.04379880588268861
0.044025670530973005
0.044198054170701655
0.04434921821230091
0.04429863944766112
0.04403432872146368
0.04376350233564153
0.043847195939160886
0.04374273988767527
0.04367623263970018
0.04346059645409696
0.043110109562985596
0.04206405319389887
0.041277509750798344
0.04131982503924519
0.04123598922160454
0.04108218861161731
0.04112339906394482
0.0410704920173157
0.04081572894123383
0.041205216504167766
0.041546117983525616
0.04138074678485282
0.04199785734293982
0.042807643262203786
0.04296186341787688
0.043212245401227846
0.043040041477652266
0.043304591791238634
0.04353505219798535
0.04355489074485377
0.04366823615157046
0.043680517770117146
0.04374836790608242
0.0437142738152761
0.04357623518444598
0.04356532230973244
0.0437624634092208
0.0438242985191755
0.04372103214729577
0.04363988081458956
0.0436214049719274
0.04363394048297778
0.04368593429797329
0.04350915200076997
0.043170426443684844
0.04296235984307714
0.043009557428304104
0.04302257449831814
0.04288926832377911
0.042468945670407265
0.042035648151068014
0.041936573794810104
0.04201295883744024
0.0419227331620641
0.0415168356441427
0.040781674520112575
0.04023793065571226
0.040092844222672286
0.040017809158889577
0.03993128222879022
0.04006943625863642
0.040110241372603925
0.04007185562280938
0.04005885562160984
0.04005982903297991
0.04014522867859341
0.0404194319259841
0.04049662183620967
0.04018027357175015
0.03991866752621718
0.040074054915457964
0.039980377941392364
0.04010111478390172
0.0403234092623461
0.04036119176307693
0.040853446871042254
0.04090873876120895
0.040942285550991074
0.04164807605440728
0.04161739476374351
0.04103689742158167
0.04099307909491472
0.04067327361786738
0.04048001185059547
0.0405671836878173
0.0401822179753799
0.04036967053893022
0.04057200975366868
0.040542411834467204
0.04038990238448605
0.0404462831269484
0.040543641697149725
0.04049479885376059
0.04037830963148736
0.04019227185170166
0.04001844508922659
0.039833405220415445
0.0397771931765601
0.03983321774750948
0.03988882992882282
0.03972176329931244
0.03993060070089996
0.040265954256756234
0.04029161588987336
0.04020784999942407
0.04043067316059023
0.04059189990744926
0.04059114633942954
0.04063660864369013
0.04060177170438692
0.040462088430067523
0.040169014850398525
0.04008750216686167
0.04025845036143437
0.04002129326807335
0.03975955046480521
0.03977884946623817
0.04022563729551621
0.040706352674169465
0.04089762265328318
0.04088117155362852
0.04079220181214623
0.04085983887431212
0.04083772124955431
0.04047994455089793
0.039907322961371394
0.03981275390018709
0.03970043427892961
0.03884540517232381
0.03787355042528361
0.0374597091996111
0.0376928827574011
0.0380938009521924
0.037810718197142705
0.03815386073431
0.0385173895501066
0.03823207792825997
0.038080753666581584
0.03819587457692251
0.03843903114669956
0.03858470974257216
0.03867956505040638
0.038902548362966624
0.03903629117179662
0.03897037808434106
0.03932739374693483
0.03964756022556685
0.039499694906407964
0.03961475836928002
0.03917960208840668
0.03884462744230405
0.0387522333546076
0.038893879175884646
0.039061704152263704
0.03908188432687894
0.039166067553451284
0.03919709117035382
0.039173000738956035
0.03924181667389348
0.03935756076709367
0.03920529150287621
0.03913877877756022
0.03919076529447921
0.039326540450565516
0.039561423633713275
0.03982040310627781
0.039934998950921
0.040026861573569474
0.04027756615891121
0.04063448019674979
0.040481262058019635
0.04063072572811507
0.04109572704997845
0.04072429723455571
0.04043078993912786
0.0401396810670849
0.04039787486894056
0.040390447308309374
0.04018816218944266
0.03992866088054143
0.04009776533464901
0.03977396017289721
0.039481202851748096
0.03936459403601475
0.03929352290462702
0.039124824879691
0.0390311843692325
0.0389414543134626
0.03857554582296871
0.038369887174339964
0.038302643300266934
0.038658417479600755
0.039055938912788406
0.03931327502592467
0.03943711844389327
0.039302807865897196
0.0389280583371874
0.03905318655655719
0.03938136289361864
0.0394999045424629
0.039487247008364645
0.03929008720559068
0.03919340543448925
0.03929234200739302
0.03936960148741491
0.03938487842562608
0.039299069194821644
0.03926074845367111
0.03933456202154048
0.03936298923334107
0.03933774543576874
0.039262552484869956
0.039430361986160276
0.039568137435708195
0.03960953537374735
0.039701660986756905
0.03974551352323033
0.039603292628889904
0.03980108804185875
0.039507187963463364
0.03899032234912738
0.03899740016437136
0.03856406114879064
0.03792962765670382
0.037733921763719994
0.03750468994025141
0.03757715076790191
0.03724509901832789
0.03708179241861217
0.03713489815592766
0.03709712993004359
0.0371623085194733
0.037150825279532
0.037093260482652116
0.03717745436239056
0.03722934581222944
0.03701052361982875
0.037045314121060074
0.0370304826577194
0.03728275431203656
0.03746184422168881
0.03735751011990942
0.03715229938738048
0.037196126871276644
0.03726419970742427
0.03730710183619521
0.037355037243105474
0.03745277130859904
0.03746736186090857
0.037277629141462966
0.03693337856209837
0.03659658680669963
0.03655028176610358
0.03651580935809761
0.03634943202137947
0.03635603033239022
0.036406578356400134
0.03633329753996804
0.03664780149119906
0.03693970121908933
0.03686991620110348
0.0368160327791702
0.03696839713840745
0.03703320746542886
0.03702011553919874
0.036856325450353326
0.03671417433419265
0.03654868937912397
0.036526753755752
0.03640888437628746
0.0360696511308197
0.03598286299267784
0.035681604166748
0.03544851249316707
0.03530720959417522
0.034785402136622
0.034492132657906044
0.03416324120131321
0.03346999840112403
0.033069935058010744
0.03335481976624578
0.033687838509213176
0.03388277209014632
0.03374376579420641
0.03354778105043806
0.03364184189820662
0.033361916675930844
0.0332532654365059
0.033284212122671304
0.033134172521531585
0.03306788689107634
0.033071655597304926
0.03313193503650837
0.033129859439795836
0.03328686062362976
0.033474971287650986
0.03352274644654244
0.033660499771358446
0.033774925466859715
0.03363208600319922
0.03385933269630186
0.033782029424328355
0.03327479755040258
0.0330813306721393
0.03323519060970284
0.03309253292391077
0.03288936322554946
0.03291952152503654
0.03277957658399828
0.03268310882500373
0.03273440010030754
0.03284628757275641
0.032724754652008414
0.03255519480328076
0.03225489554461092
0.032068162959767506
0.03227187642129138
0.03193426899728365
0.031355500316713004
0.031135449280263856
0.03130278410855681
0.03144836156163364
0.03139789549284615
0.031253618146292864
0.03119095585308969
0.031247545796213673
0.031132658487185837
0.031103088037343695
0.03116866479278542
0.03115879662684165
0.031230660296278075
0.031173746809363367
0.03089589750044979
0.03091047896188684
0.030417505607474596
0.030099874619627372
0.03024060419993475
0.03032994208741002
0.03016393860336393
0.02988742378074676
0.029750331430695953
0.0296957989980001
0.02956713430932723
0.029576745245140045
0.029611984000075607
0.029318463064264506
0.02897046849131584
0.028898947124835105
0.028959473584545776
0.029044800852425397
0.028932062559761107
0.028885165840620175
0.028767739015165716
0.028621366928564384
0.028633588068187235
0.0285136814462021
0.028442683798493816
0.02866075940430164
0.02867441814392805
0.028647439474007115
0.028842996953753756
0.029013393451459705
0.029278603377752007
0.029415316157974304
0.029161500961054118
0.02889133639051579
0.028851852144580335
0.028839906455250457
0.028497286278288812
0.028150556355249136
0.0281463333114516
0.027749897470930592
0.027436513713328167
0.02774233972770162
0.027603692652191966
0.027704798585036768
0.027768110737670212
0.027967054245527832
0.027948885632213205
0.02800543462508358
0.028118670611875132
0.028428864971501752
0.02846059676609002
0.028359975886996836
0.028429314946988596
0.028471190846757963
0.02851073778467253
0.02859415952116251
0.028861371258972212
0.028881102417362855
0.0288931433763355
0.02868693503085524
0.028439025493571534
0.02818888614187017
0.028066717846086248
0.02837519476772286
0.029178607813082635
0.02928921631304547
0.028888391124783083
0.028539344619493933
0.02839852410252206
0.028459605935495347
0.02868327151867561
0.028834242686862126
0.028750828440533952
0.029041821422288193
0.029398444396210834
0.029355960523243994
0.029549684962257742
0.02971088537364267
0.029683468492003158
0.029822037921985612
0.029794878638349474
0.02958311398047954
0.029529312197118997
0.029406926466617734
0.029272854478331282
0.02926862526801415
0.02907910939422436
0.02900488127255812
0.02900915845297277
0.028947270424105227
0.028700847630389034
0.028526626218808814
0.028544668428367004
0.02860459994408302
0.02872589842649177
0.028759993584826588
0.028650840553455056
0.028577053945045918
0.028509462279034777
0.028412537197582424
0.028403048380278052
0.028462583436630665
0.028345508936326952
0.02848040122189559
0.028791375579312443
0.028650066991103812
0.028938597270753236
0.028847217782167717
0.02874124123598449
0.029052292325068264
0.029242273658746855
0.029140586889116093
0.02910985440132208
0.029127096013398843
0.029048879399197175
0.028965269612381234
0.028951906155562028
0.02900554277119227
0.02931289144908078
0.029498837180435656
0.029383629674557595
0.029369179973145948
0.029301774591440333
0.029350980246672407
0.029486108409473674
0.02954233894124627
0.029278868060791864
0.029080944316228853
0.029018427537521346
0.028985645167995244
0.028908470743335784
0.028907420051982626
0.028836112066637724
0.028933946824399755
0.028947385874344037
0.028889880045317114
0.02899595765629783
0.02916622307850048
0.029197389911860227
0.029522505938075483
0.03000137478695251
0.030242692789761348
0.03027984174550511
0.03041906677535735
0.030605472510214896
0.030635802340693772
0.030797723499126732
0.030740681842435152
0.030577448953408748
0.030176152461208403
0.030031520591583104
0.030016805639024823
0.030079851672053338
0.0300110655464232
0.030080906026996673
0.029993364736437798
0.030028062572237103
0.030146573996171357
0.029982394627295433
0.02989458166528493
0.029837743481621146
0.03004320161184296
0.030398614190053196
0.030593360257335007
0.03049401774071157
0.03061379122082144
0.03057998575037345
0.030678130888845773
0.030601793145760895
0.030276434656698256
0.030477086869068443
0.030753773271571846
0.030673942803405227
0.03062818129081279
0.030752167806494982
0.03074207956669852
0.03072722006123513
0.030649199951440095
0.030496172960847615
0.030422446643933655
0.030566914931405335
0.030524170105345548
0.030363017092458904
0.030395997213199733
0.030154012793209405
0.030164299707394093
0.03037966365693137
0.030345020170789213
0.03020017113769427
0.02996262789471075
0.029955776205752044
0.030109140980057417
0.030200287415646017
0.030133473919704556
0.030090183645952492
0.02983210511505604
0.029690980601590127
0.029734911499544978
0.02961866723606363
0.029448396193329243
0.029380723387002945
0.029403207439463584
0.029566960823722184
0.029634631872177124
0.029483804239425808
0.02952966871904209
0.029863926691468805
0.030231203087605536
0.030566197203006594
0.03059131793444976
0.030611257161945106
0.030498805658426137
0.030454658651724458
0.03040416053729132
0.030741808009333908
0.03125836634309962
0.031213013203814626
0.03164162369677797
0.032444423066917805
0.0329050778853707
0.032882827734574675
0.03285929388832301
0.032921100347302855
0.03293504289817065
0.032926853196695444
0.03277873882092536
0.03271818552864716
0.03264814513269812
0.032513925705570726
0.032227800637483595
0.03188427172135562
0.03163940304424614
0.0317333832080476
0.031789012469816955
0.03178216244326904
0.03188100459752605
0.032044827018398794
0.03208917638054118
0.03214546065544709
0.032218068870715794
0.032145159516949205
0.03202998088672757
0.03212092317873612
0.03197971392888576
0.03195807290030643
0.03210632904898375
0.03214274188969284
0.03214099252596497
0.031969129568897185
0.03169771057320759
0.031598899476230145
0.031738274837844076
0.031821912308223545
0.03183625490404665
0.03175557054579258
0.031593632276635614
0.03140355463372543
0.03127681388054043
0.031243061886634678
0.03098630906548351
0.030761780845932663
0.030773654428776352
0.03090304343495518
0.030772996621672065
0.03016480799065903
0.02974545178003609
0.029960792048368604
0.03022601269185543
0.030387326742056756
0.030481761132832616
0.030238600689917804
0.02990238139173016
0.02988736908650026
0.02957568738842383
0.029247236435767262
0.029344295831397176
0.029159877351485192
0.028908551852218807
0.028959267989266665
0.02895435553509742
0.029137276790570467
0.029354941262863577
0.02944604021962732
0.029655022085644304
0.029785536634735762
0.029879005861002953
0.030143158733844756
0.03022847035434097
0.030280129467137158
0.030417583086527884
0.030498599670827388
0.030553528040181844
0.03065512131433934
0.030613161637447775
0.030471824943087995
0.030361687208060175
0.03037845022510737
0.03048728675581515
0.030576010516379027
0.03059959642123431
0.030588467717170716
0.030594503753818572
0.030736634817440062
0.03055812869919464
0.030331419659778477
0.03061332876328379
0.03054770357441157
0.030370621476322412
0.03030626373132691
0.030032266839407386
0.029876241856254638
0.029808032982982693
0.029774039636831732
0.029797426185104996
0.029829229712486267
0.029767100417520852
0.029736871619243176
0.029689239819999783
0.029360134846065193
0.0290732633927837
0.02903387781465426
0.029022064390592277
0.029110130739863963
0.02892764068208635
0.02878942242125049
0.029179718364030122
0.02966706388629973
0.029818571421783416
0.02993009055033326
0.030136529228184373
0.03001511439913884
0.030168842042330654
0.03032694597961381
0.03022576904622838
0.03015295773046091
0.03028929193271324
0.030271753047127276
0.030040501253679394
0.02997594322543591
0.02966788668651134
0.029247333293315022
0.029075496308505536
0.029081960553303362
0.028971727171447127
0.028900472549721598
0.029019417099189013
0.028939985674805938
0.028946289601735772
0.02895228306297213
0.029183262158185244
0.029241350118536503
0.029317159971687944
0.029604020486585794
0.02989072263240814
0.029922808264382185
0.03004732683766633
0.03012068590614945
0.030562696550041436
0.030795660358853637
0.030832038186490537
0.030945506752468644
0.030735283638350666
0.03028462725225836
0.029950875993818044
0.030052050268277525
0.029919378394261002
0.029830502001568674
0.02975312642985955
0.03021813774248585
0.030888979784213007
0.03078212062129751
0.030434526512399317
0.0303015765408054
0.030252661404665558
0.03029826204292476
0.030438577039167285
0.030427402136847376
0.030488489272538572
0.030506648968439548
0.030436860974878074
0.030288482620380818
0.030113362474367023
0.030239568448159844
0.030344183559063823
0.030613182610832155
0.030735481593292206
0.030709698565769942
0.030706743036862463
0.030707807689905168
0.030910575205925852
0.031034019670914858
0.031076474469155072
0.031029247746337207
0.03112131600501016
0.03131875435821712
0.03166911352192983
0.03200144024565816
0.03218207114143297
0.03219728282187134
0.03218731423607096
0.03222545145545155
0.03235767315840349
0.03219806150067597
0.03209780878620222
0.032463101092725995
0.032689517794642596
0.032409289232455195
0.03219264567131177
0.031948344130069015
0.03195862224791199
0.03190641381777823
0.03195582003332675
0.032247958953958
0.03224707666086033
0.03202338266884908
0.03153292576083913
0.031708737863227726
0.03152774763526395
0.03073566409293562
0.030313485607039184
0.030449596852995454
0.03070427665952593
0.030684526835102588
0.03058294763090089
0.030574612272903322
0.030544645190238952
0.03045338829047978
0.030452321423217653
0.03042304336326197
0.030572670900728554
0.03063991543604061
0.03064964895369485
0.03063477009534836
0.030576272192411123
0.030524604155216364
0.030330150702502577
0.030393915744498373
0.03058344655437395
0.030547248909715562
0.030417795476969333
0.03026528814341873
0.030146436025388537
0.029905339763499798
0.030079295868054034
0.02992036750772968
0.029574991166591645
0.029753355560824275
0.02988264383515343
0.029850688176229597
0.029811624402645974
0.029744098226074128
0.0296284094825387
0.029580094451084733
0.029681662879884243
0.0297622635262087
0.02973088246071711
0.029944780403748154
0.030163458050228655
0.030330395973287523
0.030524447311181577
0.030632593689952047
0.03064625265542418
0.030476644141599535
0.030149454285856338
0.029899111350532623
0.029968578664120286
0.029860174688510596
0.029605367879848927
0.029614509069360792
0.02969996531261131
0.029610640094615517
0.02975413731765002
0.029848727902863175
0.03010754980146885
0.030127298382576554
0.030378182276617736
0.03038828609045595
0.030713118512649087
0.0309967134334147
0.030891619543544947
0.030538540894631296
0.030318261499051005
0.030209096763283014
0.030109817811753602
0.030061496330890804
0.03000944137806073
0.02991236943285912
0.02983191196108237
0.02977291839197278
0.02976852114312351
0.029900851876009257
0.02988262234022841
0.02981275308644399
0.02972486531594768
0.029768627814482897
0.029877391785848886
0.029880803478881716
0.02986816524062306
0.03002482175594196
0.030166452010162173
0.03023580393055454
0.030449715822469442
0.030499574539717286
0.030430400101467966
0.030386264151893556
0.030283600112888963
0.030299121369607745
0.030331924755591898
0.03032338246470317
0.030260022308211773
0.030156706154812127
0.030175492058042437
0.03031439649639651
0.03042001009453088
0.03044502158416435
0.030436544141266494
0.03044739688746631
0.030477171854581684
0.03047279463382438
0.03052210153080523
0.030629840141627937
0.03072090315865353
0.030809029676020144
0.030927919293753804
0.030850308786612005
0.03033801809884608
0.02980704159475863
0.029605469235684724
0.029492189593147488
0.02942487353924662
0.029510663596447557
0.029328994581010192
0.02928893389645964
0.029291421344969423
0.029223977068904786
0.02912554043577984
0.02899060265161097
0.02921480717835948
0.029687054748646916
0.029989006116520615
0.02993221373297274
0.029946949817240238
0.03001537609146908
0.030090848307590932
0.029965595095418393
0.030021414181683213
0.030257658460177483
0.0303880213201046
0.030414770459756255
0.030357784822117536
0.03019896089565009
0.030270385814365
0.0301670330716297
0.02993846058147028
0.030143962951842695
0.03028943720040843
0.030052875354886054
0.029767601815983653
0.029689248467329888
0.029631755542941392
0.02965757955564186
0.02987557461252436
0.030048999113496393
0.03002905135275796
0.029974090664181857
0.029860991169698536
0.029702170414384454
0.02971893058391288
0.029419093078467996
0.028940861050505192
0.02883910091361031
0.029138528921175747
0.02940092420205474
0.029503882941789926
0.029456904199905695
0.029429080502595753
0.029503633335698397
0.029451881314162164
0.029422532417811453
0.029459020979702474
0.02947506442666054
0.029469609493389726
0.029391720248386263
0.029240511839743702
0.029064179288689047
0.02882935037370771
0.028722352739423515
0.02898098750039935
0.02929561778670177
0.029442824628204106
0.029354500772897155
0.029156285605859013
0.02924077497329563
0.029246609734836965
0.029199259409215302
0.02926348472945392
0.029262736511882395
0.029034488177858295
0.02952594192000106
0.02995755775598809
0.02993939282372594
0.029855571165680887
0.029764147074893117
0.029725262904539706
0.02949219467351213
0.029331932857166974
0.029461767736356705
0.029343469149898736
0.029258129806257784
0.029168245517648756
0.029106194670312106
0.029079952316824347
0.028846583615522833
0.02876225854968652
0.028640978706534953
0.028695976708550005
0.028441535306628792
0.028104831918608398
0.02818567509762943
0.02833288670517504
0.028273558432701976
0.02806156931910664
0.027975869229994715
0.02815780632896349
0.028436506201978774
0.028523906886111946
0.02859187520109117
0.02869572014780715
0.02867211976321414
0.02852507953764871
0.028464040409307927
0.028462218926288186
0.028386547083500774
0.02835635464405641
0.02833492391044274
0.028378696362487972
0.028259097991976886
0.02800141887040809
0.028108205758035184
0.02817517179530114
0.028188989639747888
0.028370184171944857
0.028850440066307784
0.02909029321279377
0.029103102206718176
0.02911353194154799
0.028857982840854675
0.02862116354284808
0.028562670794781298
0.02856689228443429
0.028626107990276067
0.02868624256225303
0.028558718813583253
0.0283699670038186
0.028158629706595092
0.028154964190907777
0.027876149213407187
0.02765377620467916
0.027601061414461583
0.027630744988564403
0.027672670520842074
0.027658825309481473
0.02774884583428502
0.027827231066767127
0.02803432277403772
0.02803654886316508
0.02796709844376892
0.028065798704046754
0.027872989200986922
0.027664915167260915
0.027768243320751937
0.027639075063634663
0.027561270582955332
0.027286436767317356
0.027234916710294783
0.026878004323225468
0.02678507660748437
0.02649282503640279
0.026242406002711504
0.0262814106233418
0.02651183251524344
0.026787584994453936
0.026959257097914816
0.026896576951257883
0.02697995845461264
0.0270451178192161
0.02689128089696169
0.026858575467485934
0.026906364953611046
0.026932227339129894
0.02670324034523219
0.02701089306268841
0.027607138003222644
0.02806254252558574
0.02797226496739313
0.028044995297677816
0.02807849456323311
0.02803633361356333
0.027863028440624476
0.027688351436518134
0.027620357137639075
0.02729688275139779
0.027178162627387793
0.027251463851425798
0.027314144312404098
0.027481985022313894
0.027538988892920314
0.027515365588478745
0.027592883941251783
0.027781037187669427
0.028012789925560354
0.028195060146972536
0.02817770587513223
0.028027994760777802
0.027974170374218375
0.027882118674460797
0.027852349230088294
0.028002113690599798
0.028021153642330317
0.028093468563165514
0.02817456695716828
0.028073345869779588
0.027909186226315795
0.02787187030306086
0.028136474613565953
0.02856053079944104
0.02854938426986337
0.028632398501504213
0.028607494179159403
0.028613266237080097
0.02863051008898765
0.028560511886607857
0.028510566267650573
0.02863641647621989
0.028706827238202094
0.028638846275862308
0.02865377755602822
0.028433252221439033
0.02804041389375925
0.027721829393412917
0.02777429161593318
0.027726327748969198
0.0276524847233668
0.02755491387564689
0.027668651414569468
0.02767447504680604
0.027528048164676876
0.02751099718268961
0.027427496826276182
0.02734922622330487
0.027503942030016333
0.027461963640525937
0.027184030197095126
0.02713995482539758
0.026864076605997978
0.02654835642548278
0.026787337136920542
0.026841702384408563
0.02676514836028218
0.026920023502316325
0.02705212329979986
0.026901873054448515
0.026676887834910304
0.026771084712818263
0.027057622889988125
0.02730337095912546
0.02748405315214768
0.02751774314092472
0.027247313216794283
0.027091972678899765
0.02707757690921426
0.026921639933716504
0.026962065862026065
0.02703611706616357
0.026943697093520312
0.026981536606326698
0.027047841027379036
0.02714162120129913
0.02719460891094059
0.027164083959069104
0.02713032309897244
0.027203006418421865
0.027244407539255916
0.027174657694995403
0.027090004337951543
0.027182988696731625
0.027309812693856655
0.027189902022946626
0.02685107779689133
0.026544057407882064
0.026402130925562234
0.026420855566393585
0.026398473519366236
0.02631883660564199
0.02623524978291243
0.02579128442564979
0.025492549748159943
0.02563772093737498
0.025201157480478287
0.024783841564785688
0.024809139652643353
0.024848229575436562
0.024872693654615433
0.024736802845727653
0.024633301438298075
0.0246472291322425
0.024463690423872322
0.024730422855354844
0.024858576250262557
0.025315861916169524
0.02599214418558404
0.02608382167527452
0.02633841355331242
0.026712441255804152
0.026632738399785014
0.02647726912051439
0.02649648328544572
