0.10630112192630768
0.10778899496555329
0.11015463728427888
0.11652364712238313
0.12297854369163513
0.12637058810710908
0.12478568841934205
0.12479202622890474
0.12569685700893404
0.12825492454528808
0.12967592915058138
0.13147166252136233
0.1320237675189972
0.12937489809036257
0.13050883181571962
0.12782401555061346
0.12546557623386384
0.12765418968200687
0.13302016250610355
0.13682061177253727
0.13756605656623844
0.14363358743667606
0.1532055126142502
0.1556034228372574
0.15833637855052948
0.16618856013298036
0.17022715103149413
0.1678666539096832
0.16896481037139888
0.1718133187437057
0.17279526729106898
0.17279638365745542
0.17306254817008968
0.17334429927349085
0.17291357688426967
0.1756341230821609
0.17748717117786406
0.17551953798770903
0.17215197242259983
0.17326070268630986
0.1809993846178055
0.18080069766521453
0.17706686822891235
0.17943749655723573
0.1812112558078766
0.1820361622619629
0.18524232137680052
0.18956363147258756
0.19290037526130674
0.19278151905059815
0.18943574542999264
0.19115499781131742
0.1937866151475906
0.19073231065273288
0.1844356236219406
0.1807290840768814
0.18166049187660213
0.18332904735088346
0.18344101898193357
0.17962807674884795
0.1780271952486039
0.17936895969390876
0.17908415781974796
0.17794952685356144
0.18319351589679722
0.19145125919342043
0.19413195283889773
0.1969339911651611
0.20324438953876495
0.20773611107826231
0.2031666420984268
0.19510393866062162
0.1875335858345032
0.18913713093757628
0.1882586325120926
0.18081322074890138
0.1785859237957001
0.18824129417419433
0.19706768769741057
0.19808645616054535
0.20445828527927395
0.2177548926258087
0.22409220542907715
0.22623047587394712
0.2325392400121689
0.2342074172878265
0.2338014480066299
0.23703063808917993
0.2388460178375244
0.23534859092712399
0.2323828016328812
0.23005194259643552
0.22982609864234924
0.22827582942962646
0.2266376582670212
0.22603928103446957
0.22586957268714902
0.22540442416191098
0.22235966849803923
0.22426816400527955
0.22853359586715702
0.22836478566646579
0.2288509755897523
0.23241989791393292
0.2315821855878831
0.23905211837291726
0.24339447367191322
0.2420816783618928
0.24144758733272562
0.2401095929765702
0.23883569740772256
0.23507649472713485
0.2307920656776429
0.23099590017318736
0.2245622622823716
0.21484292002201094
0.21043966856956495
0.20539116347789776
0.19525385066032416
0.18935557363986974
0.18971139979362495
0.18699348891258244
0.18662428041458134
0.18482120097637178
0.18013122478961946
0.1819391448354721
0.18205813310146332
0.1732489944076538
0.16369247988700866
0.16379733549594877
0.15739645556926724
0.14810168162822723
0.14726101743698122
0.14625670252323153
0.1426769198703766
0.14363434257507326
0.14584267894268035
0.1446361679601669
0.1415443846082687
0.1413069431400299
0.13868992494106291
0.14034820392131803
0.14686375829696652
0.15275676232337948
0.1568251340150833
0.1559182176303863
0.15686197702407834
0.1567728498458862
0.15722687922954554
0.15412471948146816
0.15108477121353142
0.1484786152887344
0.14417564637184138
0.13665024806976317
0.13789575171947474
0.13133868115425107
0.1264419800043106
0.12683901552677154
0.12587077252864837
0.1278311693954468
0.13242550407886505
0.13725780124664308
0.14045368360996247
0.1420057316160202
0.1416685064601898
0.14512267808914184
0.15209506387710572
0.15657224086761473
0.15521310591220852
0.15358978318691252
0.15521889784812926
0.15144543893337248
0.1466821221065521
0.14312703053951262
0.14813546566963195
0.15140662628173826
0.15025813017368317
0.15097898151874545
0.1521313847064972
0.14964050812244412
0.14929110061168668
0.14602127871513365
0.14065806544303894
0.14091715811252592
0.1393229342651367
0.13462771181106567
0.13139029588699339
0.1315944346666336
0.13331702786445618
0.13406581295967102
0.13752852101802826
0.13736601562499998
0.13078804417133327
0.1258759431552887
0.12178947170734404
0.12157819941997527
0.11731077911376951
0.11465604698657987
0.11385823177337645
0.11391968994140625
0.11314933152675627
0.11248092916011808
0.11144771108627317
0.11216054103374479
0.11081271185874934
0.1100639309930801
0.11064632345676417
0.11083268339633935
0.11035498034477229
0.11022579792499537
0.10856166181087488
0.10568513251304623
0.10299448567390437
0.10256961307048795
0.10516241798877714
0.10333769234657286
0.09649964380264281
0.09173406476020812
0.0915102794933319
0.08983267650127409
0.08971644820690154
0.09231653669834136
0.09187260526180267
0.09650297746181488
0.09355404768943791
0.08850985537052156
0.08775163251876833
0.08788914370536804
0.08727288681983948
0.08780892998695372
0.09133792523860931
0.09212232068061828
0.09400501755237581
0.09606839086532594
0.09759969965934755
0.09745073697566987
0.09926720497131347
0.10322115447998045
0.1072703336906433
0.1058080832386017
0.1082514656305313
0.1120715017080307
0.11161715613365172
0.11436264724254608
0.11556119176387787
0.11687843745708466
0.11607549510955811
0.1169600175857544
0.11814582923412324
0.11738716699123383
0.11752340566635132
0.11941735641479494
0.11940001408576965
0.12075678214550017
0.12392764352321624
0.12453220562458038
0.12698338969230652
0.13177061336517334
0.13720515702247618
0.13853765637874602
0.1353961930656433
0.1355548353385925
0.13903940124988554
0.1415411457061767
0.1401283851099014
0.13885695797920222
0.13870696285724635
0.14021482554912562
0.1411713714122772
0.1411479160737991
0.1395407401180267
0.13870001454353328
0.140088876042366
0.13571362915515894
0.137693682436943
0.14050626919269557
0.14166516899585718
0.14189581941604612
0.1417172830247879
0.13946340564727783
0.13879817900657654
0.14209863280296325
0.14063340035438535
0.13865460265636442
0.13720212408542634
0.1371296659708023
0.13471927609443665
0.12778431592464448
0.12176758668899539
0.12090940982818603
0.1132135260772705
0.10811204464912412
0.11137390959739683
0.10685887891769408
0.11052276636600493
0.11176299977779384
0.11444846481800075
0.11691707143306727
0.11667792698383327
0.11913181641101833
0.12043185281753535
0.11859950266361233
0.11830580405712125
0.11715707626819606
0.11589368413448332
0.11599140769481656
0.1143647614097595
0.11116013776302339
0.10539286148548127
0.10478009006500245
0.10453626756668091
0.11062795594692233
0.11784573115825654
0.1174291926288605
0.12187797001838684
0.12817232196331027
0.1321373388528824
0.13199058748245243
0.13081641792774204
0.13248946741104128
0.13549284747123724
0.13571165703773502
0.13357190100193025
0.13449956105232241
0.13138338650703432
0.1276347448205948
0.12547133498191834
0.12287086353778841
0.12255246689319614
0.12561819159507753
0.1226912145376206
0.119351474313736
0.1201020922470093
0.11797091957092286
0.11824704964637758
0.12050223216056827
0.12187683436870576
0.12223345963001254
0.12339273611545565
0.12435763357162478
0.12398016124248507
0.1218761306858063
0.1193514559364319
0.12080867340087893
0.1159482078075409
0.11388096146106723
0.11160758746623996
0.1086519987010956
0.10776158556938173
0.10892992503643038
0.11199747326374057
0.11521088665008547
0.11521587337970736
0.11473278173923493
0.1129399015569687
0.11364693227767945
0.11226024484634399
0.11169620990276335
0.11736293211460114
0.1195477622270584
0.11987468434810637
0.11732434779644009
0.11143535705566404
0.10833514699935912
0.10638029395103457
0.10385171732425694
0.10217967886924746
0.09966199773788458
0.09925349258422854
0.09835151799201969
0.0960739257001877
0.09626147511005405
0.09808909655570985
0.09784421385765078
0.09659697602272034
0.09827496245861056
0.10013314268112185
0.10153930527210239
0.10508567295074464
0.1063463158273697
0.1056268550014496
0.10739903856754303
0.10815754745006564
0.10925124273300173
0.10782005008220676
0.10511147207260133
0.10366029814243316
0.10442395307064055
0.10443587435245513
0.10437984173297879
0.10448650615692139
0.10419740019798276
0.10630493340492247
0.10650970180034637
0.10773845890522002
0.10991963429450989
0.1108802551984787
0.11034318452358245
0.1129577887058258
0.1099054987812042
0.10806792162895201
0.11043734874725342
0.11555373563289642
0.1178152449417114
0.11921215403079988
0.12416560179233552
0.12992838267326354
0.12873771476268767
0.12462100355148312
0.12255501973152158
0.12828423619270324
0.13022836311340327
0.1268012195968628
0.13170725111961365
0.13372641796112059
0.13076055481433868
0.12851605696201326
0.1302592224931717
0.1321179746389389
0.1326553622627258
0.1316889295721054
0.13057171057224273
0.1283054850721359
0.13089316484928132
0.13710036593437194
0.13798275775432586
0.13512734315395353
0.1347324629497528
0.13070648967742918
0.12973874450206754
0.13114069883346555
0.1293373791027069
0.1312818717908859
0.13402315782546997
0.13406474519729614
0.13712101644039154
0.13766986035346984
0.14310707855224608
0.14529765211105344
0.1491582719039917
0.15648554718971253
0.16065873655319213
0.15992579213619232
0.15774992784023284
0.1609581353187561
0.16415315302848818
0.1654091297054291
0.16543380710124966
0.16524214528083803
0.16653818831920625
0.16380845124721524
0.15924318650245667
0.1544169587850571
0.1528858616447449
0.15246449713230137
0.1467877720499039
0.14293945721149448
0.14161387073516848
0.14303699403762823
0.1437374218797684
0.13958520167350774
0.13315336344242096
0.1322596379041672
0.12697353119373325
0.12159960397720339
0.12037481149673464
0.12161206993579865
0.12208920447826387
0.1204356296682358
0.12014711958885194
0.12138594039916993
0.12024562923908233
0.12222479459762571
0.12108545661449434
0.1160164315843582
0.11348277015209197
0.11713125308036804
0.12000717827320095
0.12085785922527309
0.11763797346115108
0.11928962617397307
0.12100232719421383
0.11754463389396667
0.1168646003961563
0.1169112194395065
0.11443135299205778
0.11417779229164121
0.10955624572753907
0.10616464268684388
0.10367224270820617
0.09563319885730745
0.09614388115406039
0.09945858816146852
0.10233611881256106
0.10963901841163637
0.11487760526657102
0.11583150246143338
0.11865088945388791
0.12509745257377622
0.13328675677776336
0.13784278515338896
0.13993159400463104
0.14497418541431425
0.1453100396823883
0.14552153551101682
0.14670169887065887
0.14499030185222625
0.1466395199918747
0.14747316696166993
0.1456873255252838
0.1477319593667984
0.15449223512649535
0.15980920506000518
0.1625581840133667
0.16272081966400148
0.1633079858016968
0.16561775711536406
0.16797886965751643
0.17115305389881133
0.17428243317604064
0.1764406762981415
0.1774373326063156
0.1780926922178268
0.17839329596996303
0.17830264056205747
0.1781410833215713
0.17705238706588744
0.17670767032623289
0.17665017872333524
0.17690001581192016
0.176253380022049
0.1754673819589615
0.17435122900009156
0.17248025341510773
0.17220408542633056
0.17355797897338865
0.1756934509801864
0.1755747189521789
0.17748301014900203
0.18123571069240563
0.18752671195983883
0.18470962590217588
0.17947209530353547
0.17685595953464503
0.16521542712688445
0.1565005151081085
0.15801910426616667
0.15651016146659852
0.15055336601257324
0.14608577478408813
0.14290157481670376
0.1430269100379944
0.14133864745140076
0.13968323843479158
0.14262727585315704
0.14708897952079775
0.1487471181869507
0.15302794197559358
0.1591543681383133
0.16256736469268798
0.15935886229991914
0.15355188720226284
0.14795710205554963
0.14588312565803527
0.14715335179805755
0.1473874499177933
0.14611867574214935
0.1475334771633148
0.1481819447994232
0.14637171355247497
0.15448561595439908
0.1685012303161621
0.17322257006645198
0.17323201240062713
0.17746501823902128
0.17747853340625763
0.1751585556268692
0.17293828375339504
0.17269577660083768
0.17380035582065578
0.1727432291555404
0.1718826042127609
0.1740159017515182
0.18058556108951562
0.18957726328372948
0.19043807590007777
0.19488209345817561
0.2068759636878967
0.21576130431175233
0.21177507912635807
0.2100433807134629
0.2136145792865754
0.21708399875164036
0.21710923548221595
0.2178766630315781
0.2159724241638184
0.2122976923322678
0.21030002337455747
0.20903034236431123
0.20636504879951478
0.20595641473770146
0.20277045938491828
0.19906905537128453
0.19945074317455294
0.19521510281562807
0.18936815855503084
0.18778607746601106
0.18264689534664158
0.17512527830123908
0.1738430576896668
0.17491355048179633
0.17341677156448365
0.1728227207756043
0.1730702072620392
0.1722826528072357
0.17565689362525938
0.17811914076805113
0.17363800323486323
0.16927574950218197
0.16815638346672057
0.158005596446991
0.1475386334705353
0.14785473176956176
0.14971585725784306
0.14880405371665956
0.15935789786338808
0.16486476956367493
0.16840630998611453
0.17172631137847902
0.17161789678573613
0.1733652247238159
0.17262347015380858
0.1706103394412994
0.16349973387718197
0.1571535087966919
0.1581022713661194
0.1511837011051178
0.14102521596908568
0.1375069390964508
0.14080403921127319
0.13757666903495788
0.13912105577468872
0.14396430774688718
0.14893589472770688
0.15070577960014342
0.15103641920089717
0.15074639154434202
0.15595275254249572
0.1628759668636322
0.1659006834316253
0.16538203339576715
0.17259724842071528
0.18071902792930594
0.18520270298957814
0.18618853732109064
0.1857979214668273
0.18775014986038205
0.19214570574760434
0.194363931312561
0.19159745791435243
0.1908616208744049
0.19094353123664853
0.19121537050247192
0.19025020368576048
0.19034656735420227
0.18707100696563722
0.1824034260463715
0.18117343872070316
0.18078534588813785
0.1824865470027924
0.18617609075546265
0.18593404811859135
0.1796711374950409
0.18120153335571285
0.18208654758453366
0.17185828583717344
0.16604922686576845
0.1617489455413818
0.15960048986434938
0.16263335416793825
0.1600844893836975
0.16170283315658568
0.1632448023891449
0.16392232144355773
0.16367999977111813
0.1611733783721924
0.16041918612480163
0.1568706856536865
0.14983598258018493
0.14512468695640562
0.14454853276252744
0.13795644845962524
0.13269158716201784
0.12929623055458067
0.12822228720664977
0.12821675577163694
0.13009770627975464
0.12732035816192622
0.12253433308601373
0.12330272026062009
0.12307333812713621
0.1193603174114227
0.11181559268951417
0.10870695684432982
0.10771800044059754
0.10816493429183958
0.10547694891929625
0.10159528670310974
0.09742880582809449
0.09859192464828492
0.10362788206100465
0.10932854137420656
0.11024036304473876
0.11476404567718505
0.11995868288040161
0.12287868185043337
0.12352285329818725
0.1245683713340759
0.12658566435813903
0.1255661572742462
0.12015291503906247
0.11932160547256469
0.12280798383712767
0.11671275891304013
0.11722344782829282
0.12341754286766049
0.12514964299201967
0.1292055898475647
0.1287708268070221
0.1285172520160675
0.13365775012016295
0.13196586042404176
0.133919329366684
0.13520993576049808
0.1328546578598023
0.13225755157470706
0.13390410913467413
0.1343706285476685
0.13480673589706427
0.13456203087806706
0.134742642736435
0.13480972307205205
0.13277228690147405
0.1356278923130036
0.13905109680175787
0.139935332069397
0.1373238429832459
0.13424248939514163
0.132458534526825
0.12889198820114137
0.12881251445770264
0.12793217752456665
0.12986307369232178
0.12822544971466066
0.1317899025821686
0.13711241331100466
0.14165091150283815
0.1401899676704407
0.1431931744575501
0.1436326131343842
0.13760025623321534
0.13298461234092712
0.13774715483665464
0.13869061783790587
0.13215253764152524
0.13175450266838074
0.1348419007396698
0.1353138150405884
0.13357413488388065
0.13159623058319095
0.13174466974258428
0.12884651131629948
0.1239498147773743
0.12384278826713563
0.11798732467651371
0.11133842378616338
0.1125305207061768
0.11088418268203742
0.10870043540000923
0.10477976107597357
0.09904653376579288
0.09911981616020209
0.09576410266876226
0.09301765006065371
0.09295389034271244
0.09388138608932495
0.0958221735858917
0.09881694372177123
0.09813116491317748
0.10217873314857481
0.10846654546737669
0.11409740944862364
0.11536143750190733
0.11519695801734922
0.11946142008781432
0.12446320753097533
0.12503064373970033
0.12846436096191405
0.13081813518524169
0.13093914258956907
0.13259247755050657
0.13146280395507812
0.1293095509624481
0.12993917861938475
0.12857101989746092
0.12555032536506652
0.12216367127418516
0.1237159383201599
0.12292113477706908
0.1218562715244293
0.1221321155452728
0.12302923666954038
0.11992027771949766
0.11498435979843137
0.11804334417343137
0.11980523832321165
0.12137906874656673
0.1214555187988281
0.12208353046417234
0.1244518409633636
0.12574573617935178
0.12515922914505004
0.12610026199340818
0.1264272370910644
0.1264704269123077
0.12702195922851559
0.12542698638916014
0.12337721505165097
0.12486006635665892
0.1251859344577789
0.1293043539905548
0.13244608187675475
0.13215580181121825
0.13459118472099302
0.13611743928909298
0.13534370668411252
0.13204104913711545
0.1283719641971588
0.12935032877922054
0.1253322990608215
0.11915194952964782
0.11481448996543885
0.1153191882801056
0.11331721185684206
0.10499481295585633
0.0984101139736176
0.09905670458793642
0.0976350599575043
0.0963469112968445
0.09625714541435243
0.0946272939014435
0.095662726020813
0.09915716837882997
0.10185175934791565
0.10135465907096862
0.09947571325302125
0.09939166622161866
0.09859139181137083
0.09652976338386533
0.09654498543739316
0.09646647305488586
0.09807723276138304
0.09876087498664855
0.10057861825942992
0.10354510132789611
0.1004950549697876
0.09666159065246582
0.09640038352966311
0.09548937562942507
0.09490156644821168
0.09383019544601438
0.0966302100086212
0.09939883056640625
0.09874229154586792
0.1031554552459717
0.10700629481315613
0.10560362463951112
0.1113828467464447
0.1163774308490753
0.11748029560089111
0.11604595428466799
0.11729232193946841
0.12179711799621583
0.11930734532356263
0.12177770062446594
0.12418469339370729
0.12415472955703738
0.12557938662528995
0.12455624980926515
0.12562984524726867
0.12685339577674867
0.12612814874649048
0.12379192669868468
0.12194241457939146
0.12319389689445494
0.12495007184982299
0.1242657409095764
0.12273824929237366
0.12070464237213134
0.11826107840538025
0.11843122789382933
0.1171607881736755
0.11467732190132138
0.11238669092178341
0.11065934973716735
0.10939585591316221
0.10826161761283874
0.10751327497482299
0.10680824114799499
0.10539883762359618
0.10544851254463194
0.1017028502178192
0.10053842443466184
0.10031340562820434
0.09476330519676208
0.09382259429931641
0.0927736564731598
0.09106380943298341
0.0925650325870514
0.09409066774368288
0.09664980440139771
0.09574877799034119
0.09320564940452575
0.09361153164863584
0.09057352606773375
0.09067152935028075
0.09799395883560179
0.09518442294120788
0.08953296368598938
0.09150638164520263
0.08956290767669678
0.08746931957244876
0.08777125506401064
0.08894550520896914
0.0883258931350708
0.09093357330322266
0.09538258619308472
0.09680303170204162
0.09887366027832031
0.09967425981521608
0.10020459754943849
0.10036510867118836
0.09999596280097962
0.10088770381927491
0.1018417151451111
0.10204128815650941
0.10212669176101687
0.10205977473258972
0.1013331397151947
0.10071518173217774
0.1008343531513214
0.1000681985092163
0.09926255425453184
0.10007971107482909
0.10053336010932921
0.10396238562583923
0.11190889714241027
0.11832844140052794
0.12117690650939941
0.13310609838485718
0.14444520511627199
0.14564584239006043
0.1493315132713318
0.15149995730400087
0.15263638048171996
0.15213273822784423
0.1555093618106842
0.16041991026878358
0.15973659103393553
0.1572141031551361
0.15447787733078003
0.15345325880050661
0.15255973771095277
0.15313428961753847
0.15196722521781922
0.14647182217597962
0.1404232111930847
0.138131659450531
0.13677398199081423
0.13391746118545533
0.1328204152774811
0.13101398856163024
0.1270190140724182
0.12600981086730956
0.12232091946601868
0.11707140921592712
0.1126132377243042
0.10995411859512327
0.10863715945243832
0.10669409888267514
0.10444726291656492
0.10335295858383178
0.10372614084243774
0.1021537522125244
0.09918612145423887
0.09740049212455747
0.09809317244529721
0.09938173032760618
0.09907062479972838
0.10161363762855528
0.10340075541496273
0.10378755827903743
0.10867516015052793
0.11278111047744746
0.11268814559936519
0.11317479017257685
0.10776717323303218
0.1030445627593994
0.10356523324012754
0.09367759168624876
0.08351886980056764
0.08335666933059693
0.07762659915924072
0.0792591055393219
0.08690002779960634
0.09147225202560426
0.08745927223205568
0.085116190738678
0.08662213310241702
0.08812084728240968
0.09111358593940738
0.09464413949012758
0.09757776721954346
0.09738668904304505
0.09682563059806826
0.09722261169433595
0.09847000954627994
0.10167957645416262
0.10663727780342104
0.10943145414352419
0.11012151026725771
0.11203353958129884
0.11830760781288151
0.12559464883804325
0.12957824844360352
0.12905298106193544
0.13025896265983583
0.1301441400051117
0.1307818822002411
0.1313980297756195
0.13123373885154724
0.13118515002250672
0.1304490536403656
0.13046232132911684
0.1319247435283661
0.13392076955795287
0.134512712059021
0.13377364807128905
0.1341674645614624
0.13183751102447508
0.130069431476593
0.13188651116371153
0.1280138086223602
0.12265264527320859
0.12321058295249937
0.11989227808952328
0.11983614891052245
0.1211474461174011
0.11955523750305172
0.11753246767044065
0.11775616312026975
0.1169410816287994
0.11715293756484985
0.11191493795394898
0.1031353997993469
0.09820629327774048
0.0994566617679596
0.10068000628471373
0.10013373394966125
0.10181592721939085
0.10619145229339598
0.10576257871627805
0.1053675849342346
0.11039923613548279
0.11462899493217468
0.1157321829509735
0.11342031231880188
0.11117261472702028
0.10947518944740299
0.10772133444786074
0.1070794735145569
0.10596112933158876
0.10307746399879456
0.09942289301872254
0.09618763802528381
0.0971541356754303
0.09575474752426148
0.09626753497123719
0.09544777056694033
0.09434467969894411
0.09454389550209048
0.09500413275718693
0.09725769931793217
0.09922615294456484
0.0975167558670044
0.09666551595687867
0.09670899188995362
0.09606955348968507
0.0971880080986023
0.09758777564048766
0.10076249749183655
0.10733115485191341
0.11178847431182856
0.11596122817993158
0.12551479653358455
0.1293976366996765
0.12905039825439452
0.1262739315319061
0.12852610549926755
0.1314108020210266
0.12971120381355283
0.13031357089996334
0.13029320827484128
0.1301442903423309
0.13125817274093626
0.1331262805843353
0.13568948020935057
0.13560831151008604
0.13495705131530758
0.13401765918731687
0.13272103458404538
0.13359736279487608
0.13153405290603634
0.1321491512107849
0.13502764369964598
0.1354851981163025
0.13716289752960206
0.13582804555892947
0.13329035162925723
0.13138251266479498
0.13422530200958258
0.1355868982791901
0.13136320146560673
0.13146607982635503
0.13479696059226995
0.13469216832160955
0.13731968585968024
0.14072908466339118
0.14132506777763373
0.14411120189666757
0.14640724186897283
0.14612782171249397
0.14743595753669744
0.1467729712486268
0.1486732021427155
0.14910292416572576
0.14734373448371893
0.14734531136512763
0.14601228991508491
0.14546639255523686
0.14194951971054082
0.13326808689117436
0.12753372298240667
0.12284661974906923
0.11410819356918336
0.11215610676765446
0.10990680298805239
0.11339636126518253
0.11531359230041506
0.11759930293083193
0.12033547693252565
0.11946716123580932
0.11996574349403381
0.12339809601783752
0.12765653176307676
0.12912259287834169
0.12635189447402953
0.1229638586616516
0.12203861075401305
0.12161548647880553
0.11738371464729307
0.1148451690673828
0.12163407864570618
0.12510147701263427
0.12588944326400756
0.12622893335342408
0.1268084010887146
0.1305410910129547
0.13392091590881347
0.13605749329566957
0.13507642698287964
0.1351970841789246
0.13830176351547244
0.1344970896625519
0.13191461260795595
0.13212101605415344
0.12998042291641237
0.1271150321865082
0.12721599690437319
0.12486761946678161
0.12603106746673584
0.13258163088798522
0.13524513291358947
0.13695014914512632
0.14976498540878294
0.16477981829643248
0.17273884033203124
0.17514512587547304
0.18279686397552491
0.18838165906906126
0.19007817891120912
0.1910272840499878
0.19291685614585877
0.19386114645957947
0.19355338101387023
0.193735846118927
0.19402135089874267
0.19207524588584898
0.187446622428894
0.1821195633411407
0.18234771367073055
0.18743548168182372
0.1905548239135742
0.1876640492534637
0.18717986288070673
0.18749631872177122
0.18788869198799132
0.18758212607383729
0.18730687071800234
0.1846804099559784
0.18262463473320006
0.18116310250282286
0.1756351834964752
0.16862426109313966
0.16384561580657958
0.1633236495113373
0.1621633408641815
0.1636172640800476
0.16792896459579468
0.17015714146614072
0.17122113492012023
0.17477473055839535
0.17766060660362243
0.18016915994644161
0.17894239902496337
0.17851683770179747
0.1789591912174225
0.17889648623466492
0.17882780147552488
0.17877486865997314
0.17629872617721548
0.17258399724006648
0.17196964489936825
0.17461274822235107
0.16141268463134764
0.1498693892288208
0.15136253801345823
0.1542258443069458
0.14851087769508362
0.1475260232448578
0.14651271827697754
0.146282676153183
0.14386517556190492
0.14481548419952395
0.1439252551651001
0.1432761191272736
0.14603810161590577
0.14507079842567447
0.14519648080825806
0.1468506171989441
0.14430158967971804
0.13929119629859926
0.13619952646255493
0.13627201340675354
0.1320134401035309
0.12754826383590698
0.1279883333683014
0.13089732718467711
0.13354270177841188
0.13663873259544373
0.14101645949363706
0.144994601020813
0.14547705847740175
0.14364698252677918
0.14487239220619202
0.14819667679786683
0.15063268281936648
0.14617176785469055
0.13909780779838563
0.1364078249549866
0.1340985596561432
0.12780265301704408
0.12439515278816227
0.12486576151847842
0.1265234159946442
0.12603732398033146
0.1269879550457001
0.12807941477775578
0.12705417376518255
0.13033058629035954
0.13515973841667178
0.1359450250530243
0.13054197265625006
0.12839164303779607
0.130380570268631
0.12616280368804933
0.11604702192306517
0.1120592368030548
0.11338635289192198
0.11079713272094725
0.11288200879096984
0.11956794159889221
0.1250906296443939
0.12516041608810424
0.13241881908416747
0.1379539349555969
0.13829979082107544
0.1380437828350067
0.13709363887786866
0.13765990885734558
0.1408969658756256
0.14269701453208924
0.1417721213054657
0.14241208595275878
0.14287092368125917
0.14333754715919494
0.1417199841785431
0.1395613187599182
0.13813179114341734
0.13653446151733395
0.13291520957946776
0.12840202331542966
0.1272617990016937
0.12810939351081846
0.12586632976531978
0.12223228572845456
0.11895032365798947
0.11754169243812557
0.11676941781997677
0.1157908404922485
0.11627804055213924
0.11689361494064325
0.11439873379707331
0.11458331180572504
0.11714903692245478
0.1191398859119415
0.11786598177909849
0.11735957188606258
0.11796091620445248
0.11468203309059138
0.10891744864463802
0.10439372597694396
0.1056000072288513
0.10705822921752929
0.10917259771347046
0.10823635879516605
0.11665359710693363
0.12281325535774235
0.12047119945526125
0.12098559938430789
0.11995313760757449
0.11317087131500247
0.10907819979667668
0.10865168444633488
0.10189590492248536
0.0944768837928772
0.09270219150543214
0.09554732536315919
0.09880891222000125
0.0984432501602173
0.09562528907775877
0.09626880145072937
0.0983502714729309
0.09726499148368832
0.09630621640205382
0.09688490906715391
0.09743866298675537
0.096844905090332
0.09699394479751584
0.09768200685501094
0.0980686697864532
0.09825983742713924
0.09797804541587828
0.09693712366104126
0.09657953480720519
0.09759656342506409
0.09914864037513732
0.09990203079223633
0.10065540631294251
0.10090912593841553
0.10043055037498475
0.10058049898147584
0.10163012476921082
0.09829125094413756
0.09497352786064148
0.09453974606513978
0.09455612312316894
0.09276874087333678
0.09214542855262754
0.09257013437271117
0.09230927206039427
0.09356676372528072
0.09486515151023861
0.09150317878723141
0.08589250404357907
0.08609174739837643
0.08106206875801082
0.07609913463592527
0.07500466547966
0.07401064846038816
0.07282423443794248
0.07224285861015317
0.07196138341903684
0.07166540375709529
0.07165209011077878
0.0728964210605621
0.07317591926574704
0.0719922185230255
0.069864290895462
0.06815621689796446
0.06766404128074645
0.06514860327720641
0.0629165755844116
0.06238101772308349
0.06325734709739685
0.06490988158226013
0.06614930485725401
0.06594641693115234
0.06444056171417235
0.06467227507591247
0.06694940522193908
0.06712566577911376
0.06898346052169799
0.07253024627685546
0.0744487010860443
0.07342506683349609
0.0717511715221405
0.07189085964202882
0.07347226510047915
0.07490672587394714
0.07412141340255739
0.07377769136428834
0.07389932043075563
0.07483160728454591
0.07432271523475649
0.07308708720207217
0.0726900061607361
0.07306615804672242
0.07314888206481936
0.07229387154579164
0.07209492237091066
0.07107881904602052
0.0688079198074341
0.06750291908264161
0.06812157008171082
0.06860057700157167
0.06733043097496033
0.06568688544273377
0.0666055926513672
0.06788139437675478
0.06953976768493654
0.0697841920375824
0.06883917362213136
0.06754449021339416
0.06620967407226562
0.06528138152122497
0.06435220595359803
0.06295986741065979
0.061706340427398684
0.061564239063262936
0.06127373697280883
0.0609653915977478
0.060994931182861326
0.06098058458328246
0.05989713982582092
0.05722068243026733
0.05634443466186522
0.057941768169403066
0.05921843201637267
0.05761120032310485
0.054425521459579455
0.05437532997131347
0.05305838491439819
0.050067042331695545
0.04637486438751221
0.046095824947357186
0.047408355751037606
0.04709210865020753
0.04460416349411011
0.042570134992599484
0.04262661859512328
0.04127082122802734
0.03996348819732666
0.039117476081848145
0.03874367386817932
0.038510591049194326
0.03801968081474303
0.03789881447792053
0.03828988089561462
0.039304284343719485
0.039883121423721316
0.039976200942993166
0.04120829292297363
0.04200130108833313
0.04213707178115844
0.04296345521926878
0.04209124547958374
0.0416495187473297
0.04222315746307372
0.03986456608772278
0.037333638811111444
0.03719979716300964
0.03776111393928528
0.038050471191406254
0.03817087714195252
0.037671235265731816
0.03676492402076721
0.036075599765777594
0.0357728168964386
0.03570635831832886
0.03592224858283997
0.036602090959548944
0.03775608345985412
0.03857233123779297
0.0383943350982666
0.038910708827972415
0.03912467240333557
0.03891047966003418
0.03802185050964355
0.037731073246002195
0.03795498039245606
0.03735328532218933
0.035850796251296994
0.03508093291282654
0.035686225786209114
0.034432156257629395
0.03294160098075867
0.03233595750808716
0.03203653038978577
0.0317751088142395
0.03183639012336731
0.03191240073204041
0.03219181800842285
0.03228937515258789
0.032049815511703494
0.031947103862762456
0.032381126136779785
0.03257229375839233
0.03236523449897766
0.03178669948577881
0.03159565123558044
0.031805162830352784
0.030703747282028203
0.029777238998413086
0.02888764456748962
0.02664060103416442
0.025401858148574825
0.024736301069259635
0.023710574302673336
0.023678831472396848
0.02348479604721069
0.02311801597595214
0.02284401278495788
0.022576706619262695
0.022514415893554688
0.022868876380920417
0.023517599191665656
0.023975922451019285
0.02381363820075989
0.02451268930435181
0.02536274487495422
0.025090570354461668
0.024423952941894537
0.025183752927780162
0.026657245187759412
0.02680291301727296
0.025546628656387335
0.024008753938674934
0.023579987354278572
0.023223323307037354
0.02296579992294312
0.02344509046554566
0.023982021398544315
0.023759320964813237
0.02327887892723084
0.023087246646881106
0.02291746850013733
0.022509797525405887
0.022187413902282717
0.022309979457855223
0.022824489974975583
0.023865092802047728
0.02466371633529663
0.024564129648208616
0.026036594238281245
0.02817323843955993
0.030087117948532097
0.031225026054382318
0.030840642995834354
0.03249023866653442
0.03425526346206666
0.03454340425491333
0.03401278751373291
0.03394156514167786
0.03447603157043457
0.035445816144943236
0.03682428120613099
0.03777000508308411
0.03753320084571839
0.03702230323791504
0.03707819457054138
0.03682452053070068
0.03668656706809997
0.036606491947174066
0.03639203513145447
0.035957334699630736
0.035344196777343746
0.03476088903427123
0.0348616213607788
0.03416651143074035
0.03320130943298339
0.03293076677322386
0.032265142812728874
0.03120990220069884
0.030432499895095822
0.03019223795890807
0.03020288299560546
0.030203323488235467
0.03035923536300659
0.030842489919662465
0.03129300251007079
0.03107690751075744
0.03049719654083251
0.030115810356140124
0.029949228229522694
0.03011933091163634
0.030087685756683344
0.030169259490966792
0.030638468894958488
0.031022656736373895
0.030700238714218134
0.029940487060546864
0.03000572037696838
0.03123728853225708
0.03044233769416809
0.028055853433609005
0.025737982511520388
0.02501979541778565
0.026666177759170538
0.02617102178573609
0.02479362723350525
0.024182136716842658
0.024435589227676396
0.02489892019271851
0.024867635154724125
0.024254042587280276
0.024206906137466427
0.025046702861785886
0.027229579124450686
0.029204285621643063
0.029119386863708498
0.03058912817955017
0.03165504989624023
0.031864161596298214
0.031963343706130985
0.03222720548629761
0.03213234261512756
0.032976378574371336
0.034269792528152467
0.03506673985481262
0.035159649267196655
0.03504438059806824
0.03504183362960815
0.03544964712142945
0.03678732469558716
0.03842590127944946
0.0392613908290863
0.039968577432632435
0.04225881230354309
0.04547326659202575
0.048514118785858144
0.0505393228816986
0.05112244050979614
0.05115185312271118
0.051717903423309314
0.05209610102653503
0.05254097920417786
0.05295819167137146
0.053207766504287705
0.05317339035987853
0.053107240667343125
0.052726389923095696
0.05159405129432677
0.05026078251838683
0.04949741854667662
0.04965724820137023
0.04983065497398376
0.04914949215888976
0.047814967327117916
0.046721687698364246
0.04627972577095031
0.04630682637214658
0.04609168586730955
0.04552982250213621
0.045333410158157325
0.045016243457794175
0.04368595419883728
0.04219410555839538
0.04028818488121034
0.03850803073883057
0.03861447803497315
0.03773122125625611
0.03715501986503601
0.03711452914237976
0.03740629864692688
0.03799022185325622
0.03891340916633606
0.03887303314208985
0.0380560772895813
0.03741891532897949
0.037196585206985475
0.036834759101867676
0.03710376250267029
0.03606680846214295
0.034181395330429076
0.03268122848510742
0.032396103591918954
0.032240778913497935
0.030068569183349617
0.026385858478546152
0.02289991212844849
0.021217851448059082
0.021341442327499384
0.021812355813980097
0.021432808713912958
0.02130391364097595
0.021573703145980835
0.02149678458213806
0.02082383224487305
0.02046590534210205
0.020501453542709346
0.021007937965393065
0.021692014942169185
0.022107799978256223
0.022265137910842895
0.022583481254577636
0.02257654170036316
0.023585405769348148
0.025708504009246833
0.026879550657272343
0.026776807117462168
0.027720863552093515
0.028156522312164315
0.027991001319885255
0.02820114696502686
0.028955824556350717
0.029533852052688606
0.02930242658615113
0.028899449472427376
0.0289428415298462
0.029185908412933354
0.02858196005821229
0.027713224430084234
0.027369157590866094
0.027272020864486702
0.026968016166687016
0.02646704281806946
0.025730618247985847
0.025131005706787116
0.02490145958900452
0.025102168436050416
0.025677589864730836
0.025990248336791994
0.026467787990570077
0.026592995080947878
0.026202609405517583
0.025594529323577885
0.025097094192504884
0.024775356159210206
0.024551051807403565
0.02445210326194763
0.024096823987960817
0.023508642110824585
0.02303160501480103
0.023057542829513552
0.022902317552566526
0.02233184830665588
0.021791585083007808
0.021938938217163074
0.021926766519546503
0.021683648023605343
0.021247935075759884
0.02079779724121094
0.020727106609344483
0.020894417095184328
0.020704048280715943
0.02056380339622497
0.01939963508605957
0.01700105623245239
0.015359036979675292
0.015188249588012697
0.014094247503280642
0.013631428585052492
0.013692547550201417
0.013367423982620242
0.012825799579620361
0.012869398498535155
0.013435609979629514
0.013726293706893922
0.013318704128265378
0.013262844181060789
0.01365918291091919
0.014055557899475097
0.014045988178253177
0.014096319322586062
0.01429675310134888
0.015097088127136234
0.016077381515502934
0.016131430311203006
0.017067539968490603
0.01737081331253052
0.017178834829330445
0.017489372358322142
0.017335233430862428
0.016866425199508664
0.016662596511840818
0.01712095092773437
0.017800843744277952
0.018231819896697993
0.018320941505432124
0.01824957939147949
0.01809011200904846
0.01784426432609558
0.0177346526145935
0.017829597444534297
0.017771267967224117
0.017869721193313596
0.018494572601318357
0.018727413482666013
0.018671682662963863
0.01891101955413818
0.019393474168777465
0.019632415208816523
0.019382900743484494
0.01905887566566467
0.018846529731750484
0.0189274042892456
0.018950090751647945
0.0194461441040039
0.02029295596122741
0.02072734533309936
0.02051366551399231
0.02137248385429382
0.02318251055717468
0.025218497009277342
0.026434251489639283
0.026225844039916995
0.02569560876846314
0.02575833061218262
0.026173296451568608
0.02576707540512085
0.025541176776885992
0.025541877794265755
0.02571963000297547
0.02551740262031556
0.025131263694763185
0.02416906686782837
0.02312953618049622
0.023301309995651245
0.022375358409881585
0.02165575339317322
0.021316330585479736
0.020578414707183842
0.02052636289596558
0.02126304800987244
0.02228666952133179
0.022951797733306883
0.02322992238044739
0.02328214758872986
0.023379930429458618
0.024487639589309693
0.026487344446182254
0.028860682439804077
0.030208502159118654
0.030109732637405396
0.031173181848526
0.03199140645980835
0.03201203520774842
0.032126860990524295
0.03256877669334412
0.03276522847175598
0.0324728727054596
0.03214879295349121
0.03219555580139161
0.03228669469833374
0.03229307772636414
0.03219563109397888
0.03233213651657105
0.032303113412857055
0.03210304111480713
0.03224176503181457
0.03339022478103638
0.03366568271636963
0.0324954742527008
0.030273269128799442
0.029074349384307863
0.029106619510650637
0.029205829200744632
0.028886981945037846
0.02887663526535034
0.029677591228485106
0.030272140836715696
0.030463076887130732
0.030389413328170772
0.03130192134857177
0.03274914521217346
0.034432839345932005
0.0357347486782074
0.03630450309753418
0.03684768883705139
0.037134650869369505
0.03752728185653686
0.03812762489318847
0.0380043978023529
0.037500620374679564
0.036550001115798945
0.03543506972312927
0.03442465603828429
0.03416140130996704
0.03426448391914366
0.03311614434242248
0.031055282392501823
0.028785494499206535
0.027417837820053092
0.027187538642883292
0.026012042903900138
0.025097542381286617
0.024725296878814692
0.024462388668060296
0.02402980946540832
0.0235540098953247
0.023414900922775265
0.02328545769691466
0.023662690563201895
0.024348158645629874
0.02501107446670531
0.02544603847503661
0.02545463391304015
0.02501927966117858
0.02434527961730956
0.023669663915634142
0.02279098592758178
0.021818603219985955
0.021142135419845574
0.021262203960418696
0.020915456886291504
0.020421218986511232
0.020116920919418337
0.019926902236938476
0.020270592746734623
0.0204411095905304
0.019559977836608886
0.020371674880981443
0.02200848113059997
0.02244297532081604
0.022077524356842043
0.02157997850418091
0.021253518466949464
0.020776935863494876
0.020135526380538945
0.020189131221771243
0.020440701112747192
0.020426382112503055
0.02066373558044434
0.02065611821174622
0.020697208194732662
0.020860776214599606
0.020987564344406125
0.020808998413085936
0.020913183002471924
0.021344010744094845
0.021795152015686037
0.022142381839752204
0.022448258895874026
0.02276982284545899
0.022887694759368898
0.022774195299148564
0.02252018354415894
0.022240098466873172
0.022141085720062265
0.022237265443801887
0.022148026485443117
0.022175619773864747
0.021832024517059328
0.021177443227767944
0.02050596376419067
0.020066857624053958
0.020047552785873415
0.020460657587051397
0.021135688734054567
0.021609264268875123
0.021781805267333986
0.02178636944770813
0.02189636474609375
0.022008043022155765
0.022225305309295656
0.022327924385070808
0.022207951421737676
0.02211835148811341
0.021324110202789306
0.020361297616958617
0.020344637975692748
0.019043534660339357
0.01740740852355957
0.015989027748107912
0.014551964740753175
0.013214204921722419
0.012346506071090701
0.012063968915939336
0.01199708117485047
0.011779744882583622
0.01151984907150269
0.011491052474975587
0.012032713174819947
0.01298054964065552
0.01373313117980957
0.01399469916343689
0.014057059192657474
0.013988397979736326
0.014324664640426636
0.015387151079177853
0.016545709085464474
0.016807013463973997
0.01681094399452209
0.017472406501770017
0.018300159912109374
0.01920021931648254
0.02018298261642456
0.02130594284057617
0.022356514692306515
0.02296375091552734
0.02315803792953491
0.023327923097610476
0.02366222133636475
0.02407581155776978
0.02429494416236878
0.02438811655044556
0.024486802835464477
0.02418501742362976
0.023509025602340698
0.0229570917224884
0.022614769630432123
0.02276259567260742
0.022922066793441765
0.02284047840118408
0.022939204664230342
0.022946340274810784
0.023098282918930055
0.023219215841293325
0.023260473432540885
0.023341342439651486
0.023366074895858763
0.02356315304756164
0.024012742767333985
0.02450649395942688
0.024849195976257326
0.024923773508071904
0.02495289723396301
0.02514600169181824
0.025382101011276244
0.025349451417922976
0.02495404333114624
0.0242649031829834
0.023279560594558716
0.022136674337387086
0.02122348752975464
0.020777519874572756
0.02071740543365478
0.020858159904479975
0.02031762034416199
0.018981899251937866
0.017677240829467776
0.01742173686027527
0.01750533814430237
0.016971973018646242
0.01634225856781006
0.01569938214302063
0.014914302129745483
0.01390657025337219
0.012872240705490113
0.012194081459045412
0.011926941442489626
0.011698656368255617
0.011232604608535767
0.010689123353958132
0.010458842239379887
0.010434944343566899
0.010238469448089602
0.010168915548324584
0.010384568481445313
0.01060660147666931
0.01083004550933838
0.010777220487594602
0.010832064104080198
0.011077317113876339
0.011093608398437498
0.011291686134338374
0.011384663505554197
0.01134197911262512
0.011339720230102539
0.011269725914001464
0.011191999425888062
0.010943947343826295
0.0104939696598053
0.010000980510711672
0.009642830572128296
0.009445762701034546
0.009325514049530031
0.009223147354125978
0.009190367946624757
0.00935670102119446
0.009742429828643798
0.010194500665664671
0.010609924211502073
0.011022846117019652
0.0113959579372406
0.011592107448577882
0.011571470994949342
0.011395916681289675
0.011277027454376221
0.01132744034767151
0.01136161233901978
0.011306678285598757
0.011256829223632813
0.011179393777847291
0.010895081348419189
0.010741696386337278
0.011017604560852047
0.0117320171546936
0.01287385932922363
0.01424411985397339
0.01532870138168335
0.015692210111618043
0.015763896207809446
0.015759285106658933
0.01597435667991638
0.016324978294372558
0.016495171728134153
0.016432303934097284
0.016317211809158322
0.016217140235900877
0.01604152743339538
0.015727200546264645
0.015549095487594599
0.015517873601913448
0.015503008241653437
0.015339078845977778
0.015165085754394524
0.0152872031879425
0.015494574537277216
0.01570886870384216
0.01593714917182922
0.016155720691680905
0.016369548978805538
0.01665652397155761
0.017035142545700068
0.017422148799896238
0.017667065277099606
0.017679045095443723
0.017484936389923093
0.01718209949493408
0.016848588981628415
0.016597840185165406
0.016433227739334106
0.016064355306625366
0.015939344501495364
0.01635089618682862
0.01714558881759644
0.01802480571746827
0.018582693328857428
0.018725009307861334
0.018790047435760505
0.018852727251052862
0.018691848630905155
0.018360275144577033
0.018226004037857062
0.018087037372589116
0.017652051811218265
0.016870655078887943
0.015738610229492186
0.014469648199081421
0.013517137136459348
0.013183640289306638
0.013123335428237912
0.013165537796020503
0.012932290916442865
0.01254292532920837
0.012327462759017938
0.01218165474891662
0.012148349123001091
0.012047761392593377
0.012283958644866937
0.012718100280761712
0.012880141611099237
0.012809302616119378
0.012759177227020257
0.01300193834304809
0.013516116857528682
0.013901357402801509
0.01403651898384094
0.013875490541458126
0.013689872703552241
0.013561064901351923
0.013518518342971797
0.013483217353820796
0.013370764884948727
0.013177009363174437
0.012884831056594846
0.012878209791183468
0.01302142636299133
0.013242496500015258
0.013454079799652099
0.013373295164108274
0.013167147340774534
0.013120535955429075
0.013182925453186035
0.013395644416809087
0.013649958486557012
0.013898422002792364
0.014290930576324462
0.01473639407157898
0.014754314365386965
0.014416525535583497
0.01471343891143799
0.015191171607971192
0.015533680067062381
0.015723182725906372
0.01571734084129334
0.015819897174835208
0.015821959762573244
0.015774451408386233
0.015745117378234863
0.015918647174835206
0.01643632452011109
0.016997839698791508
0.017249394788742066
0.017192337045669557
0.01742818400382996
0.018232910451889038
0.018759026794433597
0.01874422458648682
0.018592963867187503
0.018395447349548344
0.018064462528228763
0.01806071290969849
0.017994618616104126
0.01762894437789917
0.01706034523010254
0.01660527626991272
0.016505144138336182
0.016654462547302247
0.01665160310745239
0.016457082595825193
0.01620524238586426
0.016067669935226445
0.016042298917770387
0.016046040668487548
0.016132798614501957
0.016007015552520754
0.01589176268577576
0.015775376462936405
0.015521508865356446
0.015444844093322753
0.015359953985214232
0.015539327993392945
0.015720242900848388
0.015627969789505
0.015321702547073364
0.01475606074333191
0.013886603813171387
0.013003052949905397
0.012601563510894778
0.012603029098510743
0.012139004545211794
0.011635640420913697
0.011403975191116333
0.011363620433807375
0.011444028301239015
0.011358591680526735
0.011483492660522461
0.011596654825210571
0.011703011302947996
0.011833274106979368
0.011799616823196407
0.011815671377182004
0.01209648539543152
0.01232689214706421
0.012038656549453736
0.011406880092620853
0.010862655181884767
0.01084048583984375
0.010784717283248903
0.010844251689910888
0.011264899272918703
0.011420216894149782
0.011466348800659183
0.01151270401954651
0.011555404710769657
0.011531286029815672
0.011269031953811647
0.01122534592628479
0.011420092897415161
0.011669014120101929
0.011946929426193237
0.012331854372024536
0.01272442727088928
0.012923350028991698
0.012950543880462646
0.01301251601219177
0.013174927082061765
0.013329286708831788
0.013416292848587036
0.01335499345779419
0.013413574457168578
0.013352829017639161
0.012866585559844969
0.012236185922622681
0.01156633490562439
0.010966819629669191
0.010943902397155763
0.011131966800689699
0.011194664888381958
0.011194774541854857
0.011377320985794068
0.011796557302474977
0.012039062414169313
0.011990171203613282
0.011959692306518555
0.012072247619628907
0.012077314577102663
0.012089307107925417
0.012127605829238894
0.01205919499397278
0.011724642667770386
0.011110594568252561
0.010545736455917356
0.010452213525772094
0.01063256664276123
0.010663532085418701
0.0107502273273468
0.010899597120285032
0.0109801003074646
0.010882408208847045
0.010484532938003539
0.010104484596252444
0.009789852838516236
0.009682286701202393
0.009655343961715697
0.009793043975830078
0.01022848982810974
0.010535064783096315
0.01080586016654968
0.011122325296401976
0.011169957485198974
0.010750678997039792
0.010192643270492551
0.009922658147811889
0.00996127655982971
0.0100121044921875
0.009884306621551512
0.009694979810714719
0.009654769659042356
0.00981355466842651
0.01007477986335754
0.010335383138656616
0.010564268751144407
0.010413049812316893
0.010255844659805294
0.010314953527450559
0.01039470592498779
0.010577438812255858
0.010828818569183347
0.010939387350082395
0.01069757391929626
0.010298187627792355
0.00994744723320007
0.009941785163879393
0.010138980989456174
0.01036097852706909
0.010509943847656246
0.010533331098556517
0.01045275845527649
0.010218664360046387
0.01029827965736389
0.010688049182891846
0.010724638395309447
0.0110568888759613
0.011331991081237794
0.011362398891448975
0.011366892185211181
0.01149405403137207
0.011604421215057375
0.011658996925354003
0.011865838670730591
0.012079867801666262
0.012355651168823242
0.01253914680480957
0.012523742027282715
0.012385297307968142
0.012021328287124634
0.011625264587402344
0.011201459836959839
0.010679196052551269
0.010378216342926024
0.010330520591735838
0.010538808860778808
0.01073234971046448
0.010931933889389038
0.011316065816879273
0.011800200605392457
0.012107185926437381
0.012194430570602417
0.012100189542770388
0.011821385784149173
0.011478520059585575
0.011289253292083745
0.011650670299530033
0.012169160470962528
0.012765564308166506
0.013273917541503907
0.013646621198654176
0.013757300977706909
0.013704242267608642
0.013856005420684814
0.01419921082496643
0.014475613117218017
0.014440257873535155
0.014532985029220579
0.014557259368896482
0.014583400859832764
0.014669018936157225
0.014557744731903077
0.014858462858200075
0.015002481861114502
0.014761480045318607
0.014777751588821417
0.014428881044387823
0.014023636293411261
0.013795951766967778
0.013667240171432499
0.0136209773349762
0.013734335975646977
0.01398088362693787
0.014174631128311162
0.014217826557159429
0.014182813224792487
0.014203596954345707
0.014479165811538701
0.014811046190261846
0.015256156158447267
0.015528673915863038
0.01550499754905701
0.015588477678298952
0.01580024808883667
0.01605997283935547
0.016041370058059695
0.01579136805534363
0.015575415019989016
0.015439379692077641
0.015470364923477177
0.015727356529235844
0.01593647149085999
0.015991485872268684
0.016113939037323003
0.016364931697845465
0.016556832885742192
0.016331552009582525
0.01602809975624085
0.01582768670082093
0.015508020811080941
0.01504746101379395
0.014841607894897463
0.01495663284301758
0.014879851474761962
0.014584858150482178
0.014433348188400268
0.01434113268852234
0.014000639371871949
0.013672798147201537
0.01339348430633545
0.013156777439117431
0.013206791343688963
0.013078865489959714
0.01295474208831787
0.013027172470092772
0.01316764094352722
0.013228541173934936
0.013322160243988038
0.013532087249755862
0.01371046120643616
0.013657936191558839
0.01341850814819336
0.013127052526474002
0.012809487199783323
0.01253543116569519
0.012404474754333494
0.012278095989227291
0.012012739543914791
0.01161137934684753
0.011297942981719966
0.011317110166549682
0.011712913103103635
0.012108766841888424
0.012256594619750975
0.012223180074691774
0.01223004641532898
0.012379381446838375
0.012373021802902222
0.012127391119003295
0.011756653985977174
0.011476925601959231
0.01149252554893494
0.011576509037017828
0.011485157365798955
0.011252396106719974
0.011083762273788456
0.011174763631820682
0.011037211523056032
0.010587804899215698
0.010311839323043824
0.010418285970687868
0.010512030277252197
0.010343907051086428
0.010221989040374756
0.010294217987060547
0.010559155111312868
0.010907101860046387
0.011011504001617432
0.011003843278884887
0.011071976194381715
0.011214244403839111
0.01131541627883911
0.01126180419921875
0.011068163156509402
0.010876582832336428
0.010762639074325564
0.010638030166625977
0.010431254377365114
0.010265299711227416
0.01014000479698181
0.010183234071731564
0.010301120824813841
0.010533052577972409
0.011009734878540034
0.011497616939544673
0.011659161729812614
0.011679987516403192
0.011759285879135127
0.011770545854568477
0.011585533933639522
0.011308976879119869
0.010991189203262326
0.010575927686691279
0.010226467008590694
0.010170810832977294
0.01030163339614868
0.010407606248855592
0.010462339839935301
0.010427325677871704
0.010189291944503782
0.010016318702697757
0.009877876701354982
0.0097828630065918
0.009875008583068851
0.010244466533660894
0.010822591066360479
0.011292435598373417
0.011747472181320192
0.012226436223983768
0.012488714342117312
0.012217130470275879
0.012023258781433106
0.012082278299331665
0.012065315122604371
0.01197916394233704
0.011631558446884158
0.0114135168838501
0.011633455991744994
0.012072664899826049
0.012393999595642089
0.012543328952789307
0.01266622283935547
0.012866340036392213
0.013074057703018189
0.013133117237091065
0.013043175878524781
0.01298932285308838
0.013123050222396853
0.013219027862548829
0.013156515483856202
0.012929120473861693
0.012652985258102416
0.012355184001922606
0.011940055131912233
0.011388354692459109
0.011353840827941896
0.011692766513824462
0.012108605852127072
0.01253599197387695
0.012919697103500362
0.013095385990142818
0.01309940891265869
0.013196532392501827
0.013465624818801876
0.013652289228439324
0.013521118535995478
0.013239988489150999
0.013196090316772458
0.013099709682464595
0.013336200017929074
0.013560531311035155
0.01376234709739685
0.013980044107437133
0.013967076902389526
0.013589413604736329
0.012919802875518803
0.01227326740264893
0.01170050848960877
0.011435219125747685
0.0113804794216156
0.011499612178802495
0.011373099651336671
0.011219538383483886
0.011319931888580324
0.011330866107940672
0.011414464511871334
0.01145547077178955
0.011261831226348874
0.01091288536071777
0.010651634674072265
0.010512727518081664
0.010291425981521605
0.009945595293045045
0.009652950124740602
0.009547576990127564
0.009581616506576539
0.009622273578643798
0.009602093057632446
0.009905947608947753
0.010524491252899169
0.011126700706481934
0.011666269102096555
0.012118460092544555
0.012340469589233396
0.012428764972686763
0.012596567392349238
0.012407822837829586
0.011996325435638427
0.011700142965316771
0.011403231010437012
0.011339850006103516
0.011514399166107178
0.011609937820434575
0.01144939792633057
0.011200642004013061
0.011162706174850464
0.01131341143608093
0.011294953269958495
0.011391636810302735
0.0112957094669342
0.011067332067489624
0.01073755174636841
0.010442919998168947
0.010335193023681641
0.010388572025299072
0.010484991817474365
0.010415132331848145
0.010406002683639526
0.010326012992858891
0.010219456110000611
0.010271052179336548
0.010525882043838504
0.010797343969345096
0.010964068374633791
0.01097375720024109
0.010978793058395386
0.011008226680755615
0.010858078680038453
0.011089884567260741
0.01133712368965149
0.011500638618469236
0.012031944084167478
0.012997617540359495
0.013791879014968868
0.014090115804672239
0.014162878341674803
0.014201226005554197
0.014096032924652098
0.013855479412078854
0.01342186674118042
0.01278598708152771
0.012281460132598876
0.01177777014732361
0.011446711578369139
0.011553945417404175
0.011507891130447385
0.011624173908233641
0.011708360137939453
0.011538606109619138
0.011427626504898068
0.011218387231826782
0.010868107595443724
0.01061556101799011
0.010572619247436521
0.010584509763717649
0.010550805101394651
0.010524359283447264
0.010573773632049558
0.010676163625717163
0.010734941406249998
0.010792336425781248
0.011025672359466549
0.011381871576309202
0.011613283338546752
0.011702973508834839
0.011889964332580567
0.012262315607070924
0.012543515901565551
0.012395952472686766
0.012326040458679199
0.01213021861076355
0.011867506980895993
0.011701853313446042
0.011639185924530027
0.01177118141174316
0.011863636140823359
0.011836797399520869
0.012074445543289179
0.012111166563034055
0.012100364017486568
0.012012829332351682
0.01157577967643738
0.01079523310661316
0.010193820056915284
0.010068803300857545
0.010086634006500244
0.009999747104644777
0.009982034482955933
0.009822912559509279
0.009673210048675539
0.009683443937301637
0.009615378189086915
0.009659215316772461
0.009773145837783815
0.009779518966674805
0.009818873491287232
0.01020603289604187
0.010874754543304443
0.011414849348068239
0.011640929718017579
0.011722367458343508
0.011803677434921268
0.011850185461044311
0.011792099323272708
0.011715095081329346
0.011748408660888672
0.011884449319839476
0.011889554615020751
0.01177452404975891
0.011795603656768799
0.011624967613220214
0.011338056259155271
0.01113247766494751
0.011173625822067261
0.01137713391304016
0.01143292055130005
0.011204397487640383
0.010922129487991334
0.010936182775497438
0.010807481441497804
0.010919211292266846
0.01119630982398987
0.01140183557510376
0.01149434241294861
0.01145383073806763
0.011424883689880374
0.011502646093368533
0.01145488870620728
0.011090204210281375
0.010650632152557378
0.010450944337844851
0.010476872644424439
0.01054035336494446
0.010471275177001957
0.010282035064697269
0.010237572898864749
0.0102624635887146
0.01047154266357422
0.01074949811935425
0.011109573364257814
0.011611055965423587
0.012132131719589236
0.01249113783836365
0.012662723293304447
0.012605202226638799
0.0122382940864563
0.011680883827209474
0.011021078176498413
0.010483429708480835
0.010338997983932497
0.010400685062408448
0.010469187002182008
0.010517940578460694
0.010649240188598632
0.010926909475326539
0.01114235004425049
0.011080421485900882
0.010960120611190798
0.010861275339126588
0.01074116361618042
0.010879337196350099
0.01100539958000183
0.01087902735710144
0.010867854843139648
0.011269468164443972
0.011993402347564696
0.012649859437942503
0.013024687719345092
0.013217339057922361
0.013386587476730345
0.013382636461257933
0.013127291622161863
0.01276821154594421
0.012512806558609006
0.012333854570388792
0.012164735212326049
0.011918169736862178
0.011783651523590084
0.01184654650688171
0.011920100555419916
0.011908118200302117
0.011904028978347771
0.011964575510025017
0.01207989298820495
0.012170473861694332
0.012095051069259639
0.012053360490798944
0.011870214290618892
0.01163974947929382
0.011414355010986326
0.011141788206100463
0.010832405767440791
0.010638140926361082
0.010660000772476195
0.010869392662048338
0.01109445189476013
0.011149925556182858
0.011254447288513181
0.011467269687652586
0.011475745315551756
0.011375776462554929
0.01135752197265625
0.011336811189651488
0.011112456398010253
0.010718228034973142
0.010460691270828245
0.010501292400360107
0.010658702602386473
0.010792316017150878
0.010790530014038086
0.01070923666000366
0.010670678148269653
0.010813952569961547
0.01070348204612732
0.010019251289367674
0.009070105943679808
0.008493619174957273
0.00854740940093994
0.008843751659393308
0.008893717012405392
0.008724196081161498
0.008704942874908445
0.008948111963272092
0.009279463405609128
0.009598817815780637
0.00978968374252319
0.009941705198287961
0.010079529085159298
0.010176890153884885
0.010246273708343506
0.0102936258983612
0.010269812545776363
0.010134240942001337
0.009927911739349362
0.009871483144760128
0.009905095262527462
0.010054250583648679
0.010403095312118527
0.010780583944320677
0.010970334196090694
0.010921870632171628
0.010725436191558834
0.010413461112976075
0.010100149221420284
0.009821787328720091
0.009529915084838867
0.009295154161453247
0.00904755476951599
0.008827864265441895
0.008833023424148559
0.008968138923645019
0.009020881671905519
0.00969382204055786
0.0107161194896698
0.011512039737701416
0.011834201946258545
0.011837694873809817
0.011792572469711304
0.01184902237892151
0.011947583055496218
0.011959907789230348
0.01186412536621094
0.011716180610656742
0.011586050224304199
0.011516181955337525
0.011458612594604494
0.01127390606880188
0.010866872520446776
0.010403309469223021
0.010182560224533076
0.010213660497665401
0.010237689933776852
0.010124101715087888
0.009984185285568232
0.009986740694046016
0.010171194887161252
0.010388308391571042
0.010455689115524287
0.010378306283950802
0.010270792903900141
0.010153339424133297
0.010013128929138183
0.009915439682006831
0.009943804521560665
0.009976098489761349
0.010046153182983394
0.010029465742111204
0.009717538824081417
0.009328530702590938
0.009067139930725094
0.008937110261917111
0.009188590974807736
0.009639831829071042
0.010212853393554686
0.011007492818832397
0.011906626386642456
0.012500531387329102
0.012770805196762085
0.012898283729553222
0.012845268602371215
0.012730923452377321
0.012679532489776612
0.011913535070419314
0.01099506224632263
0.01032281704902649
0.009944661865234374
0.009792120847702025
0.009736788234710692
0.009635186920166015
0.009474524164199829
0.00939573101043701
0.00952191837310791
0.009798680467605592
0.010049986524581911
0.010199572381973268
0.010330992412567139
0.010484525690078737
0.010567077999114992
0.010534485597610475
0.01048610954284668
0.010507637615203857
0.010564721212387084
0.010587982501983643
0.01055372855186462
0.010495784339904784
0.010433736810684203
0.010282585668563842
0.010024096708297727
0.009880556755065918
0.009867100620269775
0.009967980937957761
0.010095336027145385
0.010205554151535033
0.010368302450180054
0.010667274389266967
0.011000943956375124
0.011297659130096439
0.01174813090324402
0.012259991168975833
0.01254678468704224
0.01251975513458252
0.012318750352859495
0.011904227666854856
0.011352110786437986
0.010536641607284547
0.009642729482650757
0.00900515079498291
0.008677325372695922
0.008537308692932129
0.008582308158874511
0.008663309202194215
0.008584299917221068
0.008641793994903564
0.00856848159790039
0.0085753369140625
0.008757593965530396
0.009067051086425781
0.00946038496017456
0.009770095195770262
0.009923144044876098
0.009979335689544677
0.009856910552978515
0.009559072246551514
0.009321974258422851
0.009087026834487914
0.008967887592315671
0.00896509292602539
0.009161669921874999
0.009568305835723876
0.010040128479003905
0.010425662364959716
0.010684755554199217
0.01087730182647705
0.011059140911102295
0.011136014537811276
0.010982720737457274
0.010754050664901734
0.010841996002197265
0.010918260869979856
0.010901912927627561
0.010879099855422972
0.010922128667831422
0.01092295920372009
0.010778063764572143
0.010428634977340695
0.010135336046218872
0.010177279996871949
0.010270831251144408
0.010265270185470582
0.010587610483169554
0.01144303406715393
0.01196196849822998
0.012058055963516234
0.011991861286163329
0.012100253925323483
0.012319468822479246
0.012441879177093504
0.012502678956985471
0.012552773866653441
0.012475043888092039
0.012406331577301024
0.012441070861816408
0.012392434234619143
0.012456340742111207
0.012393175487518312
0.01227374366760254
0.012199664754867555
0.012079079818725589
0.011964519538879398
0.011957481422424318
0.011972633056640624
0.011930418996810912
0.011965197649002073
0.011929438581466674
0.011979617471694943
0.012033969144821166
0.012036837816238401
0.011970515279769894
0.011768947448730466
0.011435710983276367
0.011119943466186524
0.010936041402816774
0.010836924190521242
0.010752573528289795
0.010778734292984008
0.011054954624176027
0.011452876863479615
0.011552548599243165
0.011536408767700195
0.011567029857635499
0.011601498908996583
0.01159021245956421
0.011542922430038453
0.011483397064208985
0.011606402969360354
0.011831224031448364
0.011724274454116824
0.01131928016662598
0.010879323968887333
0.010291857032775877
0.009506000862121581
0.00900110055923462
0.0090619814491272
0.009284489040374756
0.009332900085449219
0.00926527035713196
0.009308792085647586
0.009451764097213749
0.009521948032379152
0.009529481868743899
0.009492127037048341
0.009587740926742557
0.00984423628807068
0.010026961545944214
0.010114841918945315
0.00999298309326172
0.009675066862106323
0.009368556108474731
0.009194909048080445
0.0091210196018219
0.009164284849166872
0.009378384637832644
0.009535995645523073
0.00964235368728638
0.009722695331573489
0.00974394268035889
0.009780249958038332
0.009849131584167484
0.009982395744323733
0.010161957817077641
0.010257783508300786
0.010217374792099
0.010129109020233156
0.010039170265197756
0.009903567209243775
0.009729445114135742
0.009654612703323365
0.00978149154663086
0.010000687398910524
0.010151347522735596
0.010249075384140015
0.010406219100952147
0.010618714113235474
0.010697558555603027
0.010582302598953248
0.010219040517807006
0.009982579278945924
0.009800502958297728
0.009796127586364745
0.00974434642791748
0.009716739015579224
0.009703011960983275
0.009557795238494872
0.009505098228454589
0.009785321407318115
0.010237596063613892
0.010467446327209473
0.010419661312103272
0.010379484968185424
0.010413579673767088
0.010407146291732788
0.010330036497116087
0.01012238836288452
0.009870225677490234
0.009713605527877806
0.009757523107528686
0.009939959440231324
0.01016933588027954
0.010409089317321776
0.010622431507110595
0.010777190885543823
0.01099329077720642
0.011382772150039671
0.011714247617721557
0.011661672706604002
0.011623876514434812
0.011398675756454469
0.011140088243484498
0.010926764469146729
0.010720931129455569
0.010675960359573362
0.010903803892135619
0.011043403463363646
0.011120930404663087
0.01134121971130371
0.011561327781677249
0.01150066076278687
0.011229165792465213
0.011014150733947754
0.010983381223678592
0.011101530160903934
0.011227817411422732
0.011277454223632813
0.011338159351348878
0.011336681900024414
0.011339535264968875
0.011267145280838015
0.011411545658111574
0.011550064125061038
0.011714829492568973
0.01169437438964844
0.011626900978088382
0.011586347599029543
0.011500358552932742
0.011114303083419801
0.010578320579528809
0.010318789911270143
0.0103845076751709
0.010526106185913087
0.010700224399566648
0.010925841121673583
0.011091500511169432
0.011221587409973144
0.011359860315322877
0.01149672727584839
0.011521088552474976
0.011454860973358153
0.011421126003265383
0.011495895080566407
0.011615301208496093
0.011637038822174072
0.011432191953659061
0.01099489459037781
0.01058071985244751
0.010543330202102663
0.010566639308929444
0.01076964999198914
0.010798688392639161
0.010713953695297242
0.01060514784812927
0.010541183462142945
0.010360695734024048
0.01036713215827942
0.010469677610397339
0.010364006614685055
0.010110819368362427
0.009968354749679564
0.00994291046142578
0.009889913520812988
0.009696427717208862
0.009347862482070923
0.008884934091567993
0.008538190803527834
0.008612593336105347
0.009001724014282229
0.009500823678970339
0.010013257789611818
0.010374380617141726
0.010380355501174927
0.01018420213699341
0.010185647792816164
0.010289886980056763
0.010448825960159303
0.010515159740447998
0.010543651781082153
0.010554738101959227
0.010529228963851929
0.010503974514007568
0.010500910177230836
0.010482746219635011
0.010382584314346313
0.010175111513137818
0.009988505382537842
0.009831362466812132
0.009775598878860472
0.009828890619277952
0.009831799297332763
0.00967159560203552
0.009428525934219358
0.009239713802337646
0.009126495141983031
0.009048085165023803
0.00905793445587158
0.009245355920791624
0.00947667194366455
0.009505320787429808
0.009419773797988891
0.009502610120773317
0.00960261008262634
0.009684685859680176
0.009657255535125732
0.009615543098449707
0.00952297781944275
0.009391784610748292
0.009320019264221194
0.009273624687194826
0.009177758665084843
0.009409650230407718
0.009608140239715578
0.009715171031951908
0.010112389602661136
0.0106266356086731
0.01122354608535767
0.011708902301788332
0.011962067804336549
0.012024131326675416
0.0119587410736084
0.011784710512161258
0.011621958131790162
0.011595418395996093
0.01164573666572571
0.011664371643066407
0.011691461277008057
0.011730915403366089
0.011817542896270752
0.011847004661560056
0.01195674561500549
0.012362133293151856
0.012839143199920654
0.013207798929214476
0.013479176635742189
0.013741887130737304
0.013878495988845824
0.013924505472183227
0.014041755123138426
0.014108181152343748
0.01416796230316162
0.014110025730133056
0.014172843112945555
0.014387312908172604
0.014601378383636471
0.014844158754348752
0.015195303297042842
0.015514885416030879
0.0156777038192749
0.015817013359069824
0.015983019742965697
0.01600979523658752
0.01587381785392761
0.015841291646957398
0.015729182748794555
0.015596890869140621
0.01545353178024292
0.015282262287139893
0.01517282473564148
0.015239897994995118
0.015407873096466067
0.01522505241394043
0.015159253129959109
0.015327085218429565
0.015182125511169433
0.014821631822586062
0.014260997037887573
0.013549834213256838
0.012924725999832154
0.01253599216461182
0.012337872028350832
0.012280323066711427
0.012335416126251221
0.012402064361572268
0.012421106243133546
0.012414305114746093
0.012318679456710818
0.012192857275009157
0.012149975290298461
0.012281472730636596
0.012269724102020263
0.011870556077957152
0.011391200647354128
0.011023960180282595
0.010811276645660402
0.010759279041290285
0.01089424509048462
0.011115540904998777
0.011136743726730347
0.01110155969619751
0.011094802293777467
0.0112126588344574
0.01110596262931824
0.010677304067611698
0.010306953706741333
0.010045282173156738
0.009569380474090576
0.009034686479568482
0.00872048900604248
0.008684759426116944
0.008890314865112305
0.009334086894989014
0.009997900581359864
0.010589430809020996
0.011077746276855472
0.011233253393173222
0.011167639255523686
0.011191995372772219
0.011045317516326909
0.010860518331527713
0.010853313732147218
0.011020379638671878
0.011130716657638554
0.011079415245056155
0.010946754350662233
0.010761217336654664
0.010844165229797365
0.011060364990234377
0.011202197303771972
0.011014596920013426
0.011024421014785766
0.011225168275833133
0.01153450912475586
0.011935433044433596
0.012293781032562259
0.012421368265151982
0.012391778993606571
0.01237094180107117
0.012340741767883303
0.012292697544097904
0.012250303363800053
0.012098684873580935
0.011862043666839602
0.01177313554763794
0.011842150955200198
0.0118800674533844
0.011832285337448121
0.01175313931465149
0.011682532653808595
0.011638548021316525
0.011624816789627075
0.01164236771583557
0.011674294939041142
0.011703700284957888
0.011648556060791017
0.011564519376754763
0.011505500278472905
0.011515015249252324
0.011489014062881473
0.011447882013320925
0.011390762252807617
0.011230801763534543
0.010869636688232423
0.010419823055267334
0.010175042066574097
0.010275485677719118
0.010549627866744998
0.010702767715454104
0.010948193674087527
0.011103910627365115
0.011036634407043458
0.010826206493377686
0.010650822305679325
0.01055440230369568
0.010508486547470094
0.010598486766815187
0.010562170610427857
0.010469159803390502
0.010380229263305665
0.010472673692703249
0.010269494915008543
0.00989208050727844
0.009552745523452756
0.009290985622406003
0.00908562446594238
0.009041535987854003
0.009223100967407225
0.009510058860778808
0.009710228786468504
0.00968178723335266
0.009523997373580931
0.009493677434921265
0.009587625474929808
0.009694190731048583
0.009768710298538206
0.009908567333221435
0.010093003768920899
0.010238163537979126
0.01032161443710327
0.010306724243164063
0.010166730432510375
0.009978958921432496
0.009870702056884766
0.00980035343170166
0.009906209087371826
0.010123995761871339
0.010433653259277344
0.010637490758895873
0.010727397918701172
0.010532418909072876
0.010158339462280275
0.009752297010421754
0.009459161367416383
0.009390425214767456
0.009451373233795168
0.00961767875671387
0.009768735704421999
0.00973973436355591
0.009597587146759035
0.009558305883407595
0.009655776081085206
0.009700812301635744
0.009608396558761598
0.009544730014801028
0.009616675472259523
0.00972834535598755
0.009849750204086306
0.0100690779876709
0.010339196748733523
0.010477831830978395
0.01044677857398987
0.01038775130271912
0.010318644485473635
0.010110325174331667
0.00984007528305054
0.009706975069046022
0.009636309547424319
0.009442117605209351
0.009200530424118045
0.009133258962631228
0.009257481012344363
0.009437511577606203
0.00961359001159668
0.00965640976905823
0.009537518291473389
0.009297138986587527
0.009056081113815308
0.008948237466812135
0.009053778581619263
0.009316995525360108
0.009477207632064819
0.009680314445495605
0.010194559421539306
0.010749538259506227
0.010884234313964845
0.01059046272277832
0.010505848255157468
0.010749753646850584
0.011496991643905639
0.012759041233062741
0.013921427736282348
0.014544973382949826
0.014654566688537596
0.01465785835266113
0.014502607688903806
0.014048742837905881
0.013748609895706174
0.01381207432746887
0.01398848042488098
0.013964388446807861
0.013776714792251586
0.01371409951210022
0.013834639434814453
0.01390160629272461
0.013858007001876832
0.013817503023147586
0.013641022071838382
0.013348772029876712
0.0130591284942627
0.012871870937347419
0.01291467756271363
0.012919226999282843
0.012861479063034063
0.012882100925445563
0.012945599222183232
0.012966731901168826
0.013056790571212774
0.013298292636871344
0.013600191421508794
0.013921747560501104
0.014307714176177981
0.014708639631271366
0.014970857305526735
0.014956459293365483
0.014765791997909547
0.014781408500671389
0.014692051334381104
0.014594866638183593
0.014494951944351193
0.014313729972839351
0.014306975908279417
0.014257676267623897
0.013783905334472655
0.013289336414337159
0.013090902252197263
0.01324745087623596
0.01330226511955261
0.013123987655639647
0.012470209856033325
0.01143974557876587
0.010584069375991823
0.010345841779708861
0.010578354969024659
0.010557076578140262
0.010512378082275392
0.010646828594207767
0.010511030054092409
0.010377989645004273
0.010207129831314088
0.010032558183670043
0.010043551330566405
0.010238318119049072
0.010385649671554564
0.010458819332122803
0.010615248613357544
0.01086569266319275
0.011202938814163206
0.011492906665802
0.01170548405647278
0.011823124971389772
0.011712076749801636
0.011706871414184573
0.01171294315338135
0.011807450237274171
0.011924837799072267
0.011981663064956667
0.011849182643890385
0.011521619615554814
0.011148712310791018
0.010803423700332639
0.01038842798233032
0.009838296356201169
0.009337517833709712
0.009203254680633542
0.009397350492477414
0.009458272352218626
0.009641436767578122
0.0097921632194519
0.009831269178390502
0.009930217990875243
0.010125968198776243
0.010359493761062622
0.010519066591262815
0.010531205654144284
0.010465910053253171
0.01034845091819763
0.010104872226715087
0.009817722320556638
0.009579593296051021
0.009358728675842282
0.009053543691635128
0.008604049119949338
0.008395643596649167
0.008589572343826292
0.008865876054763792
0.009132021226882933
0.00964480981826782
0.0100980274105072
0.010506727476119993
0.010828917074203491
0.010952449903488157
0.0108660775566101
0.010773644151687618
0.01078355521202087
0.010630328893661499
0.010310582942962648
0.01014236746788025
0.01000114514350891
0.009872097244262697
0.009882835025787354
0.010019181594848634
0.009972495183944703
0.010300563249588012
0.010876380825042725
0.01157767216682434
0.012250488891601564
0.012771944446563719
0.013122158279418945
0.013445153341293335
0.013842244329452516
0.014212308197021486
0.014457044105529783
0.01457171295166016
0.014463508577346804
0.014398905525207522
0.014450753955841064
0.014345549955368042
0.014133812007904055
0.013953461561203003
0.01361288875579834
0.013201683959960938
0.012829042358398435
0.012606921110153196
0.012549215641021724
0.012587037897109982
0.012666001873016355
0.012834964208602901
0.013103594417572018
0.013410945034027096
0.013607129096984858
0.01363325048446655
0.013693625154495235
0.013744655370712278
0.013766174335479735
0.013666871948242185
0.013421480083465574
0.013021502933502193
0.012489439735412597
0.012041384601593017
0.011904896688461303
0.012036266431808471
0.0122360915851593
0.012326043977737426
0.012264381904602049
0.01226012587547302
0.012320831480026244
0.0122379141998291
0.012173029127120972
0.012137343997955323
0.012071852054595949
0.012038888969421386
0.012258321361541747
0.01227539430618286
0.011900018548965456
0.011169602651596071
0.010383377256393428
0.00990002948760986
0.00982668436050415
0.009906711606979368
0.009872238216400146
0.009732662000656127
0.009553116455078125
0.009474815483093263
0.009532454729080202
0.009398869209289552
0.009233013601303101
0.00922730236053467
0.009259493732452393
0.009222931632995608
0.009338419971466066
0.009497165651321412
0.009674737396240234
0.009919790267944336
0.010202772760391237
0.01040446310043335
0.010522521800994873
0.010561516065597534
0.010421378993988038
0.010129008836746216
0.009954188976287843
0.010068826704025272
0.0102607426071167
0.010249210729599001
0.010092056674957278
0.009977079582214358
0.009900216207504274
0.009822427577972413
0.00980681308746338
0.009841468496322633
0.009768280715942384
0.009474451322555543
0.009131159505844116
0.009017130947113037
0.00921423900604248
0.009443238439559935
0.009495926313400268
0.009509695253372192
0.00976677975654602
0.010264853734970094
0.01070713278770447
0.010906674251556399
0.010858320875167849
0.01066171462059021
0.010530437841415406
0.010532555551528933
0.010488240251541138
0.010313318920135497
0.010024937028884889
0.00973895085334778
0.009469175624847415
0.009269711561203008
0.009279718208312991
0.009365948181152347
0.009469447889328006
0.009643546848297123
0.00970362267494202
0.009697281122207644
0.009701811552047732
0.009794799022674563
0.010017105998992921
0.01029785936355591
0.01041099784851074
0.010186239242553711
0.01001723394393921
0.009942577838897706
0.009725699367523193
0.009689811086654664
0.009854285764694213
0.010010054626464844
0.009966158599853517
0.009787575769424439
0.009647337102890015
0.009542770738601684
0.009397124881744384
0.009312961711883543
0.009439900159835816
0.009740065002441406
0.010092685108184814
0.01042383204460144
0.01069807744026184
0.010942201681137085
0.011179566650390627
0.011398152170181275
0.011463771800994872
0.01137422122955322
0.011264243803024291
0.011101006050109863
0.01068657510757446
0.0100529483127594
0.00962776517868042
0.009569521369934081
0.009763005504608154
0.010071696834564207
0.01032521572113037
0.010461949863433836
0.010614509353637693
0.01080135835647583
0.010918642454147339
0.010783391714096069
0.010737566823959351
0.01070100935935974
0.01062645739555359
0.010641949892044067
0.010615973625183104
0.010524767360687255
0.010513216619491577
0.010650392417907715
0.010759531774520874
0.010670257196426391
0.010362312183380127
0.00994275556564331
0.009653815717697144
0.009681624565124511
0.009708435335159303
0.00974213134765625
0.009899226751327518
0.009768799085617067
0.009462457227706911
0.009340371294021607
0.009544579210281373
0.009841416244506837
0.010001977138519288
0.010115155067443848
0.010316792783737183
0.010505449323654176
0.010545704336166382
0.0104639008808136
0.010258717231750489
0.009889044179916382
0.009580048866271973
0.009631577987670897
0.009862059030532834
0.009821133975982664
0.009517803888320924
0.009330874881744385
0.0093655535697937
0.009455764846801759
0.009515379495620726
0.0096467587184906
0.009827456483840941
0.009969939336776734
0.009926857786178588
0.009672313928604124
0.009386646385192871
0.009203516168594359
0.009075350618362425
0.008959479665756226
0.008940766830444336
0.009151246643066406
0.009316624774932862
0.009531395263671874
0.009767658119201663
0.009871592855453493
0.009961035671234133
0.009966892137527467
0.009744737138748169
0.009509488945007326
0.009378656568527223
0.009333868532180788
0.009380700216293334
0.009578650064468383
0.009794552764892578
0.009942088050842285
0.010070635738372804
0.010187028799057007
0.01031286642074585
0.010551839141845702
0.010844032001495363
0.010930319719314576
0.010723289985656739
0.010592480001449585
0.010489036369323732
0.010382018699645995
0.010246034402847291
0.009978762159347534
0.01002367441177368
0.010314219236373899
0.010621476716995235
0.010909123487472533
0.01116203064918518
0.011213784465789791
0.011040308141708373
0.01088991072654724
0.010922283191680905
0.011017560834884643
0.011069851894378662
0.011163573131561279
0.011330425052642826
0.011378686408996584
0.01111728514671326
0.010797423744201663
0.010517232255935666
0.010353782749176022
0.010282894659042356
0.010184577713012698
0.010162348375320434
0.010306525316238404
0.010513102054595946
0.010659193811416626
0.01068015326499939
0.010510947284698487
0.010246971759796141
0.010152890920639037
0.010315411949157714
0.010537743501663206
0.010668034477233886
0.010681217346191405
0.010853525028228759
0.011187475967407226
0.01137324674606323
0.011265009632110594
0.011124835596084593
0.011074413805007932
0.010950114879608154
0.010720950860977171
0.010533935766220092
0.010377179708480835
0.010169966888427733
0.00998874402999878
0.010061211767196656
0.009975272665023804
0.00981632006645203
0.009753214616775516
0.009678985776901248
0.009820659942626955
0.009956945400238039
0.01009737886428833
0.01032946200370789
0.01072084775924683
0.011118091592788697
0.0112451623916626
0.011108262062072756
0.010951473102569583
0.01083706572532654
0.010667730617523194
0.010587566871643068
0.010441843338012697
0.010346092348098756
0.010479796628952027
0.010783340272903445
0.010973184499740602
0.01105023237228394
0.011016449947357182
0.011054750137329103
0.011157702455520634
0.011162078208923341
0.010953203706741334
0.010682290973663331
0.010444383115768431
0.010402650985717772
0.010802209453582765
0.011472596559524538
0.011811083097457886
0.011689534816741943
0.0116054932975769
0.011765134983062742
0.011835508737564084
0.011614206542968748
0.011316185245513914
0.011211560192108155
0.01131656181335449
0.011455220594406129
0.011531829652786254
0.011615752277374264
0.011707858810424803
0.011699653673171993
0.011616814126968382
0.011602483053207395
0.011703904132843015
0.011657530765533447
0.011548228578567504
0.01154727150917053
0.011572940664291377
0.011707564601898191
0.011757022275924683
0.011492043390274048
0.01097821322441101
0.010417119398117063
0.009879535636901856
0.009482103128433228
0.009423313970565797
0.009650431566238401
0.009913660259246827
0.010109601287841797
0.01024233498573303
0.010148321170806884
0.010108833084106445
0.010167776517868038
0.01020467844009399
0.010213609886169433
0.010179255628585815
0.010177389650344848
0.010256908330917358
0.01025582613945007
0.010303189888000483
0.010418364553451536
0.010494653224945066
0.010425997467041013
0.01030473751068115
0.010120967845916748
0.009758112621307373
0.00930406476020813
0.009069337549209595
0.009089284925460815
0.009079436826705931
0.008981579523086546
0.008979080562591552
0.009076813793182372
0.009142952747344972
0.00914671814918518
0.009099521389007569
0.008964231538772583
0.008750929670333862
0.008588327445983887
0.00856123264312744
0.008572199201583862
0.008540833520889283
0.008571454744338989
0.008786046199798584
0.00917387152671814
0.009609181079864502
0.009919458017349243
0.01008840807914734
0.010126451997756959
0.010099621477127074
0.010088652725219725
0.010035225067138671
0.009928162193298338
0.009930788898468016
0.009657205514907835
0.009468565530776976
0.009463019342422486
0.009570348262786868
0.009775546579360965
0.010077801275253297
0.010356007270812992
0.010422997694015506
0.010278437318801882
0.010123605194091799
0.01012221091270447
0.010240050535202027
0.010341770915985109
0.010400673408508301
0.010443270359039308
0.010380110893249512
0.010224655351638794
0.010175626268386839
0.010230519056320189
0.010343633127212521
0.010323514137268064
0.0102270304107666
0.010254165544509888
0.010446143198013305
0.010672704734802245
0.010828283491134643
0.010897803173065186
0.01092142273902893
0.010909322385787965
0.010818067760467532
0.010685749216079714
0.010617051153182984
0.0106219610786438
0.010633507471084595
0.010599675588607789
0.010554593753814696
0.01064815887451172
0.010955704746246337
0.011287094125747679
0.011354813060760496
0.011131457567214963
0.010879639501571656
0.010755190773010254
0.010654199829101563
0.010500665769577026
0.010323111286163332
0.010160592899322512
0.010057412061691284
0.010100007553100587
0.01003744284629822
0.010233860225677491
0.010419551534652712
0.010421448221206666
0.010108817615509033
0.00976386489868164
0.009332149047851563
0.00929123381614685
0.00961476559638977
0.010040947399139404
0.010327167406082152
0.010304052324295043
0.00995412073135376
0.009895416755676269
0.009788276710510253
0.010010762119293214
0.01028394390106201
0.01037914554595947
0.010347436809539791
0.010380681600570676
0.010376702337265014
0.010437328224182127
0.010592021808624265
0.010639668827056883
0.010458824882507323
0.010195813283920288
0.010020507278442383
0.009908393459320068
0.009728313283920287
0.009672316579818725
0.009622529125213622
0.009707547912597654
0.009703833475112915
0.0096063086605072
0.009581765317916869
0.009671871528625486
0.009797705297470089
0.00983638401031494
0.009672089357376096
0.009369829797744747
0.009216324195861813
0.00938748662948608
0.009672618875503537
0.00978804248809814
0.009755122766494748
0.00972308058738708
0.00974277802467346
0.0097890892791748
0.009865532341003415
0.009836669855117795
0.009841621313095092
0.009925353565216061
0.00987150217056274
0.009694833736419675
0.00963883063316345
0.009570198564529418
0.00959984529495239
0.00949757488250732
0.009267486858367919
0.008988435020446777
0.008758036231994627
0.008746874828338622
0.009109297370910643
0.009305825824737548
0.009577854185104368
0.009459264192581175
0.00931154369354248
0.009402105302810666
0.009568657274246214
0.009631822309494017
0.009627791128158569
0.009503588647842407
0.009340086679458617
0.009048138284683227
0.008859047651290893
0.008759685773849486
0.00863749367713928
0.008582769479751584
0.0087548753452301
0.008952361116409298
0.009241993179321286
0.009396821107864379
0.009594798126220702
0.009853034782409665
0.009941088104248045
0.009833549585342405
0.00965242404937744
0.009405987091064452
0.00927779679298401
0.009236501026153565
0.009272848663330079
0.009327358655929565
0.009423095817565919
0.009668029298782348
0.009946147727966308
0.01004750542640686
0.010028925762176516
0.010025366611480712
0.010048771781921387
0.010133916902542115
0.010259545707702638
0.01029125343322754
0.010220276212692263
0.010173122262954713
0.0102367941570282
0.010316848011016845
0.010380937538146975
0.010322406969070436
0.01031538747787476
0.010481642789840701
0.01062422422409058
0.010424769020080566
0.0102135249042511
0.009952517528533936
0.009651564245224
0.0093972682762146
0.009205335588455201
0.009200112018585206
0.009369802522659303
0.009666152057647705
0.010047225542068484
0.010448595123291018
0.01069772550582886
0.011018856821060184
0.011218478717803954
0.01121527452468872
0.011232283439636228
0.011396767730712886
0.011528034019470213
0.011439309616088864
0.011218637609481809
0.010994935903549195
0.010695945291519165
0.010583503417968751
0.010648225269317628
0.010628708801269532
0.010801142187118534
0.011061640338897706
0.011239318180084232
0.01137372990608216
0.011278034315109256
0.010819944744110108
0.010339987478256225
0.009821218872070313
0.009737155218124391
0.010067556228637696
0.01053176950454712
0.011067077407836917
0.011764528350830078
0.01230444091796875
0.01221149646759033
0.012058252716064451
0.012024800434112548
0.011991655673980712
0.011987755460739134
0.011936848211288448
0.011931834545135496
0.012150859661102293
0.012467460899353024
0.012710935859680172
0.012881054382324215
0.013195485076904294
0.013428963022232057
0.013700228548049927
0.013893220863342281
0.013861342344284055
0.013837398223876952
0.013687756185531617
0.013420060787200932
0.012991698713302613
0.012494723978042606
0.012102251224517824
0.011822417993545532
0.011508212528228763
0.01122954662322998
0.011142458667755128
0.011119234523773194
0.011056911630630493
0.011025454959869386
0.011108832330703734
0.011296413116455078
0.011586589994430541
0.0119962704372406
0.012134769659042357
0.01209011405944824
0.012209135904312132
0.012197655162811277
0.012164010496139521
0.012100146331787106
0.011992811450958249
0.011929946146011353
0.011979200000762939
0.011908574237823486
0.011958269500732421
0.011868393297195435
0.011689095735549927
0.011514544925689698
0.011214238300323486
0.010638265886306763
0.01012156897544861
0.010153146343231202
0.010159933128356936
0.01003556445121765
0.010041928100585937
0.010108268575668336
0.0101443368434906
0.010124524793624879
0.009999960460662845
0.00972414294242859
0.009246998682022096
0.00871416855812073
0.008300003681182862
0.007944730310440063
0.007626635284423828
0.0075787685966491715
0.007824065999984742
0.008090515880584716
0.008406143932342531
0.00875664294242859
0.009153121767044069
0.009522780942916871
0.009806148710250855
0.009982401809692383
0.010189284801483156
0.010506430339813235
0.01075738117218018
0.010808409414291384
0.010693502025604248
0.010614666080474853
0.010670531797409056
0.010630000896453858
0.010341354990005491
0.010153550701141356
0.009968997259140015
0.00992177312850952
0.009989570531845092
0.009932042541503905
0.009812471084594725
0.00979742733955383
0.00993314221382141
0.010175164766311641
0.010477162399291988
0.010766654901504514
0.010918167438507077
0.01089705636978149
0.010833492431640621
0.010786727094650266
0.010685435886383054
0.01056081697463989
0.010469558830261228
0.01035722926139831
0.010230294551849362
0.010134228115081785
0.010014817008972164
0.009902673387527462
0.009960284271240231
0.010149639606475826
0.010244814071655268
0.010209811868667597
0.010196637954711912
0.010312817039489743
0.01053709650993347
0.01084255784034729
0.011120093927383421
0.0111664621925354
0.011053694858551021
0.010962380180358887
0.010904647912979125
0.010735582981109618
0.010422029123306274
0.010084849443435667
0.009878891048431393
0.009836855573654171
0.009758414182662961
0.009479139089584348
0.00914354188919067
0.009015662469863888
0.008998857479095455
0.008805567398071286
0.008661246299743651
0.008806233568191525
0.009238307971954345
0.009573389949798582
0.009988676681518552
0.010308612394332884
0.010432216043472286
0.010586466350555417
0.010755521554946896
0.010742323360443113
0.010520648231506344
0.010356636581420895
0.010484757194519044
0.01080223958969116
0.010995084600448608
0.010905278234481812
0.010726417856216433
0.010608720474243166
0.010619207067489627
0.010604755458831789
0.010501387033462525
0.010392552394866942
0.01038504853248596
0.01049986792564392
0.010631654367446897
0.01066140881538391
0.0105439155292511
0.010333456659317017
0.010208734369277954
0.010271535940170289
0.010354387397766113
0.010243737611770632
0.010031225318908689
0.009723851537704466
0.009514424333572385
0.009460894289016721
0.00954566711425781
0.009655821275711057
0.00971639205932617
0.009768632268905638
0.009870677957534789
0.0100296728515625
0.01017251233100891
0.010196585569381713
0.010148729076385497
0.01021541311264038
0.01045819218635559
0.010680079088211059
0.01081188504219055
0.010962965259552003
0.01095592547416687
0.01077737711906433
0.010387439603805544
0.009882162303924559
0.009526011896133424
0.009354341135025026
0.009120113306045534
0.008827632303237916
0.008543920211791994
0.00852388536453247
0.008667892570495606
0.00873414939880371
0.00860727868080139
0.008407384643554687
0.008401106605529783
0.008699542999267576
0.009013700923919676
0.00913708818435669
0.009077413854598997
0.009074560327529907
0.009204414758682248
0.009343042507171629
0.00935970725059509
0.0093172110748291
0.009390734977722167
0.009572444114685058
0.00971674787521362
0.00980405617713928
0.00989998165130615
0.00996945267677307
0.009971766748428345
0.010008401975631713
0.010093017120361328
0.010323202390670774
0.010501608715057372
0.010544167528152465
0.010508480911254881
0.01051118441581726
0.010496344013214112
0.010312968435287477
0.010167870531082155
0.009976973505020144
0.009978569984436036
0.010049957809448245
0.009988321294784547
0.009965252676010134
0.009730089263916018
0.009631794691085818
0.009639305000305179
0.009642788877487185
0.009648454685211184
0.009745234241485597
0.009981691741943362
0.010197001991271977
0.010163823699951174
0.009988084859848026
0.009959713964462283
0.009982557277679447
0.00998637595176697
0.00990571730613709
0.009918898515701295
0.010002382278442386
0.009979408235549929
0.009803196744918825
0.009571238584518433
0.009387439966201783
0.009290301294326783
0.009260576009750365
0.009293819503784178
0.009395389556884763
0.009508063173294065
0.009628859529495238
0.009859808263778686
0.010149162969589233
0.010314807128906247
0.01036556822776794
0.010400908460617062
0.010324744663238523
0.010103956785202024
0.009797283420562741
0.00968633603096008
0.009670864372253417
0.009549275617599487
0.009293541660308838
0.009060260143280029
0.009007432050704955
0.009037037897109983
0.008977053108215331
0.0089443625831604
0.009159813976287843
0.009416551761627196
0.009702481184005737
0.009665861539840698
0.009499516000747681
0.009517131595611572
0.009449178104400635
0.009445197410583495
0.009336804819107054
0.009332095890045165
0.009485060873031616
0.009552353954315185
0.00932752674102783
0.009132600526809692
0.009223213539123535
0.009693464365005492
0.010479046564102172
0.011340572757720949
0.012102619791030883
0.012752815008163451
0.013246260623931885
0.01349225796699524
0.013506441869735717
0.013356907367706297
0.013128341588973995
0.013054769353866574
0.012942209920883175
0.012764645977020261
0.012616030797958373
0.012494577922821043
0.012304238958358764
0.012056420030593871
0.011823890552520755
0.011534117574691779
0.011150422286987307
0.010916437816619877
0.010881221857070928
0.010997430133819586
0.01120761467933655
0.011374507722854617
0.011527853364944461
0.011607680625915528
0.011731089410781863
0.011908627214431766
0.012080646705627444
0.012252117824554445
0.012403239650726318
0.012461476726531981
0.012359830417633055
0.0120859877204895
0.011768867654800414
0.011581179313659665
0.011554378757476804
0.011577783956527709
0.011528256177902223
0.011467809038162231
0.011495025863647462
0.011706736612319945
0.011951174364089965
0.012089304161071776
0.012146005382537841
0.012247721471786498
0.012467431926727293
0.01258659072875976
0.01253015493392944
0.01217191588401794
0.01143950060844421
0.01058743305206299
0.009877640962600711
0.00928280815124512
0.008766222028732304
0.008421456480026249
0.008248338832855228
0.00823044272422791
0.00843108415603638
0.008635137042999272
0.00884380855560303
0.009005631055831912
0.00919794242858887
0.0095071887588501
0.009846663808822634
0.010076752843856816
0.010182997589111328
0.010246305732727052
0.0102995689201355
0.010212784833908082
0.01002715044975281
0.009799126968383792
0.009614437122344973
0.009544048738479615
0.009581665687561039
0.009623439292907716
0.009567998504638674
0.00946942542076111
0.009439869709014895
0.009388237380981447
0.009117258701324463
0.008970932273864746
0.008887246379852297
0.0090278701877594
0.009403342533111573
0.00973752818107605
0.009930394706726076
0.01006952971458435
0.010236585350036622
0.010320996608734131
0.010260171823501587
0.010088333368301393
0.009974463348388673
0.009952870798110964
0.009904216680526734
0.009775431451797486
0.009651538381576537
0.009571914176940916
0.009527337293624876
0.009592482728958128
0.00974046715736389
0.009746447191238402
0.00966130269050598
0.009665086870193481
0.00988456283569336
0.010094378633499147
0.01018681595802307
0.010211563844680787
0.010165679092407226
0.010032725734710694
0.00989191827774048
0.009811554193496705
0.009728177146911621
0.009583465814590457
0.009484841213226321
0.009526328039169314
0.009613581075668337
0.009623973083496096
0.009564643888473513
0.009588100509643557
0.009527938776016239
0.009667825956344607
0.009935927658081059
0.01021101741790772
0.010396143341064456
0.010492472000122075
0.010625163850784304
0.0108429042339325
0.01098538578033448
0.010962886896133426
0.010996308202743534
0.010970336322784428
0.011054569873809818
0.011064946737289432
0.010901134967803958
0.01061441330909729
0.010200289602279665
0.009853980522155763
0.009699739151000976
0.009822508621215822
0.010082004680633548
0.010249203119277956
0.010201955642700194
0.009984039011001589
0.009710442876815797
0.009490363140106203
0.009364506320953371
0.009324205446243287
0.009352791414260866
0.009390870027542117
0.009451005611419677
0.00966499415397644
0.009921505842208862
0.010058897819519044
0.009906355409622192
0.009648559293746946
0.009552642192840575
0.009640835618972776
0.009685655651092528
0.009616014356613158
0.00956087388038635
0.009535772104263304
0.009468799600601195
0.00942106653213501
0.009512288007736206
0.009659873847961426
0.009653378820419311
0.009549252223968505
0.009605205011367796
0.009738849163055419
0.009917531423568725
0.009734270467758181
0.009429584026336672
0.009104182662963868
0.008736850147247318
0.008572265806198123
0.008549643983840944
0.008546801280975345
0.00855457885742188
0.00867262055397034
0.008924790754318242
0.009204580993652348
0.009411989097595217
0.009503826780319217
0.009496816234588625
0.00948970069885254
0.009521222486495973
0.00955155577659607
0.00960332491874695
0.009510625677108767
0.009316421890258792
0.00952880126953125
0.009918575382232666
0.01007651867866516
0.010063847017288208
0.010074398488998413
0.010296461086273192
0.01052976098060608
0.010556821746826171
0.010410850505828856
0.01028549880981445
0.010313250246047971
0.010468290920257566
0.010632363033294677
0.0107556517124176
0.01083854161262512
0.010811456279754637
0.010620694236755369
0.01048664706230163
0.010543253850936884
0.010469176511764523
0.01053554286956787
0.010641856260299681
0.010611457357406616
0.010382031717300415
0.010066845932006836
0.009901108455657958
0.009950750246047973
0.010051624717712402
0.01012415093421936
0.010247085828781128
0.010469261808395384
0.010631800937652586
0.010732055854797362
0.010841717948913573
0.01082922622680664
0.010799311475753783
0.010749348669052123
0.010648170881271362
0.010526208887100217
0.01037891062736511
0.010204195976257324
0.010078270664215088
0.01003913598060608
0.010059302234649658
0.010159457015991212
0.010380010013580323
0.010581635456085205
0.01063434329032898
0.01061310194015503
0.010538559141159056
0.010206441297531128
0.00970370574951172
0.009603713006973269
0.009812220859527591
0.009995808534622194
0.009994738864898683
0.00994046175003052
0.009846044082641604
0.009646054658889774
0.009612223587036135
0.009515743579864504
0.009155710802078249
0.009003822240829467
0.00929560154914856
0.009856589345932008
0.010473416204452515
0.011036546812057495
0.011484135618209837
0.011895501394271847
0.012481131134033202
0.012682016220092775
0.012504009599685673
0.012476126661300662
0.012498901615142824
0.012571586618423464
0.012715246171951298
0.01275732535362244
0.012612673292160037
0.012425771179199224
0.01224597185134888
0.01220513580322266
0.012314547052383424
0.01243270082473755
0.0124373872089386
0.012344936552047731
0.01224697636604309
0.012187731733322143
0.012130604076385498
0.012030910940170288
0.011902637710571288
0.011795354204177854
0.011745704193115235
0.011742894859313964
0.011709805841445925
0.011607883462905887
0.011541381521224976
0.011622444162368774
0.011823667764663696
0.01207174150466919
0.012373881416320802
0.012557813262939456
0.012787086400985718
0.012832317209243776
0.012711759300231933
0.01260048818588257
0.012467196111679077
0.012306769771575927
0.012225962524414062
0.012296839628219605
0.012248867864608763
0.012298405809402464
0.01258751823425293
0.012595709381103517
0.012123392429351808
0.011431498861312868
0.01069665256500244
0.01009740539550781
0.009599918327331538
0.009169134979248044
0.008946522912979125
0.009121475229263303
0.009627526941299435
0.009872717161178587
0.009918839874267577
0.009843080015182493
0.009694075727462765
0.009590975017547604
0.009596630773544309
0.009534158830642698
0.009399783678054807
0.009297336778640745
0.009267204914093018
0.00948666157722473
0.010040046491622925
0.01071631323814392
0.011189185552597044
0.01133573486328125
0.01131714482307434
0.011352886466979982
0.011454500102996826
0.011483079843521116
0.011414022512435913
0.011359029560089107
0.011352010993957518
0.011309647817611693
0.011194620380401608
0.011037870712280273
0.010838398838043212
0.010554825181961058
0.010308142786025997
0.010086525096893307
0.009905469284057616
0.009881626768112182
0.009902144279479979
0.00990397675514221
0.009911857719421385
0.00993482413291931
0.009978610687255857
0.010053492956161498
0.010092669506072998
0.009995387468338012
0.009826712560653685
0.009844297647476194
0.010113437757492063
0.01037330060005188
0.010522854528427123
0.010599511346817017
0.010684076747894289
0.01065153000831604
0.010402499294281005
0.010074379787445067
0.00990081904411316
0.009929626550674437
0.009908356647491456
0.009860137090682983
0.009845996990203857
0.010215037994384765
0.010563693084716797
0.010516016826629638
0.010689030923843384
0.0106879993724823
0.010870046691894533
0.010761393623352053
0.010249830284118654
0.00978728777885437
0.009739668397903445
0.00998958435058594
0.010206503086090089
0.010232962493896484
0.010175687704086304
0.010172331180572512
0.010184183540344241
0.010172514581680298
0.0102656245136261
0.010503663825988769
0.010702332363128664
0.010754621934890749
0.010777588405609132
0.010919255628585816
0.011064474754333496
0.011170668048858643
0.011202423934936524
0.01110352928161621
0.011018470163345338
0.010988828296661377
0.011033822498321535
0.011187039527893065
0.011361217756271363
0.011378804893493653
0.011277140350341797
0.011224278774261475
0.011090730724334719
0.011117107295989992
0.011018189754486086
0.010792164983749391
0.010721411333084107
0.01091200697898865
0.011195099105834964
0.011413743019104007
0.011536648597717285
0.011458996782302857
0.011087536611557005
0.010724095602035522
0.01071676526069641
0.011024684410095213
0.011348912277221679
0.011179800462722777
0.010829997119903565
0.010830149822235109
0.01074510132789612
0.010785851240158083
0.01041188217163086
0.010013385047912597
0.009883362379074096
0.009669491558074951
0.00926743649482727
0.008867897396087645
0.008767689743041991
0.009031617240905761
0.00953208885192871
0.010055913391113282
0.010434143438339235
0.010615631895065307
0.010522593288421634
0.010145311717987063
0.00991221748352051
0.009754063758850098
0.00976052438735962
0.009834012804031374
0.010034079132080077
0.010355505313873293
0.010627721958160401
0.010743941488265992
0.0107904709148407
0.010815200071334841
0.010681256437301636
0.010342944631576536
0.009983002948760986
0.009818985118865968
0.009769806346893312
0.009670947122573853
0.00969911295890808
0.009572724905014039
0.009509797248840332
0.009620917701721191
0.009759906721115113
0.009741693038940428
0.009594729127883912
0.009467048444747925
0.009371876306533813
0.009249806442260741
0.009337123222351074
0.009327931900024412
0.00934890306472778
0.009296970996856689
0.0092015528011322
0.009176536264419553
0.009328975353240964
0.009582518129348756
0.009757341232299804
0.00985909605026245
0.010011601305007934
0.010181163206100463
0.010230504236221311
0.010334433164596557
0.010442660903930662
0.010504194173812865
0.010527135181427
0.010543303804397582
0.01044974865913391
0.010213250837326049
0.009939586877822875
0.009690989217758178
0.009582518777847292
0.009665333309173584
0.009663509407043459
0.009819941759109498
0.009867591209411622
0.009819128265380861
0.009554327945709231
0.00908927797317505
0.008833502979278566
0.008836825571060185
0.008993823490142825
0.009123198194503787
0.009182382450103764
0.009296137418746953
0.009557940130233769
0.009902150220870976
0.01030098489761353
0.01079185039520264
0.01131034350395203
0.011762243032455447
0.01214970114707947
0.012405845403671269
0.012396000595092778
0.012185706539154056
0.01197102489471436
0.011783878736495976
0.011614647951126102
0.011591742057800296
0.011512427635192874
0.011487587451934815
0.011358192338943482
0.011198056716918946
0.011099745779037473
0.011041738414764399
0.010964294881820675
0.01086929733276367
0.010800365734100344
0.010751214427947998
0.010722392587661743
0.010789746026992796
0.01094658091545105
0.011027155923843386
0.010979796552658082
0.010920341329574588
0.010773786382675175
0.010372950248718262
0.009878706226348878
0.009577715482711791
0.009507759160995482
0.009568631076812745
0.009736065711975097
0.010079779481887818
0.010456751222610474
0.010585699014663696
0.010595948972702027
0.010580817375183104
0.01057768451690674
0.010558980188369753
0.010498938789367678
0.010323633546829221
0.010287847795486449
0.010379117412567139
0.010519502944946288
0.010583219165802002
0.01053036427497864
0.010447241153717042
0.010300538959503176
0.009922944679260255
0.00932641429901123
0.008763241491317752
0.008229431762695315
0.007917002372741701
0.007926185998916629
0.008171629762649539
0.008533108959198
0.009027543716430666
0.009537738361358645
0.009811950120925905
0.009876145973205568
0.00987897071838379
0.009972763204574586
0.010209508342742922
0.01048411781311035
0.01057718207359314
0.010527247924804686
0.01063567054748535
0.010994971141815184
0.01169085518836975
0.012432870407104491
0.012871513795852661
0.013005736017227171
0.013028581953048705
0.013004629487991333
0.01290928740501404
0.012867007627487183
0.01308029076576233
0.013465838575363159
0.013639650897979735
0.013476347332000734
0.013387691230773926
0.013183589200973511
0.012885473184585572
0.012454297351837158
0.012139392261505127
0.011895413217544554
0.011821524724960326
0.01190730263710022
0.01207704216003418
0.01202971248626709
0.012019765110015868
0.0119510528755188
0.011980426549911499
0.012049561014175415
0.012067317867279053
0.012001437816619873
0.011749750213623046
0.01175442801475525
0.012016843194961546
0.01207323077201843
0.012378594703674315
0.012695606555938719
0.012708684644699096
0.012704065752029418
0.012962068223953245
0.013389909667968748
0.01376920528411865
0.014066377496719358
0.014327186136245727
0.01451377424240112
0.014652442436218258
0.01467233540534973
0.014513099584579463
0.014279119577407837
0.014146864681243897
0.014144212856292722
0.013968980445861817
0.013406617841720581
0.012557361478805542
0.011690456228256223
0.011135524587631222
0.01086244246482849
0.010702610263824462
0.01070223461151123
0.01090953579902649
0.011105495052337648
0.011002904510498053
0.010620897359848027
0.010331129474639895
0.01034187110900879
0.010272991724014285
0.010233568630218508
0.010210584564208985
0.010381413698196411
0.010550674896240236
0.01072973831176758
0.010850103454589845
0.010930881996154787
0.010941768217086794
0.010936856441497804
0.010950687961578371
0.011051897621154787
0.011226207332611085
0.01152483719825745
0.011892182235717775
0.012222478275299075
0.012562568435668947
0.012495718564987181
0.012085120515823363
0.01216497508049011
0.012025466718673706
0.011881481018066404
0.011817003631591796
0.011684392843246455
0.01130994112968444
0.010715544424057002
0.010160844669342037
0.0099561839389801
0.010200858497619626
0.010602751693725584
0.010776321458816527
0.010652121944427488
0.010431342468261717
0.010277948455810546
0.010209949598312378
0.010234852819442747
0.010315418415069577
0.010553949394226072
0.01070075207710266
0.010592550525665281
0.010760605640411376
0.010971762447357177
0.010891281471252439
0.010989265041351316
0.010940385246276853
0.010692532873153684
0.010842531604766845
0.011321117124557493
0.012091581201553342
0.013044757080078124
0.013998271179199218
0.014854670295715331
0.015529084501266477
0.015854519205093384
0.01574251881599426
0.01573650413513183
0.015623663997650144
0.015365043306350707
0.015268192873001097
0.015267052106857297
0.015271823396682736
0.015063076181411738
0.014624228916168209
0.014040388107299802
0.013549294195175168
0.01332149596214294
0.013352235240936277
0.013537700738906857
0.013808044939041137
0.013862471313476564
0.01392424370765686
0.01402148935317993
0.014031612167358397
0.014123594112396238
0.014146656179428098
0.013925717668533323
0.01382901901245117
0.01351016741752624
0.012960419902801515
0.012513891057968138
0.01245094039916992
0.012712479038238524
0.012968742275238037
0.013064635639190674
0.013199058771133422
0.013351803464889527
0.013466734437942504
0.013541096639633179
0.013639980764389043
0.01385617037773133
0.01362554080009461
0.013323017330169686
0.013317762126922615
0.013122467422485356
0.013044553279876712
0.013178341197967536
0.013025998830795296
0.012740526237487799
0.012330098743438721
0.011830370197296143
0.011477664957046505
0.011339543600082394
0.011111552124023436
0.010673364343643186
0.01073237774848938
0.010569950618743894
0.010435676660537718
0.01065070913314819
0.010857152767181395
0.010905744733810422
0.011219509630203245
0.011374886322021483
0.011418373088836666
0.011476687879562375
0.011733264513015745
0.012092740268707271
0.012070049972534176
0.011739817342758176
0.011698064804077146
0.011592200832366943
0.01141639150619507
0.011341656608581541
0.011536115646362302
0.011651457586288449
0.011717190008163451
0.011984072971343993
0.012166672754287719
0.012507231855392455
0.012793985958099365
0.012822900915145876
0.01275582612991333
0.012729420490264896
0.01266486381530762
0.01255281565666199
0.012660690088272097
0.012701928577423098
0.012645931453704835
0.012635593042373655
0.012741064224243164
0.012863323383331298
0.012818334875106812
0.013312898464202881
0.014189698209762574
0.015111225948333742
0.01597733678817749
0.016991901855468748
0.018053803958892823
0.018621344118118287
0.018423512449264528
0.01814651005744934
0.01771307360649109
0.017020234022140503
0.016513434772491457
0.016519876890182496
0.016412612857818604
0.016374340744018556
0.01635343337059021
0.016136198148727417
0.015966504783630372
0.01600343393325806
0.01574450095176697
0.0159226766872406
0.016308209953308107
0.016454596118927006
0.016399181985855108
0.016406856050491338
0.016633426332473757
0.016958459348678595
0.016900069646835332
0.016894981880187992
0.017016118650436406
0.017141991920471195
0.017168788290023808
0.01713226534843445
0.017286378631591798
0.017620673122406005
0.01769723579406738
0.017319016456604
0.016875789022445676
0.016682708511352538
0.016578239049911497
0.016370051927566524
0.01616815985679626
0.01617600804328918
0.01593657328605651
0.015739188518524166
0.01568488629341125
0.01559623763084411
0.015410674438476556
0.015362239484786981
0.01572635876655578
0.015655169000625604
0.015137478322982782
0.01431572430610656
0.013303741083145137
0.012182349672317502
0.011047562389373777
0.010299361877441406
0.010296238269805911
0.010335470504760745
0.010405412969589235
0.010660456895828247
0.010969281044006346
0.011156865711212155
0.011164292554855343
0.011375555210113525
0.01174462903022766
0.012050827598571776
0.012157660722732545
0.012086088361740112
0.012248900079727175
0.012365895576477054
0.012471278915405275
0.01288200604438782
0.013237217178344727
0.013178157625198366
0.013078239078521731
0.013232908773422241
0.013601897468566895
0.013872402496337892
0.013836468420028687
0.013647113885879518
0.01352965216636658
0.013394126110076907
0.01299758625030518
0.012421123828887944
0.012030038051605227
0.011862220420837405
0.011822781543731693
0.01185507102966309
0.01181131756782532
0.01174907572746277
0.011856702451705933
0.01210760449409485
0.0124841409778595
0.012640373859405519
0.012514589204788209
0.012497764024734497
0.01228117091178894
0.012379683094024659
0.012695687618255614
0.012855513238906859
0.012689254598617557
0.012597464895248416
0.01262905471801758
0.01272828175544739
0.012937096872329714
0.013133112258911133
0.013165667009353642
0.013240222206115721
0.013504965162277222
0.013787935543060306
0.01389220623970032
0.01388221194267273
0.013920297765731813
0.013756219663619996
0.013472248830795288
0.013148943376541138
0.013118903694152835
0.013416579217910769
0.013567843217849733
0.013503781442642214
0.013346340312957766
0.01315173098564148
0.012802837600708009
0.01230406481742859
0.012012096366882325
0.011478080425262454
0.011104736528396606
0.010775718202590942
0.010748601026535035
0.01071126331329346
0.010659166898727418
0.010783186216354372
0.011000065603256231
0.011150782346725467
0.011061598196029667
0.011134264316558841
0.011336649227142337
0.011367835378646853
0.011532830905914311
0.012030299062728884
0.01252642044067383
0.012847642459869387
0.013222143383026123
0.013878455286025998
0.014546858282089235
0.014691129398345945
0.014726400728225708
0.014395500783920288
0.013790893802642819
0.013247430639266967
0.01308199586868286
0.01310650204658508
0.013218346080780027
0.01328396816253662
0.013229752502441405
0.013109990968704223
0.012921993408203127
0.012622500991821294
0.012232856931686407
0.011931640539169317
0.011889045209884645
0.012051510019302375
0.01225466625213624
0.012356839551925665
0.012369029092788704
0.01243354745864869
0.012323581237792975
0.012151173572540284
0.011970570220947266
0.01169294695854187
0.011279291381835942
0.011000912351608274
0.010827599134445188
0.01088779412269592
0.010975783882141113
0.011308966522216796
0.011538763313293456
0.01200254723548889
0.012308674631118774
0.012407349214553833
0.012308724679946903
0.012147094259262088
0.012070486478805544
0.011981017265319827
0.011980634660720826
0.011962669515609743
0.011935492324829105
0.01198589809417725
0.011926489286422733
0.01163978966712952
0.011331706266403197
0.01101669410705566
0.010584666538238524
0.010115996084213257
0.009886788415908813
0.00995978645324707
0.010088324937820435
0.010062099294662475
0.010064862699508665
0.010037836732864378
0.010078206825256347
0.010143906517028806
0.010200187120437621
0.010134448165893553
0.009965051841735836
0.009873807611465451
0.009941585960388181
0.010071745233535765
0.010153192539215086
0.010111309595108031
0.009923827819824219
0.009748151922225952
0.009832624864578246
0.01014767723083496
0.010380859565734861
0.010404036283493042
0.010380661392211912
0.01040886432647705
0.010401357049942016
0.010290071105957031
0.010371210060119629
0.010226201372146606
0.01029008897781372
0.0104404351234436
0.01043585115432739
0.010384479322433469
0.010190682811737057
0.009764246349334718
0.00935066707611084
0.009260772094726562
0.009406040906906128
0.009479264020919798
0.009468676309585568
0.009528233575820921
0.009607111034393307
0.009665520782470701
0.009809205846786496
0.0100258749961853
0.010244084615707394
0.010510444316864011
0.010800533304214474
0.010895709810256955
0.010657116975784298
0.01024504197120666
0.009900370092391968
0.009723944835662841
0.009775838584899901
0.009985940456390379
0.010070581550598144
0.010065725488662717
0.010187488594055176
0.010175435848236086
0.010002027139663696
0.009975908727645874
0.01029125217437744
0.010731971225738523
0.01102098648071289
0.011207065458297728
0.01152102631568909
0.01199050138473511
0.012378108720779425
0.012430120763778689
0.012082759141921999
0.011785969762802124
0.01188391363143921
0.012468120546340942
0.01312685264587402
0.013376860771179198
0.013183465662002562
0.013513189554214475
0.014184969005584714
0.01527555486679077
0.01619011861801147
0.0166080509853363
0.016585093431472773
0.01640562252044677
0.016346418066024774
0.016441808691024774
0.016506784000396724
0.016468627347946165
0.01648576126098632
0.016644590988159173
0.016800078687667842
0.01682626432418823
0.01673695528030395
0.01655350843429565
0.016344771957397457
0.01619611461639404
0.01597716566085815
0.015502838850021359
0.014932990922927854
0.014645992527008054
0.014726189775466915
0.014868606309890741
0.014857275094985958
0.014812095785140986
0.014832640008926389
0.014823893623352048
0.014795957794189449
0.014870454759597775
0.014801277046203612
