26.3617303109169
27.818519802093505
28.632495822906495
28.40288855791092
28.516379218101502
27.98216602087021
26.306000030040742
23.994608194828032
22.522520911693572
21.730226032733917
22.31834942340851
22.277181050777436
21.45858230113983
20.778612792491913
20.600150303840636
20.39536411523819
20.182036032676695
20.265149965286255
20.020620164871215
19.902289955616
20.179895865917207
20.257932007312775
20.424241695404053
20.48620621204376
20.474194567203522
20.95179388999939
21.837104210853578
22.871083312034607
23.42956400871277
23.63223239660263
24.324612095355988
24.79843294143677
25.318783276081085
25.64719322681427
26.156284425258637
26.55923338651657
26.61855728626251
26.712379686832428
26.79454692363739
27.727581286430357
28.479947962760924
28.5503138756752
28.60251131296158
28.14693803548813
27.751142654418945
27.832768893241884
27.915171613693236
28.018819432258606
27.93086596250534
27.632684578895567
26.826527724266054
25.641231577396393
24.78110333442688
24.66381613254547
24.610756478309632
24.717140083312987
25.1981667304039
26.031262760162353
26.036266815662383
25.918119456768036
25.526527488231658
24.88823647260666
24.959133031368257
26.221967475414274
27.835635855197907
29.311224353313445
30.167528567314147
30.58284464120865
31.486791820526122
32.861055397987364
33.841244156360624
33.90012304544449
35.20385129213333
36.568285729885105
37.117800636291506
36.64827479839325
35.688804066181184
34.48526618719101
34.42194795370102
34.34983330249786
34.2445428776741
35.19410629034042
36.07528836011887
35.60495412588119
35.28606067657471
35.703166108131406
35.648981070518495
35.440176386833194
35.1537340426445
34.49625831604004
34.64790134191513
34.7717556142807
35.69543312311173
37.66997001171112
39.78967906236649
41.86092792510986
44.02338612556458
46.67384518623352
49.5896290564537
51.34915596485138
51.76090281248093
54.14771892786026
56.7718438410759
58.56640933036804
60.00143856048584
60.97618700504303
61.641503586769105
62.3919735455513
63.61144754886627
64.53468662023545
64.3235601425171
65.34550461292267
65.96411413908005
64.63641170740128
62.4023912858963
60.72894141435623
60.02179298400879
59.728541944026944
59.22621879339218
58.46553956747055
58.134860913753506
58.970271916389464
58.37860113620758
57.89400097846985
58.659120571613315
60.08046991586685
60.93748680353165
61.35959767818451
61.608898537158964
62.42432290315628
62.19401527643204
61.07393427848816
60.41576143741608
60.77188588142395
60.87040077447891
60.735408148765565
60.7078168964386
60.600183153152464
60.8553303194046
60.82512780666352
60.25364406347275
60.42736588478088
59.33321254253387
58.13630249977112
56.85801907539368
54.87096753358841
52.66019688129425
49.95218349933624
47.43361095905304
46.102062611579896
45.33098047733307
42.780430240631105
40.350447344779965
38.76975513458252
37.243996465206145
36.91463449954986
37.540503902435304
38.368496158123016
38.77848117589951
38.58342100858688
38.94031363248825
38.787961480617525
38.47585487127304
39.34793420791626
41.713737807273866
44.04256397485733
44.96638661384583
44.84588443756103
45.58880174160004
47.59569044351578
50.97369914531708
54.12153331518173
55.223947718143464
54.17254362821579
54.32296212434769
54.71792352676392
54.88017536640167
54.53161921024323
54.260356686115266
53.969576017856596
54.10104533433914
53.851694045066836
53.93359853744507
53.69467183828354
53.34553875207901
53.23869804143906
53.3915514421463
54.019569754600525
54.79119107246399
55.1127682185173
54.85470301866531
54.73982965707779
55.33516899824142
55.17265357017517
54.387098696231845
54.583149929046634
54.703147778511045
54.752031004428865
54.95476100206375
55.60902476549148
56.28852890729904
56.79920516729355
57.85510435819626
59.249441034793854
60.38157054185867
59.1327748131752
57.79083958387375
57.41961709499359
58.592140913009644
60.8136297249794
61.9090468788147
61.221391484737396
61.564766008853915
60.96106779575348
58.15086041688919
56.8712827539444
57.27681995153427
58.05329824924469
57.35031279087067
55.7304664683342
53.177988891601565
49.802859733104704
48.82307198524475
50.65402808189392
50.516306405067446
49.21426257133484
48.28074225664139
48.36473243713379
47.87892901659012
47.39364827871323
47.236284465789794
47.35377244472504
47.03832974910736
47.616953310966494
48.777347075939176
49.964984257221225
50.72932367563248
50.14284083366394
49.24354915618896
48.29596520662308
47.71028190612793
47.51024576663971
47.03705594778061
46.30866165876389
46.23240285396576
46.202188367843625
46.64744177341461
47.27759716272354
46.75096717119217
46.2199346613884
46.399475424289705
46.717774105072024
46.568949172496794
46.028833837509154
45.50020786046982
45.68250428199768
45.76060466766357
44.89162697076797
42.59425186157227
39.812751626968385
38.29809821367264
38.024656991958615
36.731937444210054
35.92907597064972
36.511713535785674
35.91591945648193
35.133268818855285
34.774832305908205
34.400166997909544
33.23051260709762
31.405614581108093
30.91611859321594
30.263053216934203
28.736503612995147
27.35394793510437
27.18743579387665
27.688533110618593
28.615539927482605
30.060321283340453
30.88599042892456
30.57316067457199
31.277288146018982
32.51557579040527
33.56105656862259
34.1623850274086
34.21600061416626
34.17798096656799
34.94717466592789
35.65139664888382
36.080648748874665
36.09268929719925
36.40400327444077
36.707338271141055
37.13092121362686
37.45917565345764
37.65054528713226
38.245692420005795
39.51759485721588
40.95624611139297
40.52486077785492
40.88258663654327
41.84698525667191
42.619747219085696
43.13368542432785
43.87388816833496
44.41575398206711
43.44621279001236
42.46498815059662
41.88141499042511
41.748677916526795
41.784372148513796
41.94266948223114
41.95442980766296
41.682097072601316
41.19516080379486
40.73329096794129
40.68206757545471
41.05625798225403
41.5438308095932
41.64654609203339
41.61689403533936
41.517667274475095
41.521176176071165
41.81639203548431
42.384224824905395
42.28330632686615
41.62535213470459
40.459372978210446
39.29734174728394
38.5094305896759
38.60767172336578
37.602307062149045
36.19208175182342
34.46229853153229
32.35707856655121
30.82826771736145
31.062825517654417
31.868941559791566
31.50939351081848
30.827568502426146
31.422161912918092
32.35227443218231
32.7452378320694
32.42596787929535
32.718592443466186
32.510735721588134
31.229890360832215
29.1772873544693
27.52533688545227
27.449232263565065
26.164982118606567
24.21375412940979
22.4277414560318
20.891391139030457
19.508180832862855
18.863990154266357
19.16643196105957
19.477385234832763
19.71503640651703
19.70738255023956
19.797485823631288
19.717511529922486
19.654934878349305
19.860041341781617
20.349852285385133
20.63420949459076
20.06696222782135
19.54027027130127
19.802289690971374
20.526955642700194
20.967672519683838
21.060163979530333
21.59485423088074
22.643589200973512
24.1153755903244
25.19106293678284
25.29613115787506
25.454702019691467
25.260352487564088
25.184523758888243
25.00560784816742
24.91751359462738
24.89542242050171
25.36393012046814
26.332834463119507
26.803619847297668
25.56526416301727
23.807560634613036
23.201432785987855
23.50663462638855
23.179489850997925
21.80475311279297
21.079563193321228
21.870775008201598
22.58900899410248
23.14039984226227
23.338759870529174
24.53015643119812
26.07940504550934
27.615791273117065
29.229706654548647
30.327763967514038
30.206962304115294
30.414049458503722
30.54917778968811
30.588254795074462
30.4956094789505
30.306071524620055
30.395446763038635
30.75792094707489
30.647534198760987
30.68762626171112
30.733093037605286
30.676848459243775
30.56979136943817
30.42200864315033
30.314444336891174
30.310314779281615
30.257844038009644
30.14848491191864
30.064732356071474
29.845476694107056
28.984136152267457
27.727902431488037
26.31515082836151
25.155704789161682
25.17471663951874
25.653284277915954
26.058050212860106
25.937324705123903
26.209328474998475
27.234827394485475
28.53069489955902
29.3145623254776
29.19938953399658
28.737794947624206
28.573006162643434
28.756170015335083
29.278612461090088
29.58913737297058
29.34111487865448
29.339428067207336
29.058190641403197
28.413998823165894
27.173600373268126
26.6219948387146
27.053613195419313
26.280722999572752
24.77197160720825
23.340811338424682
21.962702436447145
20.930860748291014
20.97390212059021
20.784568157196045
21.122692584991455
21.983420233726502
22.933040986061098
23.15344445228577
23.216677355766297
23.96645462036133
24.99365650177002
25.463926911354065
25.702374310493468
25.74180389404297
25.446722540855408
25.122212901115418
25.48733765602112
26.142320051193238
26.94270619869232
28.06713840007782
29.704322037696837
31.318489875793457
32.14888265609741
32.42763679981232
32.61101141929626
32.52506455898285
33.0476967048645
33.58460386276245
33.9086133480072
34.15956253528595
34.10665269374847
33.382043514251706
32.2108714389801
31.18804416179657
30.348764181137085
31.021897392272948
32.55659337520599
33.49399058818817
33.33315484046936
33.14177636623383
33.61382777690888
33.793181691169735
33.789342303276065
33.63224768638611
33.84797498703003
33.48721580982208
33.377708020210264
33.512098088264466
33.839157333374025
33.89653708934784
33.79779990196228
34.264618721008304
34.517651419639584
34.25975200176239
33.74847885131836
32.79474281311035
31.604974336624146
31.209485425949097
30.938836092948915
29.800856909751893
29.111009163856508
29.144462146759032
29.474633088111876
29.69287230014801
29.81202054977417
30.067327780723573
30.051992559432982
29.161141705513
27.784294538497925
26.064496598243714
24.198002414703367
22.93600844860077
22.41930540561676
21.974017519950866
21.24882472038269
21.492099075317384
20.91961009979248
19.77830409526825
19.010910234451295
19.145724172592164
19.39142800331116
19.35129195690155
19.936897835731507
20.85624384880066
22.12861872673035
21.74775306224823
20.43105944633484
20.194975090026855
20.832581849098204
21.134348640441896
20.527492570877076
20.97851706981659
22.353497085571288
23.82371942996979
24.851276774406433
25.30513439655304
25.29446984767914
25.405674438476563
25.37024027824402
25.41981119632721
25.62738116264343
25.112429008483886
25.348836154937743
26.69623978614807
28.299407477378846
29.246910634040834
29.46959268093109
29.422282252311707
29.33574565410614
29.437281455993652
29.652014665603637
29.64409652709961
29.299667625427247
28.7623881483078
29.648728280067445
30.866326766014097
31.059018154144287
31.290086817741393
31.29308256626129
31.779240560531616
32.804195957183836
33.16264694213867
32.70398060798645
32.80387017250061
33.02904823303223
32.75923367500305
32.765170431137086
33.05714218616485
33.21766885280609
32.701723184585575
32.22338784217835
32.02908308029175
31.33458254814148
30.521246995925903
29.83475522518158
29.618630785942077
29.56510003566742
28.81762263774872
27.75812084197998
27.133016266822814
27.13192685127258
26.38128046989441
25.16274971008301
23.888164238929747
22.664342184066772
22.323231873512267
21.96782159805298
21.40757357597351
21.288237957954408
21.263600511550905
21.0200004529953
21.55973234653473
21.285623631477357
20.377930679321288
19.78701916217804
20.044110803604127
21.5041944026947
23.089622712135316
23.37109272480011
24.182523622512818
24.739782400131226
24.511914830207825
24.205851712226867
24.350007195472717
23.186096239089967
22.382351408004762
22.80338901042938
22.990299491882325
22.813278679847716
22.161961283683777
21.56276382446289
21.680382475852966
22.798972482681275
23.90616163253784
24.86995624542236
24.987898297309876
25.07303591251373
24.95637583255768
24.834859342575072
25.22518499851227
26.006292362213134
26.848422832489014
27.544321527481078
28.188478260040284
28.243655853271484
28.855047945976256
30.984241771698
33.05249642848968
34.32417417049408
34.88280795097351
35.30169273853302
35.51866028785705
35.3952337551117
35.248886318206786
35.135006136894226
35.119257621765136
34.92361103534699
35.01219982624054
35.1223484992981
35.032407712936404
34.9645343542099
34.475695009231565
34.144918389320374
33.77438732147217
33.0071431016922
32.061425948143004
30.53703432559967
28.961804733276367
28.850764179229735
28.153702874183654
27.1021825504303
27.024233446121215
27.32861226558685
27.630644092559816
28.19336570262909
28.027399725914
27.52917074203491
27.514361476898195
27.91624494075775
28.193593773841858
27.85683683872223
27.083613915443422
26.071013145446777
24.730784182548522
23.47792047023773
23.178143353462218
22.964895486831665
22.96600759983063
23.14893035411835
22.897370042800905
22.23839005947113
21.878980579376222
21.550796146392823
21.035699987411498
21.051220846176147
20.475316987037658
18.269253187179565
16.21372181415558
15.216167969703674
14.681147003173828
14.346191673278808
14.130644526481628
14.225768928527833
14.63175726890564
15.60411286354065
16.42104015827179
16.897639865875245
16.81250771045685
16.743004364967348
17.515850501060484
19.029312200546265
20.51862280368805
21.48104341506958
21.713698835372924
21.516396741867066
21.229934940338136
21.16556571483612
21.509112071990966
21.911288537979125
22.556449756622314
22.964861302375795
22.921752943992615
23.453454895019533
23.80951904296875
23.489695601463318
23.52523569583893
24.786471076011658
26.637834849357606
27.74830793380737
27.749848189353944
27.611941800117492
28.098535690307617
28.49379601955414
28.526343803405762
29.072458763122558
29.470899662971497
29.846555480957033
30.814300117492675
32.242067265510556
33.59182791233063
34.588822565078736
34.70327233791351
34.27210998535156
35.21637988090515
36.967752408981326
38.69170818805694
40.11263189792633
41.095017838478086
41.37447270393372
41.68997418880463
42.918846950531005
44.10233076572418
44.239792566299435
44.19538136482239
44.11639558792114
44.08391854763031
44.03180580615997
43.92950277805328
43.90497901916504
43.513064923286436
42.251346063613894
41.34711450099945
41.639867691993715
42.14009101390839
42.19175608158112
42.75489106655121
43.1207923746109
42.69424607276917
42.24812584400177
41.77390254497528
41.63043259143829
41.39335813999176
40.37192753791809
39.671899619102476
39.84682631492615
39.81670303344727
38.566637797355654
36.54202172756195
35.14955342292786
34.97479050159454
35.09991800308227
34.7182301902771
34.28839059829712
34.09168193340302
33.49246391296387
33.13205664157867
32.83290429115296
31.97790398597717
30.574662013053896
29.082131605148316
28.403103013038635
28.229168186187746
28.03490912437439
26.435030641555787
24.18448782444
22.072832131385802
20.655269045829773
19.88453678607941
20.128269000053407
20.92613365650177
20.722557582855224
20.038134570121766
19.806514682769777
19.627865018844606
19.26233055114746
18.935773525238037
18.50753275871277
19.15882809638977
19.848758487701417
19.84089768409729
19.784890632629395
19.519135117530823
18.884057493209838
18.47627106189728
18.359964199066162
17.8208491563797
17.714776630401612
17.833230233192445
17.746767930984497
17.458307271003722
18.112393646240236
19.253717217445374
19.759662022590636
19.78921033859253
19.56876149177551
19.11573441028595
19.092663683891296
20.380994892120363
21.901354393959046
22.36710014820099
22.58301270008087
23.27460644721985
24.33178753852844
25.8060999250412
27.592391967773438
29.1896826171875
30.10763482093811
30.49041078567505
30.794866938591003
30.96810609340668
31.05710608959198
31.480248785018922
31.85739947319031
31.78186453342438
31.629798698425294
31.758331851959227
31.670100769996644
31.403893156051637
30.851261410713196
29.8097310256958
28.711861176490785
28.16982072353363
28.21157470703125
27.868062291145325
27.30691381931305
26.865327968597413
26.989638748168947
26.504205336570738
26.19310393333435
26.666813707351686
27.091532402038574
26.773537120819093
26.41884660243988
26.11171012878418
26.583551039695738
26.855093593597413
26.51218376159668
26.782272357940673
27.03606833934784
27.314916648864745
26.659189977645873
25.58661318778992
25.018182458877565
25.038279900550844
25.636210799217224
26.960765609741213
27.962719683647155
27.293687839508056
26.131536173820496
26.213164196014404
26.762173414230347
26.47879077911377
25.57077696800232
24.75015827178955
23.404242053031922
21.741659955978392
20.812559361457826
20.181240530014037
19.66790521621704
19.76694643974304
19.535118527412415
18.743434405326845
18.206006426811218
18.286760778427123
18.758055686950684
19.220367460250856
19.146647095680237
19.954230370521547
20.888025956153868
21.347637286186217
21.492512698173524
21.69883759021759
22.0695823097229
22.52971692085266
22.900131311416626
23.083634419441225
23.197195901870728
23.164413223266603
22.54849157333374
21.629819469451903
20.997713413238525
21.13669056892395
21.233074426651
21.464816551208497
21.417152433395387
21.792555503845215
22.46576633453369
22.121312274932862
22.181580271720886
22.21249659538269
21.862724890708922
21.885567631721496
22.014029412269593
21.858907647132874
21.155694794654845
20.072507710456847
19.192602066993715
18.548080968856812
18.264848394393923
18.158439722061157
17.806237015724182
17.227535753250123
17.780239596366883
18.021335115432738
17.663966417312622
18.38569081783295
19.04839382171631
19.65975636482239
20.179957513809203
20.70336745738983
21.828392882347107
23.144055466651917
23.20488070487976
24.46504400730133
25.276650195121764
24.86152391910553
25.285852422714232
24.85252199649811
24.472122063636778
25.07591507911682
25.80728325843811
25.69108102321625
25.887154006958006
25.664601545333863
25.267973852157592
25.268615226745606
25.43877128601074
25.539196910858156
25.648999171257017
25.888231148719786
25.974958567619325
25.806829466819764
25.570375776290895
25.58109899997711
25.2786701631546
24.5202939414978
24.148680868148805
24.72002218723297
24.419889998435973
24.47900673866272
25.45775450229645
26.32388386249542
27.238087201118468
28.170765194892883
29.34360541343689
30.130729002952577
29.7161222410202
29.844035210609437
29.956918559074403
29.434142026901245
28.932849254608154
29.264773087501524
28.897181334495546
28.29043344974518
28.323301820755006
27.691118121147156
27.01088411808014
26.503624229431153
26.267734484672545
26.04597409248352
25.11205337524414
23.684313139915467
23.857796998023986
22.506252274513244
21.615510091781616
22.01433774471283
22.38980453968048
22.74049371242523
22.538176035881044
21.49553538322449
20.80981027126312
21.002285079956053
20.404364271163942
20.286619539260865
20.403891615867614
20.48640760421753
20.541579217910765
20.326138162612914
20.99576090812683
21.392363290786744
21.27441973209381
21.711511545181274
21.94558165550232
21.84658003807068
22.119870762825013
22.37155963897705
22.58500928401947
23.256854405403136
24.118789196014404
23.808781871795656
23.440528259277343
23.56111020088196
24.366935958862303
25.55908371925354
26.07777132511139
25.562438244819642
25.76532977581024
26.15110963344574
26.472102293968202
26.47417116165161
27.107636642456054
27.562730207443238
27.61794208049774
27.67001863002777
28.118681364059448
28.621819849014283
28.488002786636354
28.896207761764526
29.434441723823547
29.515888381004334
29.44252673149109
29.972537450790405
30.54474244117737
31.179942855834963
30.74187641143799
31.16498917579651
32.220753989219666
33.30460830688477
34.00257087707519
34.63297671318054
35.659861450195315
37.14558310031891
38.119910869598385
38.57286558151245
40.16154350280762
41.327430963516235
41.6132072019577
41.685693407058714
41.2018331193924
41.15254374980927
41.91675672054291
41.88910281181335
41.71386542320251
41.73147395133972
41.69642950057983
41.85356127262116
41.79205892562866
40.74954675197601
40.134077100753785
40.79126767158508
40.44649165630341
39.62823678970337
38.40664914131165
36.60981090545654
34.95786479473114
34.43108452796936
34.197298498153685
33.3547221660614
32.89887936115265
32.882129034996034
32.360393810272214
31.591097741127015
31.53254485607147
31.683765716552735
31.292398118972777
30.727311878204347
30.754946217536926
30.44751433849335
29.98535253047943
29.739314823150636
29.686880674362182
29.548457288742064
29.07757866382599
28.45365077972412
28.996244072914124
28.575590267181397
27.05548945426941
25.101856894493103
24.245204200744627
24.717396688461303
25.17929771900177
24.15103063583374
23.783418531417848
24.104643692970274
23.020121788978578
22.189462690353395
22.001770596504212
22.148269920349122
23.10310275554657
24.038689579963684
24.887809166908266
26.240992422103883
28.15978102684021
29.55917571544647
29.55975182056427
29.901580228805543
30.6618958568573
31.972844824790954
33.04353136062622
32.961809701919556
32.965478086471556
33.344129300117494
33.53726616382599
33.94014693260193
34.58269413471222
35.04911853313446
35.24263971805573
35.47638966083527
35.27036604881287
35.33751668453217
35.21493102073669
35.3770321893692
35.302119841575625
35.105273823738095
35.03704233169556
35.67947103023529
35.98483100414276
36.18761006355285
36.49353086948395
36.21455799102783
36.01278921604157
35.909902305603026
36.46500779151916
37.878841042518616
38.63363205909729
38.68259872913361
38.60063210010529
38.64641857624054
38.22143761634827
36.913630566596986
35.35263295650482
34.69697821140289
34.06708210945129
33.08251314163208
32.67377287387848
32.34527332305908
31.961593804359435
31.910411448478698
31.353499817848206
30.29727249145508
29.00464747428894
28.192085752487184
26.830326910018922
25.28026228904724
25.160016889572145
24.616441559791564
23.386344227790833
21.81532033920288
20.26400402545929
19.809686493873595
20.185235729217528
19.996420722007752
19.456517500877382
18.59396411895752
17.88738555908203
17.47603816509247
17.62033895969391
17.754981498718262
17.870890150070192
18.031198801994325
18.292354469299315
19.352078166007995
20.43121183872223
20.788086800575257
20.677711815834044
20.13396387577057
19.926883964538575
19.77159094810486
19.381134972572326
19.407730107307433
19.33109308719635
19.11893009185791
18.27134871006012
17.16750539779663
16.76866886138916
17.40090184688568
18.279422578811644
19.048285489082335
19.84156400203705
20.44174925327301
20.55013432979584
21.361019921302795
22.115378518104553
22.584926290512087
22.831668033599854
22.98640642642975
22.988179397583007
23.04020540237427
23.058754148483278
23.463729572296142
23.999840388298036
23.459371423721315
22.878659572601318
22.91865182876587
22.964261479377747
23.049402527809143
23.149552540779112
23.828185663223266
24.54028702735901
24.326276621818543
24.406343207359313
24.92295346736908
25.39534086227417
25.978775906562806
27.01599642276764
28.269932680130005
28.47454764842987
28.268084020614623
28.803597960472107
28.998616909980775
28.76276044845581
27.947886519432068
26.958584446907043
26.470656085014344
26.85008545398712
27.283426861763
27.393475403785704
28.218081192970274
28.787630195617677
28.603439202308653
29.154129166603088
29.732269868850707
30.085125064849855
29.759693522453308
29.14323558330536
28.497505650520324
28.34150379180908
28.560756034851075
28.342230558395386
27.91676115512848
27.947023181915284
27.64081730365753
27.18344208717346
26.987905621528625
26.95497314453125
26.60369568347931
26.404755415916444
26.237122507095336
25.786724195480346
25.072809600830077
24.39242121219635
24.02338270187378
23.896623134613037
23.78838132381439
23.842861862182616
24.058526091575622
24.014826254844664
23.64875370979309
22.945572290420532
23.684427495002748
24.34888964653015
24.581030282974243
24.75376259803772
24.518664412498474
23.370158886909486
22.07781391620636
21.730062313079834
21.757621736526488
21.21846471786499
20.883042759895325
20.76979028224945
20.339023189544676
19.922044892311096
19.78987898826599
19.51519859790802
19.263025951385497
19.42942538738251
18.422716636657714
17.678996796607972
17.83918215751648
17.315501737594605
16.85006679058075
16.56860088825226
16.75521551132202
17.132316517829896
17.54216582775116
17.65310264110565
17.254950799942016
16.659741163253784
17.10883211135864
17.756285133361818
18.071499710083007
18.348434886932374
18.25627239704132
17.771871523857115
17.59090739250183
17.61834587097168
17.750791249275206
18.262957758903504
19.535415172576904
21.24517126083374
22.652485003471373
23.41428403377533
23.61912127494812
23.343282570838927
23.038668856620788
23.477820568084717
24.360473699569702
25.856517820358278
25.70836946964264
25.007654824256896
25.074924545288084
25.1573722410202
25.04012770652771
25.204175686836244
25.506355438232422
25.70365698814392
25.699004039764404
26.516914396286012
28.76408929824829
31.64814190387726
33.498579044342044
33.77070068359375
34.120312995910645
34.40166437625885
34.73009335517883
35.29296517372131
36.05692481040955
36.23584361553192
36.28847357749939
36.69173987865448
37.01618316173553
37.3206015253067
37.39747713088989
36.959636783599855
35.91394054889679
35.02029860019684
34.66796591758728
35.06312535762787
35.075547385215756
34.67691849708557
33.770756916999815
33.66910054683685
34.21807554244995
35.08579246044159
35.91477718830109
36.2764545917511
36.15439619064331
35.50037803649902
34.17233563899994
32.68068170070648
31.78566640853882
31.929918847084046
32.518891735076906
32.64981592655182
32.49051335811615
32.227659177780154
31.437979259490966
30.017705760002137
29.61893234729767
29.311035137176514
28.072910752296448
27.1176629781723
27.11588379383087
27.202566075325013
26.959553208351135
26.469191756248474
26.33687120437622
25.463777928352357
23.205562987327575
20.49641357898712
18.95886661052704
19.037422952651976
18.736172432899476
18.532398958206176
18.109393129348756
17.351006827354432
16.835680766105654
16.655745944976807
16.88294568538666
17.286080737113952
17.758098664283754
18.216811413764955
18.483849401474
18.369048013687134
18.687370629310607
18.891182885169982
18.69800197124481
18.443244409561157
18.219611163139344
18.773153057098387
20.700292830467223
22.113655772209167
22.216156983375548
21.672676215171816
21.787743253707887
22.241079378128052
22.393363523483277
22.486501998901367
22.747588720321655
22.87343892097473
22.555055227279663
22.01657787799835
22.389255986213684
23.41157266139984
23.799734086990355
23.972824850082397
24.60525927066803
26.03895998954773
27.424323511123657
28.245822553634643
28.496106448173524
28.538304076194763
28.561616764068603
28.465885090827943
29.147780451774597
29.900987315177918
29.851786460876465
30.43223485469818
30.751334714889527
30.676917276382447
30.65042060852051
30.74518190860748
30.821027050018312
30.743437361717223
30.61513482570648
30.351224184036255
29.920765705108643
29.746099214553833
29.423390851020812
28.743581576347353
28.276630563735964
28.181617465019226
28.060437307357788
28.06350989818573
27.84036448955536
27.812533016204835
28.251591019630432
28.33573040008545
27.928863801956176
26.839997591972352
24.998445472717286
23.35482291698456
22.93147855758667
23.00324327468872
22.159189023971557
21.489173259735107
21.34194411754608
21.181179885864257
20.789963169097902
20.271702280044554
20.24534077644348
20.430579504966737
19.69627296924591
18.61508858680725
18.3758700466156
18.358877611160278
17.680530371665956
16.172917070388795
14.802081875801086
14.062823333740234
14.182713923454285
14.585798692703246
14.574418110847473
14.471587924957275
13.715592103004456
13.056191220283509
13.047141175270081
13.082762098312378
14.318569626808166
16.36648652076721
18.01584623813629
18.9408399105072
19.64173674583435
20.159241180419922
20.59388149738312
21.025155839920043
21.237446446418762
21.480551748275758
22.06707681655884
22.601584010124206
23.080202298164366
23.798430542945862
24.869112520217897
25.68079231262207
25.82042368888855
25.64179424762726
26.04874831199646
27.74462431907654
29.753391213417054
30.5519557094574
30.82431387424469
31.136274542808533
30.805618081092835
30.740922455787658
30.832629504203798
30.760551691055298
30.81610246181488
31.353813910484313
31.746566190719605
32.31845336437225
33.22178791046142
33.707710094451905
33.541372590065
33.68243394374847
34.54406165599823
35.11836109161377
34.845073637962344
35.83394725322724
36.51421521663666
36.68467926025391
36.56609703063965
36.26977378845215
36.097174763679504
36.28247275829315
36.57232687473297
37.00921686172485
37.576741199493405
37.08498522281647
35.42281662940979
33.37700428009033
31.664479184150697
30.482442259788513
29.693398447036742
29.156403069496154
28.857477989196777
28.441212310791016
28.59638082027435
28.96936234951019
28.924916830062866
28.574048414230347
27.588791184425354
26.58940221786499
25.521386408805846
24.70909466743469
25.165568804740907
25.767067790031433
25.4273570394516
24.017848706245424
22.556158776283265
22.11962026119232
21.753986377716064
21.428029642105102
21.552628536224365
21.338625526428224
21.332453589439393
21.553475856781006
21.61669783115387
21.050009469985962
20.76578061580658
20.52804669380188
19.680085258483885
18.771970720291137
18.53677290916443
18.35791805744171
17.538409838676454
16.699903936386107
17.67899892807007
18.115344443321227
17.80410490512848
17.220884475708008
17.159433164596557
18.42471761226654
20.0002640914917
20.46369417667389
20.292310466766356
20.080464949607848
19.673118815422058
19.491646704673766
19.644078068733215
20.1366153383255
20.96849262237549
21.74149489879608
21.94706591129303
22.28732539176941
22.962619795799256
24.021121525764464
24.54131474494934
24.54753037452698
24.723770656585693
25.29195302963257
25.725169095993042
25.41372751712799
25.13701855659485
25.089178214073183
24.41705585002899
23.664003381729128
23.076670169830322
22.659870533943177
22.291449575424195
21.977815442085266
22.279063053131104
22.259203162193298
22.165199451446533
22.61158681869507
22.894393458366395
22.767896132469176
23.22580011844635
23.74255952835083
23.69168620109558
23.492955994606017
23.56817204475403
23.78926260471344
24.08608877658844
24.558814868927
25.023640871047974
25.317836213111878
24.33518283367157
23.024826617240905
22.477329244613646
22.507656927108766
22.564989137649537
21.712088475227358
20.489811377525328
19.839703140258788
19.641897869110107
19.401112689971924
19.542169876098633
19.818992171287537
19.805099210739137
19.3517173910141
18.62568673610687
17.757249250411988
17.770171251296997
17.70216899871826
16.95890214920044
16.086811542510986
15.668742189407348
15.44869647026062
14.68626712322235
13.722303805351258
13.342971782684327
13.315262360572815
13.1322585105896
13.106605954170227
13.492760810852051
14.267089953422547
14.784696168899536
14.73331413269043
14.996231598854065
15.38791404247284
15.143807935714722
15.247947473526
15.40589337348938
14.936787028312683
14.829536385536194
15.392117505073548
15.41845121383667
15.494588022232056
16.156499719619752
16.997566447257995
17.30664779186249
16.904585971832276
17.006968679428102
16.654950251579283
16.11392291545868
15.803346657752991
16.321095638275146
16.50731731891632
16.878104343414307
18.00135657787323
18.993217997550964
19.270976581573485
18.880930342674255
19.522085237503052
20.312574186325072
20.82355891704559
20.878419060707092
20.796023511886595
21.298607058525086
21.599018592834472
21.249069757461548
21.3051361989975
21.031815943717955
20.80833791255951
21.173910326957703
22.16644066810608
23.30405123233795
24.07595822811127
24.130157175064088
25.020437569618224
26.507991733551027
27.986296615600587
29.219513897895812
29.694221911430358
29.845994310379027
30.829944801330566
32.31178551197052
32.61600312709808
33.59180079460144
34.26334302902222
35.2173402261734
37.72124180316925
40.63035679340363
42.80319704055786
43.31597869873047
42.67848773002625
42.44930263519287
42.39772531986237
42.103554968833926
41.406172223091126
40.702555351257324
40.75715492248535
40.34110656261444
40.199577722549435
40.06125600814819
39.9733594083786
39.611544609069824
39.453783507347104
38.99108941078186
37.81706720352173
36.681102209091186
36.022066850662235
36.03562289237976
35.45218763828277
34.747298040390014
34.12869874954224
34.05217250823975
34.27730828762054
33.942732906341554
33.83409749031067
34.423179326057436
34.95584319114685
35.5269899892807
35.70152191162109
35.37595157146454
34.723017616271974
33.55015268802643
32.53398924827576
32.40948410987854
31.837300786972047
31.33585042476654
31.287611985206603
31.450901012420655
31.5463006067276
31.082616987228395
29.517753081321715
27.551754508018494
27.191827688217163
25.802705903053283
24.760241985321045
23.799664368629454
21.020915722846986
18.005778827667235
15.916550545692443
15.07589250087738
15.07435727596283
15.02625587940216
15.101990442276001
14.998436822891236
14.783145341873169
15.1417134141922
15.449190864562988
15.5833287525177
15.553837032318116
15.69309874534607
15.64045223236084
15.50348569393158
15.395314564704895
15.881141300201415
16.69888844013214
17.189036545753478
17.400302414894103
17.51867934703827
17.51674668312073
17.584029035568236
17.61055820941925
17.425494713783266
17.093221292495727
16.797137951850893
16.80638216495514
17.346463532447814
17.814331765174867
17.26920852661133
17.952914395332336
18.86490861415863
19.431352553367613
20.699688215255737
22.37733244895935
23.37595165729523
23.323326063156127
22.66462234020233
21.69425489425659
20.76718786239624
20.28936391353607
20.246283707618712
20.254172596931458
20.845522322654723
21.305089130401612
21.29671765804291
21.572154622077942
22.351567702293394
23.508570199012755
24.36196529865265
24.493006043434143
24.94078182220459
25.857757019996644
26.36501016616821
26.114335660934447
26.035201659202574
26.76273802280426
27.022619800567625
26.665088386535643
26.931026797294617
27.55969957828522
28.20810709953308
28.914779319763184
29.16012858390808
29.186642599105834
28.723246216773987
27.972763781547545
27.201620535850523
26.837924752235413
26.711085357666015
26.79437129497528
27.05858455657959
27.369486932754516
27.37971121788025
27.30002220630646
27.42995309352875
27.320178728103638
26.240828409194947
25.2373544216156
25.224252038002014
24.496057815551758
23.814968905448914
23.00112078666687
21.508926029205323
20.09230137348175
19.856707596778868
20.374930868148805
20.440338053703307
19.872987937927245
19.50093883037567
19.919999146461485
20.45535120010376
20.2289169216156
20.106491737365722
20.065434398651124
20.031707019805907
19.89512565612793
19.331828031539917
18.669282627105712
18.31710771560669
18.214013228416444
18.061325078010558
17.399995245933532
16.42890299797058
16.158577771186827
15.944890398979187
15.219521503448487
14.961039381027222
15.431755661964417
15.022675380706787
14.724473996162414
14.135419116020202
13.944887018203735
14.875602550506592
16.17854640007019
16.99457639694214
17.467617177963255
18.077097787857056
18.305355677604677
18.796177053451537
19.83281771183014
20.490201864242554
20.529349184036256
20.564018383026124
21.09123064994812
21.84379156589508
23.09422466278076
25.151117763519288
26.710634188652037
26.968832030296326
27.57937710285187
28.333013463020325
29.143371949195863
29.860697417259217
29.607944083213805
29.696171288490294
29.98035994529724
29.949013843536378
30.05665936946869
30.54726664543152
30.80857021331787
30.635833311080933
30.625099868774413
30.228385663032533
29.83049195766449
29.83185315132141
29.698864946365358
29.632553668022155
29.360403876304627
28.96443510055542
28.91078386306763
28.564840493202208
28.330345911979677
28.637406482696534
28.799012999534607
28.86253426551819
29.424627513885497
29.55575756072998
29.2023885345459
29.33719419002533
29.416487188339232
29.559852986335756
29.092870659828186
28.04184851169586
26.665786385536194
26.062512431144714
25.82406548023224
25.492821135520934
25.427769584655763
25.021801319122314
23.911001048088075
22.92625249385834
22.994798789024355
23.964079008102416
24.371028656959535
23.833374428749085
22.440339789390563
20.945867795944213
20.403911542892455
21.231832137107848
20.558330793380737
20.173373894691466
20.186575636863708
20.207687191963196
20.625853776931763
19.98810613155365
18.92505947113037
18.536281266212463
18.48235151767731
18.256790404319762
17.69408643245697
17.394184432029725
17.397487969398497
18.101407237052918
19.678197555541992
21.011301140785218
20.98455153465271
22.336191782951357
24.544755234718323
27.273255758285522
29.99109857082367
31.63759798049927
31.700886850357055
31.446518421173096
31.652726063728334
32.00791602134704
31.667425212860106
32.11783235073089
32.76975144863129
32.97423228740692
33.04582330703735
33.61077667236328
34.2472018623352
34.022114276885986
34.482199177742004
34.762523641586306
35.085689692497255
35.35453026294708
35.23865212917328
35.263218951225284
35.349339547157285
35.326481471061705
35.08002731323242
34.557832903862
34.11806220531464
34.13420159816742
34.50413409233093
34.431034932136534
33.696513967514036
32.958135628700255
33.09013661384583
32.32495008945465
31.656572518348693
31.366769876480102
31.1675092458725
31.11641836643219
31.36708975315094
31.752866826057435
31.88462052822113
31.604404153823854
31.440279793739318
31.58711049079895
31.757567291259765
31.7636292552948
31.874356055259703
31.764595217704773
31.89755561351776
30.771964740753173
29.85956202983856
28.72296536922455
26.903966856002807
25.451229882240295
25.43339365005493
25.61488778591156
25.384885416030883
25.385782580375672
25.987404942512512
26.049124512672424
25.997242188453676
25.79851888179779
25.727393670082094
25.87914701461792
26.59591547012329
27.677731609344484
27.486199812889097
27.070887274742127
26.492463526725768
26.028616003990173
26.318770418167116
26.882984223365785
26.956588835716246
26.998892879486085
26.898486771583556
26.976819925308227
26.96120301246643
26.790628509521483
27.104428200721742
27.759879775047303
28.712406978607177
29.36312870979309
29.320965552330016
29.44344253540039
29.18601299762726
28.8455593252182
28.858859362602235
28.71333616733551
28.984623036384583
29.391076884269715
30.091583952903747
31.049110317230223
31.87797080039978
32.29342445850372
32.827624340057376
32.57356748104095
30.89158405303955
30.012648906707764
30.297743043899537
30.51311860561371
29.753352174758913
28.578823108673095
27.947366189956664
28.148702273368837
28.50915189743042
28.753078527450562
28.481175346374513
28.71483678340912
29.435842576026918
30.483479461669923
30.981302604675292
31.31323462486267
32.19712902545929
31.709497618675233
30.77877327442169
30.70170476436615
31.532848944664
32.37251553058624
33.09086826324463
33.53324138641357
33.32517642021179
32.65341884613037
32.52427139759064
33.107071347236634
34.153362460136414
34.61663824081421
34.7842538690567
34.668111262321474
34.38632122516632
34.364164199829105
34.93600354671478
36.15356451511383
37.036124296188355
37.408297786712644
38.25947003364563
38.17701087474823
38.24020295143127
38.817494149208066
38.81400446414948
38.530240712165835
37.898416237831114
37.06825203418732
36.988782024383546
37.603521618843075
38.18244514465332
38.34198649406433
38.31431013584137
38.6522452545166
39.55004314899445
40.60454191207886
41.41474838256836
41.88287071704865
41.52344486236572
42.056705417633054
42.14063064098358
42.07650999546051
42.748830270767215
42.033810839653015
40.75268087387085
38.75301631450653
37.810149235725405
37.58727098941803
36.35858386993408
35.80649719715118
35.3689120721817
34.42291558265686
33.574118547439575
33.10318140983581
32.68837185382843
32.25889934539795
32.3994628572464
32.352350459098815
32.543710646629336
32.00786436080933
30.93354217529297
30.358394174575807
30.319157738685607
30.247528901100157
30.277104926109313
29.566730489730833
27.653744359016418
25.89244641304016
25.83744854450226
26.71768162727356
26.525859570503236
26.53202943325043
26.962292470932006
26.860998964309694
26.347564387321473
25.945504231452944
25.95703935623169
26.319481797218323
26.989452953338624
27.04987660884857
26.46520823478699
25.973081278800965
26.0935355758667
25.729004282951355
24.63011040687561
23.217547945976257
22.381094522476197
21.972912430763245
22.349056057929992
21.486468262672425
21.52354597568512
22.754905309677124
23.8380030298233
24.118594450950624
25.216586837768556
27.092658376693727
27.95830421924591
27.67324514389038
28.65389923095703
30.78779790401459
33.31633504867554
34.89163379669189
34.68178342342377
35.255433826446534
36.27113525390625
37.21119324207306
37.10507424354553
37.532943778038025
37.96488396167755
38.836740937232975
40.05681251049042
40.838995447158815
41.08398533344269
41.34334725856781
40.86492295265198
40.55842510223388
40.744625267982485
40.48866213798523
39.40560057640076
38.098316173553464
37.24119432449341
37.009229774475095
36.18884130954743
35.83105046749115
35.79218661308288
35.69033910751343
35.58491985321045
35.43754194259643
34.25330956935883
32.98771430492401
32.33576132774353
32.2814741897583
32.40710433483124
32.26278694152832
32.07742767333984
31.92450593948364
31.356325583457945
30.82907905578613
30.463810391426087
30.56226740837097
30.111567430496216
28.54572491645813
27.16668305397034
27.125539302825928
25.767463598251343
23.92865954399109
22.945188183784484
22.976532320976258
22.3119664478302
20.74747507572174
18.62556580066681
17.026017265319823
17.55198214530945
17.750469217300417
18.06552478790283
18.721754117012026
19.735502624511717
19.837515697479247
19.1937882232666
18.463904829025267
17.23263039112091
15.947829723358154
15.280776190757752
15.174993715286256
15.22644971370697
15.287752208709717
15.152082357406616
15.348134260177613
15.608336782455444
15.679932060241699
16.120899848937988
16.484786496162414
16.721119046211243
17.10008783340454
17.704587831497193
17.900552339553833
17.892208375930785
17.677602133750916
17.592091388702393
18.359328274726867
19.418604073524474
19.605999846458435
20.044585905075074
20.60073266506195
20.732890038490297
21.359209928512573
21.693200788497926
21.86515305995941
22.296027960777284
22.67787429332733
22.90283664703369
23.031183695793153
22.817592988014223
23.022827091217042
23.557528471946718
24.08626452445984
24.413762907981873
24.42089186191559
24.46732277393341
24.462530226707457
24.291483149528503
24.227424545288088
23.763989095687865
23.025910792350768
22.19377510070801
21.29874963760376
20.41975955963135
20.00489893913269
20.10716161251068
20.233660440444947
20.608265080451964
20.9153115940094
20.75704002857208
20.84629005432129
21.019099445343016
20.917651538848876
20.838609614372253
20.437390637397765
20.177001180648805
20.0463254737854
19.76602292060852
19.77536478996277
19.907139415740968
19.825967602729797
19.60867901802063
19.719469690322875
19.888428444862367
20.042532801628113
20.16570195198059
19.63920931339264
18.75564462184906
18.391620059013366
17.774907636642457
17.05359392642975
16.99431416988373
16.365211963653564
15.816372666358948
15.421859817504883
14.932011675834655
14.428739008903504
14.029052038192749
13.892033472061158
13.997055983543396
13.820537576675415
13.460393128395081
13.08074296951294
12.889457120895386
13.176921982765197
13.002084994316101
12.601237626075745
12.333684582710266
12.505677099227904
12.636060886383056
12.203569207191467
11.355417013168335
10.702159242630005
10.62991006374359
11.133819317817688
11.951212844848634
12.84667477607727
13.438861565589905
13.479751734733581
13.481839456558227
13.253445916175842
13.100342326164245
13.170513796806336
13.365024676322937
13.629956731796264
13.896166400909424
13.951389803886414
14.075213074684143
14.312923493385314
14.534315481185914
14.541405057907104
14.297154741287232
13.93176317691803
13.644207510948181
13.464897017478943
13.555724358558654
13.81762800693512
14.007113585472107
14.154025588035584
14.195076065063477
14.53486330986023
14.972711067199707
15.239697074890136
15.510503978729249
16.13911971092224
16.315223932266235
16.583834705352782
16.94236711025238
17.399515614509582
18.096360058784484
19.005734338760377
19.720372242927553
19.80271273612976
19.801631364822388
20.0573282289505
20.265374121665953
20.46299719810486
20.70906035900116
20.6722057056427
21.02537518978119
21.609415335655214
22.20736080646515
22.740960063934327
23.014402012825013
22.66958613872528
21.698206419944764
20.374393162727355
19.370789551734923
19.040717568397522
19.302673802375793
20.07543318748474
20.670286178588867
20.699265851974488
20.580091609954835
20.556942958831787
20.996107416152952
21.93557110309601
22.051253900527954
22.053934330940248
22.323197288513185
22.387394905090332
22.43324652671814
22.8430730676651
23.55779399871826
24.270081963539123
24.40234037876129
23.898435578346252
23.666623301506043
23.726753873825075
23.615861768722535
23.642432894706726
23.4299742603302
23.15052173137665
23.01306559562683
22.803606815338135
23.023936867713928
22.797268662452698
22.504557375907897
22.016926460266113
21.11695596218109
20.079657869338988
19.456586532592773
19.55978325843811
19.61909095287323
19.254747891426085
18.960627131462097
18.895628175735474
19.011786003112793
19.20229646205902
18.86339448928833
18.38127025127411
17.91838123321533
17.40565076351166
17.07015452384949
17.12077886581421
17.349749522209166
17.57735230922699
17.671019868850706
17.708862795829774
17.42542918205261
16.700195593833925
16.101043648719788
15.978112058639526
15.9774609375
16.077009673118592
16.29366491794586
16.843863749504088
18.370675106048584
19.34834295272827
18.874168481826782
19.026053342819214
19.911346216201782
20.79596872329712
22.177153120040895
24.50992166519165
27.13728823661804
28.903158316612245
29.06684206008911
29.065032963752746
29.11501859664917
28.77015314102173
28.667026028633117
28.93949282646179
29.04406189441681
28.66789110660553
28.452425899505617
29.066411232948305
30.0793150472641
31.073718724250792
31.43403522014618
31.496478667259215
31.713675208091736
31.780286197662353
31.740516152381897
31.70178874015808
31.634354186058044
31.514631209373473
31.404967555999757
31.349222207069396
31.345817584991455
31.37480806350708
31.38322596549988
31.23902314186096
31.273394193649292
31.860683426856994
33.10771586894989
34.787096157073975
36.53204862117767
37.901851167678835
38.57041142940521
38.49957459449768
38.815711688995364
39.65275547504425
41.119667868614194
42.78223347187042
43.94276479721069
44.155989990234374
43.42729407787323
42.41134646892547
41.95701393127442
41.997148532867435
42.46269663333893
43.137984747886655
42.84357003211975
41.37913838386535
39.93436647891998
39.56863742351532
40.12528978347778
40.18680055618286
40.247733173370364
40.47652786254883
40.37654846191406
40.07071249961853
39.898210663795474
39.98549919605255
39.99506826400757
39.52245667457581
38.49692771434784
37.656011266708376
37.71631426334381
37.99510885238647
37.88605460643768
37.89988968849182
38.28135168552399
38.92984483242035
39.5483593416214
39.8152368927002
39.67572644233704
39.499800539016725
39.51885089874268
39.702428321838376
39.89600703239441
39.94354744911194
39.87045156002045
39.35275243282318
38.19265614032745
36.567462873458865
34.75100414276123
33.49724517345428
33.42520763397217
34.17531292915344
34.22577699184418
33.32916135311127
32.1122079706192
30.59364839553833
29.049466643333435
27.82358976840973
27.088196597099305
26.791626052856444
26.95185520648956
26.459675855636597
25.19873229980469
23.444007201194765
21.609744400978087
20.103608832359313
18.49693431854248
17.16444166660309
16.585561089515686
16.506540784835817
16.41976089954376
16.269635648727416
16.38300675868988
16.718707489967347
17.11117633342743
17.43283356189728
17.625764985084533
17.727223501205444
17.93696888923645
18.118446316719055
18.060940918922423
17.86839681625366
17.583760113716124
17.079335308074953
16.50895203113556
15.792751460075378
15.076909084320068
14.796718373298646
14.887593646049499
15.010842566490174
14.97123100757599
14.81500641822815
14.76873993396759
15.119118790626526
15.465831737518311
15.78202453136444
16.231095910072327
16.776500639915465
17.27271569252014
17.251842660903932
16.797805852890015
16.613219232559203
17.10758731365204
18.306228699684144
18.97451900959015
18.900060720443726
18.355442996025086
17.994959387779236
17.764986171722413
17.779456310272217
18.12384717464447
18.764662022590638
19.46053195476532
20.004163579940794
20.34891496658325
20.280646443367004
20.43748755931854
20.945695667266847
21.71237917423248
22.860071320533752
23.871600375175476
23.90532817363739
24.23188648223877
24.345264391899107
23.932959389686584
23.982275972366335
24.278636445999144
24.714010934829712
24.92487582683563
24.750351185798646
25.218995337486266
25.694788570404054
25.735611381530763
25.921455144882202
26.259950404167174
27.09843108177185
28.19927363395691
28.589153161048888
28.5856543636322
28.866433720588685
28.766460947990417
28.766542811393737
28.735506410598756
28.43783987045288
27.986133065223694
27.53750247478485
27.06821162700653
26.60901608467102
26.35722738265991
26.361518445014955
26.23125036239624
25.957883729934693
25.349981484413146
24.40257556915283
23.58384566307068
23.41478865146637
23.656122250556948
23.45304337501526
23.42914969444275
23.315512828826904
22.992170810699463
22.54373695373535
22.103011417388917
21.80106195926666
21.77806622982025
22.006550760269164
22.06704987049103
21.567272033691406
20.631284284591676
19.625725927352907
18.991893262863158
19.187645301818847
18.768531432151793
18.314267840385437
18.30803177833557
17.92660406589508
17.448856687545778
16.90169539451599
16.48792507648468
16.297305307388307
15.42461989402771
14.714590377807617
14.725022950172423
14.839925246238709
14.709953293800353
14.130076336860657
13.368622479438782
13.06345618724823
12.969848880767822
12.555616512298585
12.585648341178894
12.570138597488404
12.533863277435303
12.591826858520507
12.566493258476257
12.318193769454956
11.993778972625732
11.776447129249572
11.66707230091095
11.667117819786071
11.757623739242554
11.572639598846436
11.37284417629242
11.331029257774354
11.368985848426819
11.32255611896515
11.286815762519836
11.483190717697143
11.442317328453065
11.441916236877441
11.473520317077636
11.318073625564574
11.036124758720398
10.914735112190247
10.940450234413147
10.81636239528656
10.530369591712951
10.360445075035095
10.272565402984618
10.035120854377746
9.664116110801697
9.421222257614136
9.426863903999328
9.554054260253906
9.62935260772705
9.613734822273255
9.596369338035583
9.66963921546936
9.818928995132445
9.938214468955994
9.974626493453979
9.93817099571228
9.777633366584778
9.499072761535645
9.260648407936095
9.109786515235902
8.944982099533082
8.822907166481018
8.89231734752655
9.073828706741333
9.154415655136109
9.081171278953553
8.983794264793396
9.060848546028136
9.43073950767517
9.961151442527772
10.379473481178284
10.58630030155182
10.680954275131226
10.739679889678955
10.765417466163635
10.713015031814574
10.571470584869385
10.513780288696289
10.500454750061035
10.38656334400177
10.17909417629242
9.978036608695984
9.897169065475463
9.943155069351196
10.082746000289918
10.327406215667725
10.62801260471344
10.726276292800904
10.434905571937561
10.21356776714325
10.138255896568298
10.305038390159607
10.532325801849366
10.761157732009888
10.993044829368591
11.115656185150147
11.086670713424683
11.010896291732788
11.016156868934631
11.14410409450531
11.277050523757934
11.269734683036804
11.200712814331055
11.276123061180115
11.498579463958741
11.703020911216736
11.863220582008362
12.036938223838806
12.110600180625916
11.969422922134399
11.77989968776703
11.735465874671936
11.7526256275177
11.721328496932983
11.71983057975769
11.795004787445068
11.845186057090759
11.79200837135315
11.65521592617035
11.426012454032898
11.026480836868286
10.798722867965699
10.559958691596984
10.323625779151916
10.22848934173584
10.259434547424316
10.447154521942139
10.574259910583496
10.610126881599426
10.746343050003052
11.110046801567078
11.589318175315857
11.871723828315735
11.844130315780639
11.61947193622589
11.24601999759674
10.755431804656983
10.397863340377807
10.385526700019836
10.386466975212096
10.47116141319275
10.451184735298156
10.33723168849945
10.143961234092712
9.967170400619507
9.966699628829955
10.131730146408081
10.29901566028595
10.3523686170578
10.264725441932677
10.137091188430785
10.118516807556153
10.155227522850037
10.06738046646118
9.86235918045044
9.722913155555725
9.733265514373779
9.805811624526978
9.87304169178009
9.963556618690491
10.051219234466553
10.029604592323302
9.884704213142395
9.733912768363952
9.701281661987304
9.829693193435668
10.03112111568451
10.113007516860963
9.981748147010803
9.820069661140442
9.919648513793945
10.002971110343934
10.188716115951538
10.3781516122818
10.388056259155274
10.304764351844788
10.200920572280884
10.176014709472657
10.205436997413635
10.125170798301697
9.861338200569152
9.554683752059937
9.425986552238465
9.505021920204163
9.635787830352783
9.759940900802611
9.906171193122864
10.02207820892334
10.078190274238587
10.122836861610413
10.169262418746948
10.186396131515503
10.162326593399047
10.143589873313903
10.13983901500702
10.053015637397767
9.88253411769867
9.766896872520446
9.728548474311829
9.66849748134613
9.540115456581116
9.384230914115905
9.291964950561523
9.32573887348175
9.467486066818237
9.64210123538971
9.773385953903198
9.84569311618805
9.864725408554078
9.82931906223297
9.81465970993042
9.920455822944641
10.123281607627868
10.275312333106994
10.23660940170288
10.03703583240509
9.830716595649719
9.667188158035279
9.508311185836792
9.38407986164093
9.332353234291077
9.330066523551942
9.344001121520996
9.37726303577423
9.477308588027954
9.631377425193786
9.704306502342224
9.654638137817383
9.657407412528991
9.79124219417572
9.90177231311798
9.900352559089661
9.827872319221497
9.710090823173523
9.594800906181336
9.56275776386261
9.644235858917236
9.782987070083617
9.847083506584168
9.749840259552002
9.628655090332032
9.52937403678894
9.484437899589539
9.364528517723084
9.348178658485413
9.227361159324646
9.277556476593018
9.414390163421631
9.609858717918396
9.912151069641114
10.229556002616881
10.411428017616272
10.479280138015747
10.553296117782592
10.623893098831177
10.554962034225463
10.320729851722717
10.092861700057984
10.032750735282898
10.129854855537415
10.256232266426087
10.30439350605011
10.26524043083191
10.194114294052124
10.154680972099305
10.173533663749694
10.234308733940125
10.32774778366089
10.463976817131043
10.660167770385742
10.882290086746217
10.977181572914123
10.84208330154419
10.632096495628357
10.570832495689393
10.632979316711426
10.619350123405457
10.44831169128418
10.213949398994446
10.072024354934692
10.098689904212952
10.18561873435974
10.197678956985474
10.174031014442443
10.199926872253418
10.230106544494628
10.18998424053192
10.143014698028564
10.223811807632446
10.441350736618041
10.620131101608276
10.752520236968994
10.813008003234863
10.94559953212738
11.0303191280365
11.233984231948853
11.160173640251159
10.917275342941284
10.705574016571045
10.559651947021484
10.463513684272765
10.415300769805908
10.350318322181701
10.214515376091004
10.10406009197235
10.180951509475708
10.414236078262329
10.569921045303344
10.537765731811524
10.419448218345643
10.281316771507264
10.112585067749023
9.953084268569945
9.87619517326355
9.871014051437378
9.832881088256835
9.753747582435608
9.756191124916077
9.823775582313537
9.780430245399476
9.629299159049987
9.589829688072205
9.747597441673278
9.94953360080719
10.049205017089843
10.045756402015686
9.951306309700012
10.031640439033508
10.163903794288636
10.097436027526856
10.201549425125123
10.285521268844604
10.276599974632264
10.26096574306488
10.310790152549744
10.374583992958069
10.359821438789368
10.274575939178467
10.188011565208434
10.133608679771424
10.111585278511047
10.100796360969543
10.110590138435363
10.187829275131225
10.29161630153656
10.339310278892517
10.361674594879151
10.415924668312073
10.466186714172363
10.451845703125
10.385374708175659
10.358142433166504
10.44869812965393
10.598431820869445
10.616797018051148
10.41107367992401
10.14706814289093
10.030413103103637
10.05032793045044
10.106724934577942
10.191751112937927
10.303743391036987
10.400361108779908
10.46742555141449
10.520777006149292
10.608284077644349
10.748765716552734
10.846160345077514
10.837769722938537
10.818792977333068
10.83539758682251
10.759917278289794
10.556357898712157
10.404677624702453
10.387419080734253
10.399953112602233
10.458353848457337
10.360931243896484
10.188383083343506
10.155520672798156
9.942003769874573
9.810996737480163
9.863705306053161
9.965821566581726
9.983115181922912
9.957390241622925
9.959245038032531
9.916490468978882
9.812939858436584
9.825388989448548
10.002613439559937
10.146118483543397
10.132017774581909
10.001846117973328
9.831430854797363
9.721532163619996
9.72505163192749
9.735254263877868
9.618877029418945
9.428342671394349
9.324206538200379
9.334309430122376
9.330897641181945
9.268375878334046
9.301692924499513
9.501874508857727
9.668631715774536
9.663721179962158
9.62799575805664
9.693445177078248
9.805799903869628
9.870774703025818
9.859412569999694
9.836421790122985
9.85784459590912
9.81166419506073
9.60202066898346
9.38010826587677
9.305804114341736
9.298810114860535
9.263363966941833
9.305473952293395
9.47687710762024
9.569212236404418
9.463204317092895
9.366676230430603
9.45243522644043
9.621599922180176
9.745369925498963
9.828307781219483
9.915619263648987
10.012690510749817
10.06978931427002
10.031680994033813
9.91047320842743
9.749822573661804
9.592530312538146
9.501104955673219
9.471695618629456
9.385493774414062
9.20315209388733
9.081794362068177
9.13150451183319
9.243360390663147
9.303632001876831
9.379846158027648
9.592089929580688
9.922056412696838
10.215180449485779
10.342381830215453
10.311446833610535
10.23139437675476
10.209530663490295
10.22175072669983
10.132999415397643
9.953818421363831
9.871163339614869
9.934849200248719
9.984236536026001
9.907363653182983
9.760644946098328
9.662518882751465
9.659449558258057
9.698393926620483
9.756122689247132
9.851915111541748
9.902975916862488
9.840482206344605
9.776136078834533
9.783347778320312
9.723228101730347
9.507934608459472
9.327242383956909
9.427554740905762
9.752252221107483
9.965838060379028
9.920621271133422
9.85402075767517
9.931778173446656
9.988810667991638
9.8884099817276
9.734870300292968
9.668177914619445
9.68782404899597
9.715320801734924
9.769867329597473
9.957819046974182
10.253948512077331
10.463647837638854
10.465220351219177
10.349384193420411
10.260820679664612
10.223523168563842
10.167348637580872
10.043792796134948
9.855568523406982
9.605617146492005
9.331160192489625
9.14098189353943
9.104639167785644
9.189566798210144
9.312984561920166
9.3768159866333
9.350082788467407
9.345521655082702
9.482109994888306
9.684806361198426
9.782285561561585
9.778355116844176
9.82764898777008
9.973522939682006
10.107039127349854
10.142297749519349
10.073316040039062
9.940851006507874
9.849481282234192
9.885476536750794
9.971065196990967
9.959028487205506
9.892761816978455
9.979605259895324
10.24015615940094
10.414928588867188
10.319307208061218
10.064971723556518
9.861646618843078
9.741093754768372
9.590075449943543
9.433203330039978
9.418803009986878
9.536195921897889
9.649670028686524
9.695328817367553
9.685456614494324
9.662398657798768
9.631884655952454
9.520318956375123
9.317382221221925
9.175680966377259
9.23603768825531
9.451170234680175
9.642609038352965
9.674687662124633
9.600651745796204
9.586787767410279
9.683271121978759
9.820458345413208
9.922542228698731
9.921246824264527
9.81776249408722
9.702912383079529
9.633414030075073
9.61169762134552
9.659786076545716
9.729885029792786
9.669794054031373
9.464479546546936
9.29628613948822
9.256637511253357
9.2101313829422
9.003696851730346
8.718307466506959
8.55283640384674
8.487363166809082
8.518940486907958
8.592888336181641
8.710565457344055
8.854486727714539
8.99688136100769
9.099383072853088
9.088448123931885
8.989419798851014
8.95145951271057
9.000048370361329
9.03091238975525
9.075699067115783
9.241037468910218
9.443398146629333
9.481971073150635
9.351200094223023
9.265918550491334
9.312770652770997
9.365935311317443
9.389504985809326
9.44559202671051
9.507608442306518
9.56754186630249
9.68351665019989
9.791007041931152
9.754906148910523
9.587653255462646
9.422565093040467
9.384202508926391
9.50147936820984
9.680443696975708
9.8007648229599
9.783659110069275
9.659371724128723
9.591917080879211
9.632059683799744
9.626203937530518
9.518941774368287
9.434318251609803
9.447234482765198
9.52797185897827
9.61783308982849
9.674478883743285
9.731975669860839
9.838510832786561
9.980487160682678
10.168126282691956
10.415389904975891
10.669538822174072
10.881327629089355
10.856443099975586
10.664183259010315
10.516594171524048
10.432207841873169
10.237554411888123
10.332489223480225
10.393871169090271
10.265907711982727
10.366660237312317
10.50440848350525
10.563573069572449
10.497932872772218
10.360744986534119
10.272530727386474
10.352973589897156
10.616783671379089
10.878294224739074
10.953279013633727
10.888889355659485
10.828995890617371
10.865817022323608
11.002433118820191
11.092191772460938
11.013347411155701
10.918957238197327
11.034076638221741
11.274317297935486
11.371458859443665
11.274421558380126
11.150965647697449
11.098733706474304
11.069999089241028
11.028478193283082
11.021368746757508
11.105401229858398
11.274290709495544
11.440920162200928
11.513147196769715
11.503111591339112
11.468920102119446
11.39435212135315
11.275813236236573
11.189935760498047
11.142413430213928
11.068437581062318
10.992849559783936
10.972079153060912
10.959806141853333
10.892397446632385
10.838087906837464
10.864123129844666
10.83392942428589
10.645773072242736
10.471760926246644
10.595384731292725
10.528600459098817
10.488400921821594
10.630251832008362
10.609111499786376
10.623617496490478
10.706164288520814
10.804977841377259
10.83241298675537
10.7755397939682
10.692350873947143
10.59565990447998
10.488587999343872
10.418115906715393
10.422400641441346
10.471403574943542
10.467724161148071
10.382975945472717
10.329737615585326
10.358432750701905
10.345754852294922
10.179562940597535
9.928497109413147
9.780106964111328
9.790681338310241
9.815224838256835
9.761874661445617
9.676038970947266
9.591572194099426
9.506603016853333
9.401043844223022
9.2704017162323
9.203259272575378
9.282210450172425
9.433458352088929
9.507075090408325
9.45771134376526
9.381228547096253
9.381157240867616
9.467161726951598
9.61447844028473
9.796954612731934
9.920326585769653
9.870396795272827
9.693779377937316
9.583109745979309
9.639596905708313
9.773020448684692
9.779369630813598
9.898941431045532
9.837168073654174
9.768468937873841
9.940778427124023
10.07083830833435
9.922932262420654
9.68655508518219
9.632542476654052
9.712505393028259
9.77554648399353
9.785218586921692
9.71802309513092
9.538058309555053
9.29233401298523
9.121500420570374
9.116173238754273
9.199239263534546
9.259186568260192
9.283303036689759
9.303440079689025
9.342801251411437
9.382413001060486
9.405914492607117
9.472443981170654
9.606249470710754
9.750814566612243
9.872750797271728
9.945060410499572
9.970834264755249
10.03465591430664
10.144093708992004
10.21508593082428
10.271713933944703
10.377501001358032
10.437028713226319
10.329944086074828
10.147370014190674
10.083301916122437
10.167934317588806
10.268599801063537
10.272839488983154
10.152740406990052
9.960577344894409
9.817943110466004
9.796915082931518
9.821079478263854
9.792419772148133
9.796412377357482
10.021760125160217
10.475910277366639
10.665951986312866
10.844726452827453
11.042795271873475
11.086007227897644
10.999281125068665
10.897471494674683
11.035942220687867
10.994004554748535
10.701191143989563
10.649612007141114
10.770267062187195
10.994462723731994
11.332814049720763
11.693118424415589
11.84904221534729
11.724961733818054
11.508650135993957
11.40322714805603
11.438408164978027
11.517126059532165
11.573232817649842
11.611962571144105
11.547417016029359
11.523727231025696
11.471882328987121
11.262246108055114
11.33889235496521
11.478326630592345
11.533977723121643
11.567072458267212
11.646018133163452
11.736071677207947
11.763816328048707
11.690107741355895
11.561848039627074
11.523955950737
11.676329340934753
11.910405712127686
12.01292073726654
11.949798259735108
11.925308403968812
12.078801970481873
12.280038990974425
12.381155824661255
12.452673950195312
12.57608344078064
12.63986023902893
12.492417087554932
12.164894156455993
11.892737965583802
11.849959959983826
11.905999536514281
11.85680299282074
11.763980026245116
11.83611849784851
11.949183359146119
11.683320169448853
11.506278896331787
11.68822331905365
11.788358588218689
11.788656859397888
11.712682008743286
11.551980667114258
11.34380968093872
11.178089394569398
11.072393860816955
10.982944326400757
10.859576930999756
10.666054496765137
10.449083333015443
10.307105631828309
10.29315966129303
10.420592803955078
10.40982168674469
10.36903955936432
10.550289769172668
10.487625489234924
10.341731948852539
10.26803418159485
10.201705298423768
10.10399211883545
10.098694777488708
10.202094025611878
10.281518697738647
10.316044545173645
10.32017741203308
10.20301537513733
10.031703834533692
10.05654730796814
10.249899697303771
10.252893171310426
9.948083968162537
9.664364681243896
9.648457136154175
9.727191710472107
9.678131437301635
9.58810639858246
9.651960144042969
9.856753096580505
9.997559013366699
9.924384498596192
9.713644165992736
9.52816632270813
9.386481456756592
9.283148765563965
9.348519740104676
9.573377351760865
9.700858278274536
9.610483646392822
9.42226746559143
9.230789051055908
9.061083426475525
8.986448593139649
9.081786103248596
9.30162724494934
9.52759904384613
9.726828927993774
9.939604258537292
10.151804733276368
10.31373332977295
10.398216557502746
10.402345514297485
10.386354975700378
10.432883319854737
10.530520124435425
10.59567138671875
10.580527033805847
10.509390482902527
10.460120882987976
10.49656723499298
10.554819197654725
10.476471381187439
10.251205487251282
10.037419319152832
9.901957721710206
9.829191055297851
9.83429696559906
9.827422542572021
9.677755331993103
9.4768616771698
9.416907229423522
9.459911532402039
9.41829243183136
9.323164596557618
9.3894615316391
9.634185991287232
9.874605569839478
10.010645389556885
10.037673816680908
9.969303903579712
9.876880488395692
9.825353827476501
9.805495138168334
9.816426343917847
9.832362966537476
9.72850827217102
9.493953847885132
9.337301349639892
9.41182601928711
9.655136322975158
9.90197814464569
10.031271514892579
10.023936133384705
9.936025729179383
9.86486756324768
9.841708235740661
9.770026588439942
9.615800013542176
9.508435821533203
9.516218576431275
9.5250554561615
9.432022933959962
9.279880170822144
9.137957763671874
8.984017343521119
8.79367202281952
8.663515114784241
8.702607655525208
8.853264298439026
8.958129901885986
8.954546308517456
8.937049908638
9.044097709655762
9.286357307434082
9.538972277641296
9.700411176681518
9.803326845169067
9.947788562774658
10.126281938552857
10.238814740180969
10.287469210624694
10.356912250518798
10.411379160881042
10.318243656158447
10.07292724132538
9.791536808013916
9.536720027923584
9.356032381057739
9.34713180065155
9.520418043136596
9.741870784759522
9.896055898666383
9.993494701385497
10.04027108669281
9.936574664115906
9.869339871406556
9.96548101425171
10.03877814769745
10.205870299339294
10.281030106544495
10.252542405128478
10.19638566493988
10.196197013854981
10.318607616424561
10.51218235015869
10.632484636306764
10.609759759902953
10.487667660713196
10.310531597137452
10.100768880844116
9.957048201560974
9.980995607376098
10.10869059562683
10.20713427066803
10.266393103599547
10.363386750221252
10.489114289283753
10.537888526916504
10.496085557937622
10.450066723823547
10.443432593345642
10.502853841781617
10.591169753074645
10.553768754005432
10.353916788101197
10.133756556510924
9.951000347137452
9.767685017585755
9.652537002563477
9.68063280582428
9.744165468215943
9.729741616249084
9.722906579971314
9.812552275657653
9.945382399559021
10.121768412590027
10.35462040424347
10.470817036628723
10.339627175331115
10.11455382823944
10.002892260551453
9.981500940322876
9.920373821258545
9.89141264438629
10.110923609733582
10.357028121948241
10.390174989700318
10.322153410911561
9.98998805999756
9.616636581420899
9.409923448562623
9.35933038711548
9.311166005134583
9.073425841331481
8.795216965675355
8.859419174194336
9.330190176963805
9.808868403434753
10.01253930091858
10.082702193260193
10.165342955589294
10.208713817596436
10.19603108406067
10.17920011997223
10.152589473724365
10.0593013048172
9.918657116889953
9.823859753608703
9.74436728477478
9.580335097312927
9.388238177299499
9.245082368850708
9.117420835494995
9.05285593509674
9.146866397857666
9.337925720214844
9.510059313774109
9.614426469802856
9.604759378433227
9.49389582157135
9.419821696281433
9.45225778579712
9.472540307044984
9.39377580165863
9.291503653526306
9.201569771766662
9.042075710296631
8.84575819015503
8.785292239189149
8.834836359024047
8.786410865783692
8.687481265068055
8.747801132202149
8.883330640792847
8.862588510513305
8.716499423980713
8.656400179862976
8.769586548805236
8.990306067466737
9.23396595478058
9.417298736572265
9.565730485916138
9.702578845024108
9.89628294467926
10.052388381958007
9.914274787902832
9.441051063537598
8.984801697731019
8.80116548538208
8.747946243286133
8.69433189868927
8.719557900428772
8.849757962226867
9.001117520332336
9.125620708465576
9.257213501930236
9.429759488105773
9.589309678077697
9.689472675323486
9.809241228103637
9.998696060180665
10.13721450805664
10.13280574798584
10.067222509384155
10.021396594047546
9.96469582080841
9.865520086288452
9.753990950584411
9.678527188301086
9.662086548805236
9.631435928344727
9.496904773712158
9.342651414871217
9.295521717071534
9.33112633228302
9.41960189819336
9.619286952018738
9.90469373703003
10.138292956352235
10.295488796234132
10.459230399131775
10.573594570159912
10.5262309217453
10.364294047355651
10.189133443832397
10.03860812664032
9.957888941764832
9.843095622062684
9.735513949394226
9.65849305152893
9.616674313545227
9.608908343315125
9.629718837738038
9.60289387702942
9.459718551635742
9.327807412147521
9.412948765754699
9.701569385528565
9.994173784255981
10.142155413627625
10.118192129135132
9.988007435798645
9.850384163856507
9.743222765922546
9.666495785713195
9.608868441581727
9.517006158828735
9.396092762947083
9.336632685661316
9.339543581008911
9.329574608802796
9.34517786026001
9.4262557554245
9.451465215682983
9.385470485687256
9.374841060638428
9.45663106918335
9.553344902992249
9.652777662277222
9.763146357536316
9.903486585617065
10.096424736976623
10.275359659194946
10.347701263427734
10.281793961524963
10.111165471076966
9.923528089523316
9.743916721343995
9.47236792564392
9.070835285186767
8.744667797088622
8.753947701454162
9.011075897216797
9.181227421760559
9.236755456924438
9.450046172142029
9.81412841796875
10.13874674320221
10.2295241355896
10.21221519947052
10.168173966407776
10.009691491127015
9.852666888237
9.572696423530578
9.438392753601073
9.355629715919495
9.243855748176575
9.24978919506073
9.421272487640381
9.621671514511108
9.785703530311585
9.930000581741332
10.036245031356811
10.062230472564698
9.975430064201355
9.836386060714721
9.794227542877197
9.89183569908142
10.009982604980468
10.061375885009765
10.083295593261719
10.098405790328979
10.088654084205627
10.084612612724305
10.081624703407288
10.039762263298035
10.001515884399414
9.978765802383423
9.905021057128906
9.783752574920655
9.665307288169862
9.576651473045349
9.54418532371521
9.578288083076478
9.657996244430542
9.737383918762207
9.80862431049347
9.948427023887634
10.189284229278565
10.43884394645691
10.57340078830719
10.501882548332214
10.242404980659485
9.97495861530304
9.826884555816651
9.691403188705443
9.46229534626007
9.25557200908661
9.198104209899903
9.252261447906495
9.388438076972962
9.602219109535218
9.670706272125244
9.832123694419861
10.010347480773925
10.221424317359924
10.299457478523255
10.076407556533814
9.740604224205017
9.574385466575622
9.518621125221252
9.398291835784912
9.275809965133668
9.300409440994263
9.459129300117493
9.613368310928344
9.673776369094849
9.640785913467408
9.537909111976624
9.403867349624633
9.262438678741455
9.096603956222534
8.949859647750854
8.925421285629273
9.014786586761474
9.108393778800965
9.185133452415466
9.318088178634644
9.4895823097229
9.573371424674988
9.547555365562438
9.52424178123474
9.517368664741516
9.4347589635849
9.343454999923706
9.411589918136597
9.525096101760864
9.412857975959778
9.189078278541565
9.211336674690246
9.470499634742737
9.681191639900208
9.78253866672516
9.881970415115356
9.970259470939636
10.010233559608459
10.0591766166687
10.16231963634491
10.2694206905365
10.299615130424499
10.248023319244385
10.204863724708558
10.247469549179078
10.307521500587463
10.27272439479828
10.207397780418397
10.223933081626893
10.250976328849793
10.171373529434204
10.057539505958557
10.072145991325378
10.173074345588685
10.16694342136383
10.035942206382751
9.958115253448486
10.038488101959228
10.162270665168762
10.19490581035614
10.2180326461792
10.350724272727966
10.537896151542663
10.698718824386596
10.814955821037293
10.840393347740173
10.756448020935059
10.638027353286743
10.527262058258056
10.349775767326355
10.066497578620911
9.81096330165863
9.702072095870971
9.716919198036194
9.801411590576173
9.930625329017639
9.991553864479066
9.897618465423584
9.803664541244506
9.868289804458618
9.947997879981994
9.914909100532531
9.943321862220763
10.122516517639161
10.2452414894104
10.204802966117859
10.131003313064575
10.081543321609496
9.969638180732726
9.750445380210877
9.502539792060851
9.334360065460205
9.237212419509888
9.127048053741454
9.02165090084076
9.029629755020142
9.138612670898437
9.188048796653748
9.1532963514328
9.175776977539062
9.276355299949646
9.353599305152892
9.372191276550293
9.398147974014282
9.511402602195739
9.680062155723572
9.765990777015686
9.69553307533264
9.550073442459107
9.440610375404358
9.359527497291564
9.250864357948304
9.150810298919678
9.115994215011597
9.122169218063355
9.1521559715271
9.228528413772583
9.31406014919281
9.363869118690491
9.45513844013214
9.644065971374511
9.817213006019593
9.92609344959259
10.025751395225525
10.088881216049195
10.080862107276916
10.0821435546875
10.086035366058349
9.98759394645691
9.875507736206055
9.894423813819886
9.862627782821654
9.541931533813477
9.106876387596131
8.892583584785461
8.932645840644836
9.070674700737
9.232188053131104
9.393179149627686
9.550939512252807
9.73320951461792
9.90617048740387
10.044217591285706
10.210930261611939
10.384398221969604
10.421912636756897
10.287217574119568
10.104815487861634
9.971220488548278
9.896134452819824
9.86447184562683
9.78090371608734
9.56223680973053
9.32427285194397
9.203488831520081
9.138722143173219
9.032011227607727
8.9443639087677
8.984490351676941
9.09695331096649
9.14101188659668
9.12053940296173
9.122740054130555
9.1397735786438
9.134963831901551
9.143403725624085
9.185448422431946
9.228914256095885
9.26452998638153
9.271211371421813
9.228980011940003
9.228466401100158
9.310315136909486
9.31420837879181
9.155823974609374
8.976379985809325
8.891123795509339
8.924575610160828
9.09581268310547
9.28549542427063
9.313996086120605
9.247959365844727
9.26246015548706
9.326931457519532
9.317129812240601
9.222989273071288
9.092451667785644
8.951829462051391
8.823849205970765
8.701702017784118
8.566903553009034
8.500810804367065
8.619455661773681
8.849022560119629
8.975525374412536
8.97487807750702
9.030732216835021
9.189269104003905
9.321614036560058
9.379747886657714
9.422473411560059
9.515121335983276
9.708825001716614
9.960638828277588
10.093447322845458
10.023840379714965
9.901656489372254
9.82931725025177
9.732845354080201
9.641462364196776
9.690996923446654
9.831900029182433
9.897489862442017
9.87609706401825
9.857257404327392
9.8417138671875
9.787967414855958
9.700638637542724
9.59370834350586
9.532461528778077
9.620018005371094
9.75307370185852
9.676432032585144
9.425129370689392
9.293854761123658
9.37530557155609
9.509210329055787
9.532945866584777
9.389598727226257
9.169627885818482
9.059221491813659
9.118995399475098
9.222809238433838
9.284072170257568
9.355272641181946
9.50280520439148
9.711307721138
9.882185788154603
9.96601309299469
10.051888933181763
10.196551380157471
10.27391288280487
10.121612091064453
9.809859986305236
9.59692289352417
9.556593103408813
9.542307934761048
9.51718466281891
9.559589791297913
9.63083173274994
9.612938137054444
9.49850098133087
9.364512257575988
9.263357210159302
9.278043751716615
9.459639654159545
9.66809121608734
9.751564683914184
9.747421245574952
9.721317791938782
9.655694313049317
9.564740390777589
9.53464313030243
9.627459421157837
9.780939054489135
9.83855546951294
9.777460594177246
9.78073459148407
9.896611442565918
9.914605650901795
9.719860382080078
9.458426775932312
9.367351531982422
9.555768623352051
9.884670433998108
10.12137456893921
10.195724091529847
10.20575677394867
10.231976218223572
10.25708655834198
10.245173783302308
10.217899255752563
10.212908039093017
10.207852754592896
10.176561403274537
10.102424817085266
9.93729393005371
9.738132333755493
9.663648462295532
9.737493853569031
9.814084887504578
9.786903395652772
9.713347539901733
9.661867890357971
9.584391717910767
9.456569757461548
9.337518453598022
9.28118562221527
9.302653384208678
9.35346118927002
9.378756041526794
9.414021229743957
9.496879377365111
9.542298431396484
9.452859449386597
9.317363896369933
9.321878790855408
9.481744771003724
9.663180232048035
9.79857400894165
9.913708686828613
10.035614533424377
10.1347664642334
10.104484901428222
9.891878862380981
9.679774351119995
9.674195284843444
9.766896319389343
9.783610773086547
9.80725145816803
9.953505482673645
10.183124208450318
10.404442434310914
10.52570589542389
10.48058891773224
10.285208220481872
10.030319662094117
9.819593901634216
9.708328142166138
9.673020076751708
9.640130887031555
9.5441969871521
9.403706393241883
9.331689643859864
9.395292015075684
9.552715616226196
9.73676197052002
9.887822079658509
9.955062980651855
9.931947045326233
9.889431700706481
9.902468571662903
9.960738248825074
10.055651259422302
10.207890491485596
10.37282277584076
10.49955325603485
10.571644797325135
10.525127964019775
10.362986297607423
10.260225639343261
10.297935528755188
10.321919202804565
10.254363632202148
10.223962659835815
10.264872102737426
10.247233953475952
10.143611831665039
10.0562735080719
10.023143062591553
9.971316013336182
9.837747621536256
9.665815062522888
9.579394702911378
9.663595404624939
9.85096761226654
9.989676342010497
10.025332622528076
10.000993852615357
9.933131022453308
9.821686134338378
9.696923160552979
9.559129514694213
9.386898288726806
9.245421233177185
9.257844591140747
9.45255120754242
9.703236465454102
9.858087615966797
9.923058085441589
10.006670713424683
10.10892894268036
10.127324223518372
10.036555495262146
9.954520587921143
9.996442289352418
10.10043800830841
10.137791633605957
10.10795835494995
10.072781200408935
10.073560094833374
10.113029708862305
10.088348503112792
9.930930557250976
9.790799946784974
9.802602496147156
9.820554771423339
9.687662272453307
9.568820447921754
9.659852271080018
9.800746703147889
9.765318093299866
9.642989692687989
9.634170904159546
9.74136137485504
9.842983388900757
9.882381210327148
9.887330312728881
9.89930326461792
9.933424096107483
9.996875019073487
10.075345630645751
10.09595139503479
10.016964631080628
9.918543338775635
9.894740777015686
9.921325707435608
9.902198042869568
9.806104764938354
9.703071570396423
9.67298586845398
9.724251866340637
9.785208306312562
9.804734330177308
9.856371059417725
10.008893623352051
10.150757942199707
10.14516327381134
10.073218121528626
10.069385061264038
10.072377619743348
10.002443060874938
9.94054473400116
9.962823400497436
9.990226798057556
9.879326281547547
9.6481401348114
9.474581694602966
9.42817837715149
9.405396971702576
9.290787596702575
9.120899939537049
9.088777418136596
9.246324405670165
9.384949669837951
9.387551655769348
9.401206760406494
9.552618360519409
9.749890279769897
9.833927998542785
9.766313209533692
9.628872556686401
9.531305298805236
9.529534645080567
9.603461260795592
9.704124927520752
9.789926772117616
9.822755703926086
9.78311450958252
9.676357417106628
9.506219563484192
9.31979082107544
9.245318179130555
9.34209506034851
9.460378789901734
9.409208884239197
9.252326078414917
9.272377490997314
9.56304986000061
9.872778725624084
9.971276597976685
9.902462649345399
9.823007140159607
9.799586262702942
9.771772756576539
9.657120065689087
9.48874080657959
9.386090340614318
9.377538933753968
9.382993984222413
9.39177824497223
9.475739183425903
9.609774341583252
9.678704795837403
9.671513671875
9.707612109184264
9.840812764167786
9.96886576652527
10.029692220687867
10.109576525688171
10.250889344215393
10.362162389755248
10.360730972290039
10.29007246017456
10.270655598640442
10.327190856933594
10.385920720100403
10.439344635009766
10.488276209831238
10.436144170761109
10.275114841461182
10.218009867668151
10.256128840446472
10.278783717155456
10.143396158218383
9.92796302318573
9.779774022102355
9.713402528762817
9.68167212486267
9.721004118919373
9.877868165969849
10.064756093025208
10.166734552383422
10.21216166973114
10.291232309341432
10.406281213760376
10.470801239013673
10.399155158996582
10.190366916656494
9.95303922176361
9.842282547950745
9.904791750907897
10.001037745475768
9.983392748832703
9.889682636260986
9.839273781776429
9.845515942573547
9.865654063224792
9.90475639820099
9.949309425354004
9.928910584449769
9.838256916999818
9.77877597808838
9.79966658115387
9.816271185874939
9.747060465812684
9.626778836250304
9.541313695907593
9.523081603050231
9.526972694396973
9.469997520446777
9.35845359325409
9.329815602302551
9.407522597312926
9.408454833030701
9.277674946784973
9.195291485786438
9.221256666183471
9.225797080993653
9.242564606666566
9.448966598510742
9.722540121078492
9.89443033695221
9.914603686332702
9.950098524093628
10.030762839317322
10.111414480209351
10.177356443405152
10.19407835483551
10.107938613891601
9.926321444511414
9.764334473609924
9.67865620136261
9.554914951324463
9.357261562347412
9.262360844612122
9.374506549835205
9.562470531463623
9.723437180519104
9.940406365394592
10.199182372093201
10.264989056587218
10.06492799282074
10.003209662437438
9.941580262184143
9.888033409118652
9.753560914993287
9.695624990463257
9.840144782066345
10.088916006088256
10.248463196754455
10.245289154052735
10.18846797466278
10.160674228668213
10.099959125518799
9.999512152671814
9.949530591964722
9.961984281539918
9.956271452903747
9.911204161643981
9.938007025718688
10.084597263336182
10.209225916862488
10.246702437400819
10.306976151466369
10.35929603099823
10.238834962844848
10.005401530265807
9.871805047988891
9.827963390350341
9.686272721290589
9.45912498474121
9.359709119796753
9.415333399772644
9.444980034828186
9.389787230491638
9.345074372291565
9.370266079902649
9.432523884773254
9.50339846611023
9.631454253196717
9.824605884552001
9.98628363609314
10.075032353401184
10.148651609420776
10.175191497802734
10.010247869491577
9.658688020706176
9.337738389968871
9.177781710624695
9.10963050365448
9.123018522262573
9.301584239006042
9.39529890537262
9.489259305000305
9.455567016601563
9.476670236587525
9.514115991592407
9.37051387310028
9.090179471969604
8.96029163837433
9.078938570022583
9.231620121002198
9.273811168670655
9.274922471046448
9.27234820842743
9.239255428314209
9.200373477935791
9.196431493759155
9.226928191184998
9.258584566116333
9.267732200622559
9.256125864982605
9.22181164741516
9.184872965812684
9.22714964389801
9.38176407814026
9.558227100372314
9.673431458473205
9.743267936706543
9.833198618888854
9.95684500694275
9.984181218147278
9.76511137008667
9.63907696723938
9.484729270935059
9.569184341430663
9.622818832397462
9.523562393188477
9.409223237037658
9.364672451019286
9.349991903305053
9.3750057888031
9.444987454414367
9.46085210800171
9.425717821121216
9.517757878303527
9.75210847377777
9.89975775718689
9.851105337142945
9.751116619110107
9.745612516403199
9.79499586582184
9.807815861701965
9.819626226425171
9.890048718452453
9.948843750953674
9.895600266456604
9.754845089912415
9.63032853603363
9.560077948570251
9.487955751419067
9.37450321674347
9.275152168273927
9.25539517402649
9.287822542190552
9.315902500152587
9.359859528541564
9.45582438468933
9.547713861465454
9.5621071434021
9.538221659660339
9.565977425575257
9.612332978248595
9.538410582542419
9.311367435455322
9.053059635162354
8.872329607009888
8.806206722259521
8.881138191223144
9.028824152946472
9.064258990287781
9.011332058906556
9.159419727325439
9.287875666618348
9.417482280731202
9.188385801315308
8.982524976730346
9.075908188819886
9.260046992301941
9.237224426269531
9.021704273223877
8.787462496757508
8.643467783927917
8.608741612434388
8.607312445640565
8.56354392528534
8.53844769001007
8.634523329734803
8.797059888839721
8.834335470199585
8.6597700881958
8.4342276096344
8.353397731781007
8.412868146896363
8.505631308555603
8.580859627723694
8.679024152755737
8.875764689445496
9.126682615280151
9.288476543426514
9.360433859825134
9.473293104171752
9.62509762763977
9.686371192932128
9.637086338996887
9.564453611373901
9.45311176776886
9.206230096817016
8.896429052352905
8.746065592765808
8.790585641860963
8.833387451171875
8.808059978485108
8.846683821678162
8.99560727596283
9.16352011680603
9.24771879196167
9.21110152721405
9.083061599731446
8.953453125953674
8.97566418170929
9.158069496154786
9.313295769691468
9.371943125724792
9.408986778259278
9.447914156913757
9.464879250526428
9.44896562576294
9.45619104862213
9.563490595817566
9.731459889411926
9.84542275428772
9.858807139396667
9.834639825820922
9.85993336200714
9.902870287895203
9.827484011650085
9.60095193386078
9.387357716560365
9.371103801727294
9.530927295684814
9.674131097793579
9.687856273651123
9.619563870429992
9.545717968940735
9.517428073883057
9.540987176895142
9.552548699378967
9.533857283592225
9.532639122009277
9.504808235168458
9.363226571083068
9.147734336853027
8.988933210372926
8.981476898193359
9.122023000717164
9.337265782356262
9.580370082855225
9.822443747520447
9.957058253288269
9.918249654769898
9.829716963768005
9.802094125747681
9.773266367912292
9.679362096786498
9.58328411579132
9.577061190605164
9.624573736190795
9.618012681007386
9.522506914138795
9.352496724128724
9.176298937797547
9.094875416755677
9.128121094703674
9.258898277282714
9.44292254447937
9.53866714477539
9.467126984596252
9.343396258354186
9.299357867240905
9.324752883911133
9.352553057670594
9.371765251159667
9.388402953147889
9.364535641670226
9.299093461036682
9.269953484535217
9.293141293525697
9.281511359214782
9.216579422950744
9.251343007087707
9.499139637947083
9.779376921653748
9.844733815193177
9.7405455493927
9.653326468467712
9.624976744651795
9.591219353675843
9.511468095779419
9.427651391029357
9.42827971458435
9.521704864501952
9.642583465576172
9.763108010292052
9.850384049415588
9.798645868301392
9.569531631469726
9.331373443603516
9.172855920791626
9.10493127822876
9.052781367301941
8.98886395931244
8.915654306411744
8.874992280006408
8.929715700149536
9.060902547836303
9.189091610908509
9.284609360694885
9.365816888809205
9.4820791721344
9.658039741516113
9.782554845809937
9.729603214263916
9.561534128189088
9.413865084648132
9.31491997241974
9.284053435325623
9.3744984292984
9.513733649253846
9.571895503997803
9.57966652393341
9.645083937644959
9.720456256866456
9.680249586105347
9.58452178955078
9.585789523124696
9.681153750419616
9.783631081581115
9.850027675628661
9.860716156959533
9.790176553726196
9.665930876731872
9.628567094802856
9.75802285194397
9.9352964925766
10.012697620391846
9.963011183738708
9.89154061794281
9.932598371505737
10.03509225845337
10.040249495506286
9.983695340156554
10.010668334960938
10.080613226890565
10.054083552360535
10.003034315109254
10.149812669754029
10.419520688056945
10.548442668914795
10.455040760040283
10.401439661979675
10.476411275863647
10.552205533981324
10.57892348766327
10.618022642135621
10.696175341606141
10.730521450042724
10.650702300071716
10.50817223072052
10.35104974269867
10.169492163658141
10.025638651847839
10.012622189521789
10.088809943199157
10.136210656166076
10.141605958938598
10.164496936798095
10.20053867816925
10.246610546112061
10.357918224334718
10.494752945899963
10.521225533485413
10.449356517791749
10.446835279464722
10.537388281822205
10.576965217590333
10.545814623832703
10.569630513191223
10.679734878540039
10.760697736740113
10.732511916160583
10.625764799118041
10.462547235488891
10.243734121322632
10.033430995941162
9.929887723922729
9.957740187644958
10.0043940782547
9.959219098091125
9.953404779434203
10.191080412864686
10.527794351577759
10.642729778289794
10.550662164688111
10.510157227516174
10.569489378929138
10.551907949447632
10.406191473007203
10.295456099510194
10.308463907241821
10.34891275882721
10.37165885925293
10.43245069026947
10.501996850967407
10.463936977386474
10.283535499572753
10.086984763145447
10.009590129852295
10.030298624038696
10.101154117584228
10.263219566345215
10.45649778842926
10.471401181221008
10.268995523452759
10.071688590049744
10.008599634170531
9.997174172401428
9.958587341308593
9.838598985671997
9.593207397460937
9.323678460121155
9.220922360420227
9.341862025260925
9.544980568885803
9.657247881889344
9.654777035713195
9.622204265594483
9.603670978546143
9.595088877677917
9.613152737617492
9.635165195465088
9.558025240898132
9.400808210372924
9.380672936439515
9.56220917224884
9.711880235671996
9.693534541130067
9.651298298835755
9.673214631080628
9.588132910728454
9.275120115280151
8.958460516929627
8.910653338432311
9.057404737472535
9.16904676437378
9.191790418624878
9.186417970657349
9.218611788749694
9.33179732322693
9.456492714881897
9.479649648666381
9.403346281051636
9.320382261276245
9.278725581169128
9.242683000564575
9.202142043113708
9.184840631484985
9.170191216468812
9.140412487983703
9.095461268424987
9.010542736053466
8.94731008529663
9.054112486839294
9.313672528266906
9.518277053833009
9.579449286460877
9.566952199935914
9.50340060710907
9.431948018074035
9.4541073513031
9.542691707611084
9.576878633499145
9.50322669506073
9.342678866386414
9.187679042816162
9.129410028457642
9.112893648147583
9.045716409683228
8.977014145851136
8.96522102355957
8.973627605438232
9.047380924224854
9.259765720367431
9.454581336975098
9.459175963401794
9.38265853881836
9.390005908012391
9.46323661327362
9.518532123565674
9.557868499755859
9.606867895126342
9.619176874160766
9.578288426399231
9.540725164413452
9.49094814300537
9.390450377464294
9.294528336524964
9.201998143196105
9.068879895210266
8.996222100257874
9.062413082122802
9.137884902954102
9.093905091285706
9.017663969993592
9.093310461044311
9.325535397529602
9.52223205089569
9.583846559524536
9.606171708106995
9.666142573356629
9.72014359474182
9.71380262851715
9.645167427062988
9.55062466621399
9.497055735588074
9.533900890350342
9.622560224533082
9.665435438156129
9.62109257221222
9.548975610733033
9.518020792007446
9.5058207654953
9.47528573513031
9.485568366050721
9.573810143470764
9.674441437721253
9.75253080844879
9.816704235076905
9.83985251903534
9.813055834770203
9.757289094924927
9.656020708084107
9.519211173057556
9.45792655467987
9.558856811523437
9.765604033470154
9.93629243850708
9.964845142364503
9.897783226966858
9.868341574668884
9.881519317626953
9.847593336105346
9.778545432090759
9.796756887435913
9.948959407806397
10.090545086860656
10.125618305206299
10.181610465049744
10.297126727104187
10.308443555831909
10.207312388420105
10.179702830314636
10.27167151927948
10.357552962303162
10.33943202495575
10.221705198287964
10.10795597076416
10.086395168304444
10.10599503993988
10.095808639526368
10.089934401512146
10.117095398902894
10.119680662155151
10.05401707649231
9.957607440948486
9.884472141265869
9.882833299636841
9.991082019805908
10.116941394805908
10.095041198730469
9.954814429283141
9.880485825538635
9.930725679397582
10.033165636062622
10.131470127105713
10.171952366828918
10.119808115959167
10.058326530456544
10.093122220039367
10.188814568519593
10.262324595451355
10.307243480682374
10.312803316116334
10.220058212280273
9.993932104110717
9.676053781509399
9.388926334381104
9.244505195617675
9.216465144157409
9.209653868675233
9.228838562965393
9.28863926410675
9.287388553619385
9.194903273582458
9.177993068695068
9.350781836509704
9.562611203193665
9.638776612281799
9.659985971450805
9.735457887649536
9.777471227645874
9.743335685729981
9.738695783615112
9.761542415618896
9.68217917919159
9.490590944290162
9.342568025588989
9.373295969963074
9.535373916625977
9.664194660186768
9.712427058219909
9.775587267875672
9.896691546440124
10.028598294258117
10.126925549507142
10.136590757369994
9.975523962974549
9.705621814727783
9.522418642044068
9.568073959350587
9.687574038505554
9.73581440448761
9.765042581558227
9.810903973579407
9.799766688346862
9.73616277217865
9.722421975135804
9.775659441947937
9.804595093727112
9.763032441139222
9.709045367240906
9.71358675956726
9.791992917060853
9.917544379234315
10.046570897102356
10.152725925445557
10.24554822921753
10.319760508537293
10.33588824748993
10.293782181739807
10.257543234825134
10.288261666297913
10.355652079582214
10.314541149139405
10.094718198776246
9.863758606910705
9.800510578155517
9.821605839729308
9.76343611717224
9.705394978523254
9.768517360687255
9.813817377090453
9.746042900085449
9.740799541473388
9.922508354187011
10.169826574325562
10.284096946716309
10.18958146572113
9.992411470413208
9.845914001464843
9.75204140663147
9.621786274909972
9.488490242958068
9.43280357837677
9.422678155899048
9.433126044273376
9.524402074813842
9.670144653320312
9.796222681999206
9.826815199851989
9.817907576560975
9.842474417686462
9.85752100467682
9.795073676109315
9.753966674804687
9.842115397453307
9.959841814041138
9.957819600105285
9.86158763885498
9.832284064292908
9.917927222251892
9.959264645576477
9.86053496837616
9.727958583831787
9.661389207839965
9.655777993202209
9.655032773017883
9.606281337738038
9.55457414150238
9.603320775032044
9.722823948860169
9.76139283657074
9.695421376228332
9.677885551452636
9.761951036453247
9.790475907325744
9.687904500961304
9.614130158424377
9.64780219078064
9.65401918411255
9.61953809261322
9.655972280502318
9.688462944030762
9.610785794258117
9.518384966850281
9.510538029670716
9.560143232345581
9.614453210830689
9.632166953086854
9.6131081199646
9.608416290283204
9.608054785728454
9.554371628761292
9.486571121215821
9.466898021697999
9.44811457157135
9.402039904594421
9.422394576072692
9.559967260360718
9.71336416721344
9.747035984992982
9.624154887199403
9.446152663230896
9.32707550048828
9.241461639404298
9.154212880134583
9.137945261001587
9.206536440849304
9.263099274635316
9.245870089530944
9.182429699897765
9.157445931434632
9.211229281425476
9.282002420425416
9.33314730644226
9.382351846694947
9.412407803535462
9.40839822769165
9.37821117401123
9.305150318145753
9.187726631164551
9.09987895488739
9.136109700202942
9.301777896881104
9.50628065109253
9.679598240852355
9.803079786300659
9.813098044395447
9.666772880554198
9.459970831871033
9.326880426406861
9.31937747478485
9.367120389938355
9.334819712638854
9.220499300956726
9.169658203125
9.225387692451477
9.297739410400391
9.375889439582824
9.486613945960999
9.575174560546875
9.634808168411254
9.708750014305116
9.759786195755005
9.74516676902771
9.691111040115356
9.616023268699646
9.504590888023376
9.383640551567078
9.354948887825012
9.476057753562927
9.640309386253357
9.727075891494751
9.798167924880982
9.929276633262635
10.007533087730408
9.93361831188202
9.824085268974304
9.789700603485107
9.741175603866576
9.630294556617736
9.573380126953126
9.591894817352294
9.570574741363526
9.482992577552796
9.447158646583556
9.562486081123351
9.757139692306518
9.872076206207275
9.8587358379364
9.826579008102417
9.884173154830933
9.95071231842041
9.85533435344696
9.613126301765442
9.4056347990036
9.304843149185182
9.274122881889344
9.35938006401062
9.55169777393341
9.656312198638917
9.5871830701828
9.533237318992615
9.640770025253296
9.79249062538147
9.831344451904297
9.798739757537842
9.823694930076599
9.87564748764038
9.839984798431397
9.745948371887208
9.681309099197387
9.684151697158814
9.75384974002838
9.8296457529068
9.9181760263443
10.107882709503174
10.364102454185486
10.53722725391388
10.518409123420716
10.323569650650024
10.1236146068573
10.077241311073303
10.071309404373169
9.893232851028442
9.62538468837738
9.499579882621765
9.514619522094726
9.54552077293396
9.603819246292113
9.721186246871948
9.816061596870423
9.865960326194763
9.97094301700592
10.135716667175293
10.214357657432556
10.139410161972046
10.038865332603455
10.048881940841675
10.149824137687682
10.255165152549743
10.328908290863037
10.387719826698303
10.455531487464905
10.515908312797546
10.513890933990478
10.448826684951783
10.387451453208923
10.319175472259522
10.203215894699097
10.12587275981903
10.138125848770141
10.123682203292846
10.010487003326416
9.883077540397643
9.823496189117431
9.757296977043152
9.550634465217591
9.302714371681214
9.273674459457398
9.496312203407287
9.786871075630188
9.949298543930054
9.880314354896546
9.707534346580506
9.632447042465209
9.64017328262329
9.568101496696473
9.357518730163575
9.162320642471313
9.148435134887695
9.228765044212341
9.223223524093628
9.169759078025818
9.204175748825072
9.307649993896485
9.386399626731873
9.420610518455506
9.45099727153778
9.527064037322997
9.625529952049256
9.656474537849427
9.595544791221618
9.475130395889282
9.333675770759582
9.242253036499024
9.222632145881652
9.195632853507995
9.10543999671936
8.99836506843567
8.92288791179657
8.840294089317322
8.732573108673096
8.694497866630554
8.772499570846557
8.869545774459839
8.928253669738769
8.991036801338195
9.09260142326355
9.248869047164916
9.415583848953247
9.489212756156922
9.455341229438782
9.405731053352357
9.406748571395873
9.43986065864563
9.48386483669281
9.583630809783935
9.710226607322692
9.692330641746521
9.44405565738678
9.095851435661316
8.880291833877564
8.942102880477906
9.154842596054078
9.241419515609742
9.143699293136597
9.069070606231689
9.168380398750305
9.349679932594299
9.473135724067689
9.55417387008667
9.60264208316803
9.553567080497741
9.511449127197265
9.63259075641632
9.791130752563477
9.77826416015625
9.634455127716064
9.517209224700927
9.457839932441711
9.391596179008484
9.332195768356323
9.395558848381043
9.583255581855774
9.704823069572448
9.644264059066773
9.508771748542786
9.442020840644837
9.445149135589599
9.418106203079224
9.319522609710694
9.205666971206664
9.11498643398285
9.066357717514038
9.114714651107787
9.21960003376007
9.252496991157532
9.217203044891358
9.163650255203247
9.030945806503295
8.83894380092621
8.771834416389465
8.93460548400879
9.179454889297485
9.277358593940734
9.22501944065094
9.172081136703492
9.15585216999054
9.168402523994446
9.250116596221924
9.365685534477233
9.39092803478241
9.276684484481812
9.133345794677734
9.080705862045289
9.103257012367248
9.12446879863739
9.098159160614014
9.043014788627625
9.021122641563416
9.028018255233764
9.032580614089966
9.053954520225524
9.020213646888733
8.829188914299012
8.618523745536804
8.618989758491516
8.792261757850646
8.907369880676269
8.932745032310486
9.053847560882568
9.264399080276489
9.333957324028015
9.22182318687439
9.118442244529724
9.134930019378663
9.245046358108521
9.387567620277405
9.475839929580689
9.461862821578979
9.41201054096222
9.409805064201356
9.465174250602722
9.530809712409972
9.532188634872437
9.479778184890748
9.47386477947235
9.506888628005981
9.520715732574462
9.595977892875672
9.765325531959533
9.850884685516357
9.712023949623108
9.468868832588196
9.359561185836792
9.423716793060303
9.48162037372589
9.45933413028717
9.455934486389161
9.476066513061523
9.444452543258667
9.39958297252655
9.403293714523315
9.448337268829345
9.52478916168213
9.578635458946229
9.520809006690978
9.408185796737671
9.398044157028199
9.491981344223023
9.576571235656738
9.61151948928833
9.605553770065308
9.608953075408936
9.699760971069336
9.825643239021302
9.858284106254578
9.806668419837951
9.759253602027893
9.705246357917785
9.557082500457764
9.313179636001587
9.12349813938141
9.102519855499267
9.170182371139527
9.21363687992096
9.211848011016846
9.16025342464447
9.133219232559204
9.289142146110535
9.570595140457153
9.69554995059967
9.5768829870224
9.382723860740661
9.234011611938477
9.159689054489135
9.184583830833436
9.263249521255494
9.267178010940551
9.132719507217407
8.977140254974366
8.999845085144043
9.214633350372315
9.391446890830993
9.371874141693116
9.276039433479308
9.302626452445985
9.463343582153321
9.595420756340026
9.599660487174988
9.542946529388427
9.526397109031677
9.572703452110291
9.607268013954162
9.550084204673768
9.453527708053588
9.453448348045349
9.587295742034913
9.738099579811097
9.762685503959656
9.651854157447815
9.543097672462464
9.547436380386353
9.609389686584473
9.628311409950257
9.622422881126404
9.630124802589416
9.608574934005738
9.547407250404358
9.498973937034608
9.502615876197815
9.574116687774659
9.662393627166749
9.669041018486023
9.604638738632202
9.591563234329223
9.687796516418457
9.824748320579529
9.864871487617492
9.719868106842041
9.531456460952759
9.535935268402099
9.681124682426452
9.754855074882506
9.773921928405763
9.84304880619049
9.91620985031128
9.951991953849792
10.008768458366394
10.128969407081604
10.285209665298462
10.3702432346344
10.272032604217529
10.062731094360352
9.920685892105103
9.853130354881287
9.762412309646606
9.657284145355225
9.606220254898071
9.631476769447326
9.703257389068604
9.774870533943176
9.837676467895507
9.925269446372987
10.02898515701294
10.082417492866517
10.050097646713256
9.927468256950378
9.725933327674866
9.545890712738037
9.507680678367615
9.603360595703125
9.739736475944518
9.83687334537506
9.872590322494506
9.888083181381226
9.900514612197876
9.888188142776489
9.871944065093993
9.881965565681458
9.894183893203735
9.882430453300476
9.86157856464386
9.868872227668762
9.941350884437561
10.053104982376098
10.102388272285461
10.036794505119325
9.952083053588867
9.981210584640502
10.103513226509094
10.202209634780884
10.25101975440979
10.272518739700317
10.227345161437988
10.080857329368591
9.882219638824463
9.726290264129638
9.675959367752075
9.730087690353393
9.823572406768799
9.871167645454406
9.918246593475342
10.072386608123779
10.225021800994874
10.200667786598206
10.113235111236571
10.030187692642212
9.997008519172669
9.958262324333191
9.926508946418762
9.903250274658204
9.86503411769867
9.853592495918274
9.958996257781983
10.203663749694824
10.472278451919555
10.626349000930785
10.666153316497804
10.676515583992005
10.666465077400208
10.58884370803833
10.47730725288391
10.403866534233094
10.336430354118347
10.222787504196168
10.140870156288146
10.152379140853881
10.159301414489747
10.096021494865418
10.037241249084472
10.0167174243927
9.979132194519043
9.927193131446838
9.90208688735962
9.869345097541808
9.792951259613037
9.711960473060607
9.647049913406372
9.56545359134674
9.469039635658264
9.391685857772828
9.344608478546142
9.353553409576415
9.433741188049316
9.522219381332398
9.57608727455139
9.644330983161927
9.760954031944275
9.853188190460205
9.809406189918517
9.628998203277588
9.418432564735413
9.309590888023376
9.412199606895447
9.645435690879822
9.717711038589478
9.65384283065796
9.568373174667359
9.549437460899354
9.55347348690033
9.549746417999268
9.549001207351685
9.51550320148468
9.359660067558288
9.112377018928528
8.965345706939697
8.98387414932251
9.011388239860535
8.95372076511383
8.915896062850953
8.997995986938477
9.112522802352906
9.154607992172242
9.196640672683715
9.291661558151246
9.337373552322388
9.310892567634582
9.352263312339783
9.510033822059631
9.659397249221803
9.74771842956543
9.857597703933715
9.968589735031127
9.952080535888673
9.829373078346253
9.780409502983094
9.889907469749451
10.042386927604674
10.096868600845337
10.0614382314682
10.03566243648529
10.052410430908203
10.066715807914735
10.069829335212708
10.075440363883972
10.039236736297607
9.93118185043335
9.784339566230773
9.639643430709839
9.54265284538269
9.523418221473694
9.554216451644898
9.59018027305603
9.630966353416444
9.720352597236634
9.881513471603393
10.065892300605775
10.196325483322143
10.239434022903442
10.229911060333253
10.249813442230225
10.313950686454772
10.332567691802979
10.290691199302673
10.246051712036133
10.15952829837799
10.013213257789612
9.916351246833802
9.917170934677124
9.919730973243713
9.837334661483764
9.724048442840576
9.65879566669464
9.594999403953553
9.556438827514649
9.707445764541626
9.977372722625732
10.04424105167389
9.832470474243165
9.60087504863739
9.495850400924683
9.403955192565919
9.289346508979797
9.295676484107972
9.42659397125244
9.471400809288024
9.34063392162323
9.200890402793885
9.200389318466186
9.269725914001464
9.276948823928834
9.220250515937805
9.161418499946594
9.11927258014679
9.120406265258788
9.18611071586609
9.248282885551452
9.242319412231446
9.21561951160431
9.237590475082397
9.3259166431427
9.440611529350281
9.455985407829285
9.289190196990967
9.062245206832886
8.949430351257325
8.948423628807069
8.962326827049255
8.97056972026825
9.001527376174927
9.02950472831726
8.997770648002625
8.927988452911377
8.86294349193573
8.780657143592835
8.722873878479003
8.779231176376342
8.902817206382752
9.009572486877442
9.135561714172363
9.278911185264587
9.311684136390687
9.228308215141297
9.208305382728577
9.258486104011535
9.152234454154968
8.887643690109252
8.756383109092713
8.892131962776183
9.132617917060852
9.27501398563385
9.268241338729858
9.181070265769959
9.081191654205321
9.020210061073303
9.051145186424256
9.166140723228455
9.273239541053773
9.299181327819824
9.280590662956238
9.281336288452149
9.293153562545776
9.308981862068176
9.369947481155396
9.472608771324158
9.555617423057557
9.602127637863159
9.653008966445922
9.726000418663025
9.810994319915771
9.901670494079589
9.952799167633056
9.890483465194702
9.740378241539002
9.63402587890625
9.603319973945618
9.534098391532899
9.418724689483643
9.393153595924378
9.45434648513794
9.460617804527283
9.403003048896789
9.409969673156738
9.547722749710083
9.729638514518738
9.80494867324829
9.761892061233521
9.725258359909057
9.69569450378418
9.550398879051208
9.359234447479247
9.379483609199523
9.637434992790222
9.836236200332642
9.79715269088745
9.65433931350708
9.560745882987977
9.520291595458984
9.4844837474823
9.461955790519715
9.522281727790833
9.646060380935669
9.708014125823974
9.679523196220398
9.651095695495606
9.670771112442017
9.703224697113036
9.709506182670593
9.69390007019043
9.688096232414246
9.734245572090149
9.844380178451537
9.930000796318055
9.872581915855408
9.714328761100768
9.61217384815216
9.604945712089538
9.601897239685059
9.530911712646484
9.39794804096222
9.240252289772034
9.096616406440734
9.049624338150025
9.140803861618043
9.261466526985169
9.314790253639222
9.332145857810975
9.32988848209381
9.292248196601868
9.266993508338928
9.285296711921692
9.299370350837707
9.274409651756287
9.232708253860473
9.20489266872406
9.171304278373718
9.067675223350525
8.91350031375885
8.857055239677429
8.985810289382934
9.185112028121948
9.254860782623291
9.144632406234741
9.024291462898255
9.059929604530334
9.206527438163757
9.318139457702637
9.35698646068573
9.37414412021637
9.360377912521363
9.279129772186279
9.21015917778015
9.255234317779541
9.337898149490357
9.303377327919007
9.143319964408875
8.994350094795227
8.974347791671754
9.035339574813843
9.01772659778595
8.878079571723937
8.720742311477661
8.624916105270385
8.597253346443177
8.622600874900819
8.678638978004455
8.728043355941772
8.714008626937867
8.631931204795837
8.575893959999085
8.63800802707672
8.821524953842163
9.036753587722778
9.168530135154723
9.201534628868103
9.20162015914917
9.223570704460144
9.306454248428345
9.401570329666137
9.39151466846466
9.310496978759765
9.299596109390258
9.333950796127318
9.280509581565857
9.146567459106445
9.062600665092468
9.13237995147705
9.360232372283935
9.596674432754517
9.654820909500122
9.562871217727661
9.513137617111205
9.587494082450867
9.676552753448487
9.646698098182679
9.551763916015625
9.540224199295045
9.571305451393128
9.512700362205505
9.411649842262268
9.368414788246154
9.345229015350341
9.302852735519409
9.30465265750885
9.402231216430664
9.56102108478546
9.694946022033692
9.732063298225404
9.69510003566742
9.688084535598755
9.758793177604675
9.85996922492981
9.95620038986206
10.05876579761505
10.147739911079407
10.13843231678009
10.004615817070007
9.902271761894227
9.981458764076233
10.121422157287597
10.100646920204163
9.939802656173706
9.850070819854736
9.9055051279068
9.968712792396545
9.937669925689697
9.838357787132264
9.700163769721986
9.574734196662902
9.543580627441406
9.574978413581848
9.591136627197265
9.615371103286742
9.689305944442749
9.80199390888214
9.912769269943237
9.965133371353149
9.92691081047058
9.82101215839386
9.695772738456727
9.562673106193543
9.40121500492096
9.235636529922486
9.150895571708679
9.180192232131958
9.235770816802978
9.228357439041138
9.177754459381104
9.181263575553894
9.286311693191529
9.416148343086242
9.497283263206482
9.547897052764892
9.57586597919464
9.545904064178467
9.474486932754516
9.436022896766662
9.448408932685853
9.451445803642272
9.43328667640686
9.454639558792115
9.517894763946533
9.566794610023498
9.58474175453186
9.573886761665344
9.57805766582489
9.680616536140441
9.822444572448731
9.86566737651825
9.857470560073853
9.91841788291931
9.977766971588135
9.88929988861084
9.69118242740631
9.55798210144043
9.577122139930726
9.70437340259552
9.85786298751831
9.94447955608368
9.921819229125976
9.871611790657044
9.854858756065369
9.810446305274963
9.700018401145934
9.58965081691742
9.571116261482238
9.636909341812133
9.664791035652161
9.612768778800964
9.597435455322266
9.709038224220276
9.904648599624634
10.064382939338683
10.082037782669067
9.985731267929078
9.907803440093994
9.901861848831176
9.953509945869445
10.021825981140136
10.01287763118744
9.948961443901062
9.938447890281678
9.932503113746643
9.868989686965943
9.834714713096618
9.858866806030273
9.850113072395324
9.796599273681641
9.783609685897828
9.798054523468018
9.720687098503113
9.55842788696289
9.45976436138153
9.466918940544128
9.496942200660705
9.489571599960327
9.41618736743927
9.301588296890259
9.205221385955811
9.11526128768921
9.029936804771424
9.032619976997376
9.133461451530456
9.243879642486572
9.317043075561523
9.341360774040222
9.298699107170105
9.202358469963073
9.123732857704162
9.129553360939026
9.174308338165282
9.173046827316284
9.152810115814209
9.191333522796631
9.287873187065124
9.370954422950744
9.37373634338379
9.307255172729493
9.247064452171326
9.205962800979615
9.125654587745666
9.028796720504761
9.00025414466858
9.02512164592743
9.036495213508607
9.10536039352417
9.38558548927307
9.784409880638123
9.980781931877136
9.885401349067688
9.705975403785706
9.628357090950011
9.684894223213195
9.771774168014526
9.792381749153137
9.7805393409729
9.777625918388367
9.757602047920226
9.747558331489563
9.83464018344879
9.99603060245514
10.08821590423584
10.0375856924057
9.904800534248352
9.784128255844116
9.735163049697876
9.763898434638977
9.803067216873169
9.801807594299316
9.845185041427612
9.99920551776886
10.122517681121826
10.085922827720642
10.00406476020813
9.994514350891114
9.959924359321594
9.823212757110596
9.687187261581421
9.62352638244629
9.569451613426208
9.473267745971679
9.368194618225097
9.356159090995789
9.514155464172363
9.692630562782288
9.605591855049134
9.488906254768372
9.396807556152345
9.868084607124329
10.545186948776244
10.742323913574218
10.836135549545288
10.807115807533265
10.640562949180604
10.716450915336608
10.807433590888976
10.385820322036743
10.260722756385803
10.600799984931946
11.402778100967407
12.49804654121399
13.682360239028931
14.664807300567627
15.10865340232849
14.991900730133057
14.905403413772582
14.72857102394104
14.59885600566864
14.448458099365235
14.233339853286743
14.02076361656189
13.871618876457214
13.751473608016967
13.7781884765625
13.809012670516967
13.740423927307129
13.580284581184387
13.420081820487976
13.3330495262146
13.237604455947876
12.9723286819458
12.70371964931488
12.576904773712158
12.51162308216095
12.458724098205566
12.48689236164093
12.622051067352295
12.798326244354248
12.99980553150177
13.26830502986908
13.59654197692871
13.878862323760986
13.894208011627198
13.627192692756653
13.527334823608399
13.762882447242736
14.06870909690857
14.313166642189026
13.74733741760254
13.416741280555724
14.108082056045532
15.102386617660523
15.946734933853149
16.63598870754242
17.18146553993225
17.76765870094299
18.270937457084656
17.899427847862242
17.47938206195831
16.708082256317137
15.602739744186401
14.301308407783509
13.100692453384399
12.556064505577087
12.639142122268677
12.645912404060363
12.675370774269105
12.71864107131958
12.87519651412964
13.015141205787659
13.007958626747131
13.065310153961182
13.391299657821655
13.711664056777954
14.039825491905212
14.418715672492981
14.766663508415222
15.010570378303528
15.235312666893005
15.564204745292663
15.97110920906067
16.13684293270111
16.160401611328126
16.290073771476745
16.211755533218383
16.15339653491974
16.096012721061708
16.030283241271974
16.024772787094115
16.142593908309937
16.350393986701967
16.52812762260437
16.62236253261566
16.55733456611633
16.464163150787353
16.286610026359558
16.001488862037657
15.712675619125367
15.808952956199645
15.786808438301087
15.399923129081726
14.607539396286011
13.77466166973114
13.201147680282594
12.65066005706787
12.013285074234009
11.788973865509034
11.993236947059632
11.757080097198486
11.742701086997986
11.846132073402405
11.814963426589966
11.893880643844604
11.86897123336792
11.812217187881469
11.806584944725037
11.96690628528595
12.334264488220215
12.721261553764343
12.886927628517151
12.830003299713134
12.797991037368774
12.57065336227417
12.490112404823304
12.465875291824341
12.440707321166991
12.541012716293334
12.775949468612671
12.881850171089173
12.78711371421814
12.806844291687012
13.064459357261658
13.107469062805176
13.032961912155152
13.049595136642456
