0.01024599653785117
0.010268023677635938
0.01030361203593202
0.010324493903899565
0.01032732839230448
0.010344486430985853
0.010371561874635518
0.010367901592981071
0.010333851755131036
0.010307039284380154
0.01030488671734929
0.010318125910125674
0.010328102058265358
0.010317151749040932
0.01028393643326126
0.010248889543581753
0.010242983883945272
0.010273337973048911
0.010300450242357328
0.010293306077364832
0.0102765132044442
0.010274770921096205
0.010276504255598411
0.010282346328021958
0.010306665474781767
0.01032998905167915
0.010325779978884383
0.01030916479183361
0.010311029695440083
0.01033150302246213
0.010346874550450594
0.01035101937246509
0.010356230195611715
0.010357323662610725
0.010342056261142716
0.010328045897185802
0.010339247961528599
0.010354918866651132
0.010333430516766384
0.010281868495512754
0.01024390286882408
0.010229899195255712
0.010218224802520126
0.010203528300626203
0.010192410179879517
0.010179464834509417
0.010162375182844699
0.010148501390358434
0.010133467387640848
0.010104730972088874
0.010070122315082699
0.010055092002730817
0.010065786698833108
0.010080442486796529
0.010081929645966738
0.010076912025688216
0.010078085743589326
0.010083860519807785
0.010090427651302889
0.010109712958801538
0.010144239627989009
0.0101642775896471
0.010150763471610844
0.010131969327339903
0.010136731031816454
0.010140503618167714
0.01010593979503028
0.01005846778745763
0.010055063324980438
0.010087211225181818
0.010102452284190804
0.010103279631584883
0.010125052083749324
0.010164960189722478
0.010200337638380005
0.01021249421639368
0.010194511231966318
0.010168734253384173
0.010162199281621724
0.010168837016681209
0.010158918460365384
0.010129835773259401
0.010115314773283899
0.010120741330320015
0.010110610162373633
0.010080925171496346
0.010070689012063667
0.010089572966098786
0.010101860444992781
0.010089209834113717
0.010074746522586792
0.010080981117207557
0.010103222236502916
0.01012363212183118
0.010125687703257426
0.01010435746400617
0.010079759563086554
0.010073698253836482
0.010068952582078055
0.010046206311089918
0.010034386937040835
0.010062555146869273
0.010116280635120347
0.010173550336621701
0.010228502447716892
0.010278468028409406
0.010315255497116595
0.010329157154774293
0.010321773249888793
0.010303660944337024
0.010272554008988664
0.010215593203902244
0.010154587430879474
0.010146515826927499
0.010198757364414633
0.010262276532594115
0.010317224158206954
0.010359736181562766
0.010359486636007205
0.010319712046766653
0.01029384981491603
0.010302656308049336
0.010315139511367305
0.01031266488833353
0.010315645766677334
0.010350100343348458
0.010401132149854674
0.010417466514045372
0.010380031045060604
0.010330316567560657
0.010304779784055427
0.010289898248156532
0.010277203938458115
0.010287947528995573
0.010310142554808409
0.010308262872276827
0.010291571374982595
0.010285981171764434
0.010284414977068081
0.010268072613980621
0.010233226455748081
0.010196689503500238
0.010173866767436266
0.010151196423685178
0.010118871346348897
0.01010033767321147
0.010108714279485866
0.010127541054971516
0.010142134731868282
0.010137358172796667
0.010107168066315352
0.01008155058370903
0.01008315202780068
0.010098253856413067
0.010115532943746074
0.01013573364703916
0.010155255214776844
0.010167845913674683
0.010167089462047443
0.010153076046844945
0.010137072178767994
0.010123058315366506
0.010110501854214818
0.010117576129268856
0.010155302482889966
0.01019798253546469
0.010215968061238527
0.01021234950167127
0.0102082471200265
0.010204048050800338
0.010182353782001883
0.010145585389109328
0.01011441193171777
0.010109955702209844
0.010143445824505761
0.010190177414333448
0.010209537197370082
0.01020338061847724
0.01021026932867244
0.010242345641599968
0.010253131831996143
0.010194691836368293
0.010117570084985346
0.01007549194386229
0.010116658636834473
0.010192188725341111
0.01023983992752619
0.01024841942708008
0.010260785581776873
0.010308931535109877
0.010366116160294042
0.01038698861026205
0.010367886470630765
0.010347537121269852
0.010353142430540174
0.01036528826924041
0.010360122083220631
0.010348279138561338
0.010330657527083531
0.01030011048889719
0.010328566846437752
0.010312809717142955
0.010268780322512612
0.010286854687146843
0.010320874879835174
0.010350638368399813
0.010383262340910733
0.010435615016613156
0.010513108203886077
0.010582073124824091
0.010610091692069546
0.01063255700049922
0.010688599167624489
0.01073978359811008
0.010753730407450347
0.010754313468933106
0.010735567521769553
0.01068505090312101
0.010657579638063908
0.010675559847149997
0.01066341896657832
0.010670567654306068
0.01066611270303838
0.010638229297474027
0.010646628226386384
0.0106539147044532
0.010668355363886804
0.010695150219835341
0.010707244658842683
0.010689673302695156
0.010657634439412504
0.01062857681303285
0.010609627550002188
0.010601862031035126
0.010600838913815096
0.010602649542270227
0.010610885345377028
0.010631602577632293
0.010658151786774397
0.01066373686073348
0.01064400844858028
0.010664846666622907
0.01081654931535013
0.01109941144590266
0.011415256347972899
0.011680486369878054
0.011901760060572997
0.012089324053376913
0.012159827284049242
0.012199835049686953
0.012448907063808292
0.012800191175192594
0.013167358110658825
0.013516079626278953
0.013789833961054683
0.013905600986909121
0.013879684767453
0.01400248852209188
0.014234663111856206
0.014466737002367154
0.014563410142436624
0.01454640536219813
0.014655811078846455
0.014776406362652778
0.01483831688761711
0.014874118526931853
0.014882346435915678
0.014915471572894603
0.015018491945229471
0.01512136074132286
0.01524644719203934
0.01540564650669694
0.015531202764250338
0.015584158132551238
0.015612039947882295
0.0156815567612648
0.01581483077025041
0.01597698434139602
0.016115427615586667
0.0162096799374558
0.016268644442316144
0.016295162677997722
0.016270355554297566
0.016251995710190384
0.016261623848695308
0.016255732809659095
0.01634955259389244
0.016448510995833204
0.016465550323482604
0.016438992723124102
0.01645182872773148
0.016437493237899618
0.0163953775644768
0.016355447981040924
0.01635369486408308
0.016363598756724967
0.01638846841524355
0.016493971933377906
0.016727460470283406
0.017026438077446072
0.017256842022761704
0.017325203899526968
0.017253542363177984
0.01724388463422656
0.017227289786096663
0.017179098420310766
0.017132973417174072
0.017269266532966867
0.01760170271038078
0.017969844868639485
0.018228288042591884
0.018424313409486786
0.018595974242780356
0.01855302690761164
0.018816902820253743
0.019193991998909043
0.019385615731589496
0.01951178058516234
0.019905003936728463
0.020414847035426648
0.020578019889071583
0.020694058154476808
0.02083354357513599
0.02092508693342097
0.021097750532208012
0.0213147477270104
0.021414685422787443
0.021400570028927177
0.02138758252491243
0.021406063759932294
0.021604676129063593
0.021962646552128717
0.0222877432545647
0.02239844036870636
0.022430058433674276
0.02263547073234804
0.02291186444228515
0.02321035011555068
0.023541980776935815
0.023866530320374293
0.024092487497255205
0.024199536086525766
0.024260732943657784
0.02434662541258149
0.024447659199358894
0.024497422989225016
0.024467973890714347
0.02441549490322359
0.024428623198764397
0.024549517870182173
0.024735350046539678
0.02488919228082523
0.024935887025203555
0.024889935069950297
0.02483766741817817
0.024806658916641026
0.024777187677100302
0.024748606537468732
0.024746071170084177
0.02473579649697058
0.024833544216817244
0.02500592831056565
0.02510303475195542
0.025080350030912087
0.02502474404289387
0.024988862075842916
0.024947778701316564
0.024900908614508808
0.02484357257024385
0.0248718505888246
0.02501106130424887
0.02512936112121679
0.025137351646553726
0.025139383670175448
0.025268177129328252
0.025494838112499564
0.02569577222922817
0.025756048910552637
0.025774891237961128
0.02600204820977524
0.0261841060873121
0.026179877704707907
0.026196480848593637
0.02646214016713202
0.026793667257297784
0.026931002088822424
0.026841894456883893
0.027027531609637664
0.0273803432949353
0.027766891644569115
0.028133444010745735
0.02848573639290407
0.02876768374117091
0.028853382855886595
0.02894996225135401
0.029216487285448237
0.02952637630631216
0.029762103953398764
0.02995835674810223
0.030118063255213202
0.03006052630371414
0.03022868269821629
0.030430666483007372
0.03048493803013116
0.030516434500459582
0.030612364428816364
0.03072792017250322
0.030798335954314096
0.030820249253883956
0.030832107136957346
0.030846915344009174
0.03082436754135415
0.03074201875831932
0.030645450555020944
0.030597704963292928
0.030608016938203947
0.03070930818095803
0.030889296560781078
0.031067452448187396
0.0311980894964654
0.0312944445759058
0.0312646531034261
0.031353807467967273
0.0314847466442734
0.03152747955056839
0.031544778934912754
0.03153163140057586
0.031532897823490204
0.03178473815903999
0.03218441101140343
0.03250813875347376
0.032642139219678935
0.03263904193183407
0.03261011962778866
0.032657641370315106
0.03283203809405677
0.033022735661361366
0.03303409105865285
0.033032136841211465
0.03311663745203987
0.03324387811822817
0.0334294881101232
0.03353552350657992
0.03333502863300964
0.03315717680263333
0.0331683894735761
0.03317897624336183
0.033107299300609155
0.033047224655747415
0.03298324461211451
0.0328358364442829
0.03269556340062991
0.03252762890071608
0.0322629929415416
0.03198981160647236
0.03192875495064072
0.03213061550748535
0.03220138392760418
0.03205126269371249
0.031770285217789934
0.031696421436499804
0.03174296658136882
0.03164078622823581
0.03151338650030084
0.03152095423429273
0.03153144082636573
0.03153262834181078
0.03156109672388993
0.03157051469315775
0.03155730104073882
0.03147855209885165
0.031305057464633135
0.03116377845639363
0.031097577632172035
0.031071840347722174
0.031053552420344202
0.030991714503616093
0.030847916097845884
0.030719593164976685
0.030805881654378028
0.03096460477449
0.031099789277650416
0.03131878011161462
0.03154389549046755
0.03150302364258096
0.03178892416646704
0.031948926952900365
0.03178459145128727
0.03191069202963263
0.03201617157203145
0.03196396519895643
0.03199853784986772
0.03220790955470875
0.0324355485488195
0.0324739514500834
0.032528980009956285
0.032578697580611334
0.032518305644625795
0.0325633534847293
0.03247765194042586
0.03231705784681253
0.03247102927882224
0.032620516486931594
0.03262665936839767
0.03271181922522373
0.032710625005420296
0.03273845381103456
0.03256163788028062
0.03226236859569326
0.03190235551679507
0.03174130844534375
0.03167029498959892
0.031560325104510414
0.03182952762930654
0.03164753239834681
0.031186546662356703
0.030904511254047976
0.030877579837106168
0.030724877116736025
0.030412698917789385
0.030286251078359784
0.03012984656030312
0.030005439299857245
0.03002080838079564
0.030005701720947398
0.029869961575604974
0.02970067598274909
0.029845915145706385
0.030062763107707724
0.03014924772083759
0.02991869503282942
0.029544625816633925
0.02922396773356013
0.02914405271410942
0.029176040480379015
0.029077006090665235
0.02892596217454411
0.028724384033121168
0.028462213625898583
0.028218160734977574
0.02808285797247663
0.02803005831083283
0.02797194099985063
0.027883580329362303
0.027785281776450576
0.027695480717811735
0.027698934362269938
0.027710711654508488
0.02766509031294845
0.027620301271090286
0.027546778067480772
0.027390009111259134
0.027380324370460583
0.027456793778110295
0.027466004721354693
0.027581484206020832
0.027729206286603584
0.027841866274829954
0.02785410787910223
0.027844411173136904
0.02778433249681257
0.027744708677055314
0.027804117025807498
0.027924339703749867
0.027986561645520852
0.02799858245300129
0.02810653084772639
0.028258957390207798
0.028330113812116905
0.028290468408958987
0.02816021986771375
0.028022092735627665
0.028012970426352694
0.028053511455655097
0.02794247613637708
0.027685933018801734
0.027474385390523822
0.027467373844701798
0.02749880044371821
0.027259118212386965
0.02709236987866461
0.02726601766422391
0.027540415650000795
0.027560624408069997
0.027301935548894107
0.027134751050034538
0.02733191929059103
0.027286400691373273
0.027001222835388035
0.026528382981196044
0.02615050704567693
0.025883200148819015
0.02572970972280018
0.025748631230089813
0.02569682750152424
0.02544328330899589
0.0251693788706325
0.024979791471268983
0.02481622913153842
0.024724047590279952
0.024860030118143184
0.024812162667512894
0.02463942797272466
0.024585419504437597
0.024585872092284262
0.024462279001018033
0.024265374450478702
0.02410941679845564
0.02401019460288808
0.023986516426084563
0.023967709789285436
0.02391296034795232
0.023868412509327756
0.023891800029668956
0.023991395082557574
0.024072039027232678
0.024092249799286945
0.024133480733726172
0.024172306318068878
0.024110065819695593
0.02402687890455127
0.0240131053654477
0.024008389647351577
0.024124809104250744
0.02422894321847707
0.02416066809557378
0.02434985076659359
0.024537550781387835
0.024382043464574964
0.024039592953631655
0.023739565034629775
0.023594565460225567
0.02367038402124308
0.02376490131835453
0.023694523544982075
0.023566910711815582
0.023439351276028902
0.02349292625207454
0.023594370184000582
0.023647653515217824
0.02363036292255856
0.023435574107570575
0.023151072837645188
0.02303952520363964
0.022872710258234293
0.0225728523847647
0.022331443533767016
0.022227726078126578
0.022204786801012233
0.0221903144067619
0.02205921271000989
0.021824398941826074
0.021662256435956807
0.021641385533148424
0.021681133223464714
0.021686903515364973
0.021572206171695144
0.021355649625184013
0.02121286654728465
0.02127081566839479
0.02129391991067678
0.021262605381198226
0.021238588602282105
0.021272677527740598
0.021245814132271335
0.02121333421790041
0.02117279342841357
0.02114007939468138
0.021043094614287838
0.02089580805040896
0.02080711638205685
0.020883191181346773
0.021088070957921444
0.021348764612339435
0.021479885135777296
0.021404942567460238
0.021444703550077975
0.021428363301092757
0.02147637335350737
0.02140685378573835
0.021218492003390564
0.021112358337268232
0.020977621264755726
0.02075634152861312
0.02080190219101496
0.020628450259100647
0.02047149226302281
0.020560957859270274
0.020453869737684725
0.020490719070658088
0.020599425935652105
0.020587142686126755
0.020575043904827908
0.020507070999592543
0.02046065328991972
0.020422633783891798
0.020467022696975617
0.020601614651968702
0.02046454691560939
0.02035007076105103
0.02038004371454008
0.020197412135312332
0.020054905576398597
0.0199922899028752
0.01985137163894251
0.019863183591514826
0.01984912532614544
0.0198421794292517
0.019798547317041084
0.019889181212056427
0.01993492942187004
0.019833383929217234
0.019853789756307378
0.01965780514990911
0.01955837376182899
0.019669619428459555
0.019708275756565852
0.019522040359443053
0.01932971738046035
0.019308270850451663
0.01940001446986571
0.01943827186478302
0.019412171653239055
0.019315488169668243
0.019121630686568095
0.01897688059718348
0.01895369436359033
0.018785292429383843
0.018608440009411423
0.018510271838167683
0.018602828236762434
0.01880519401165657
0.018994747729739175
0.019058178213890643
0.018990375597495585
0.018854577665915712
0.018716200371272862
0.0186242172983475
0.01854907947476022
0.01848405268858187
0.018445502616232262
0.018394252365687862
0.018449085220927374
0.018543178278487175
0.018523770801257344
0.01871868007350713
0.019040154359536245
0.019332083688350394
0.01938318416243419
0.019444402679800986
0.019571750273462384
0.01970444355509244
0.019626253455644473
0.019586033689556644
0.019723026910796762
0.01978561586351134
0.01975274734897539
0.01970022545196116
0.01975110636209138
0.019825565002392978
0.019773738944204523
0.019617871188092977
0.01948685436276719
0.01940511873457581
0.01935276164091192
0.019337113278452306
0.019232013087021188
0.019140552785247563
0.0191795208863914
0.019242403715616092
0.01926584370667115
0.01930308071896434
0.019302812031237408
0.019234543611528352
0.019181796538177878
0.019193623549072072
0.0191620938712731
0.019110721591860055
0.0190979383175727
0.01905855376389809
0.019127098756143823
0.019042179433163255
0.018753523199120537
0.018457513622706756
0.018411480328068136
0.01847126501845196
0.018453229853184892
0.01854152749176137
0.018725266827968882
0.01888490258017555
0.018798157968558372
0.018651109412312506
0.018530421619070692
0.018485963225830345
0.018505785199813544
0.018544061694992706
0.01850656722090207
0.01852758358581923
0.018761281258193777
0.01901231169467792
0.019036478792550042
0.018884000305552037
0.01884923376957886
0.018792745543178172
0.018734818585217
0.01871223743772134
0.018685554926050826
0.01872563227196224
0.01882875324576162
0.018802667491836473
0.01882122295210138
0.018940264262491836
0.01899966517696157
0.019007755384081976
0.01897512803436257
0.01886668644263409
0.01878407311392948
0.018697953212540596
0.018738219728693366
0.018878768597496674
0.01889983124565333
0.019180925502441822
0.01919312490033917
0.01903634259942919
0.018959711181232707
0.018981081106467172
0.0187605395342689
0.018550778655335307
0.018423371812095867
0.018318700714735313
0.01826276437845081
0.01823145247064531
0.01818478191155009
0.018146589358802884
0.018265825140988453
0.0184962121816352
0.018620895663043483
0.018498433141503484
0.01837164573604241
0.01824086079490371
0.018251820178702475
0.0182942301442381
0.018320165124023333
0.018389714006334542
0.018506563877454026
0.01854837323538959
0.018562033085618167
0.01855877469643019
0.01853895466658287
0.0185589632880874
0.018558545544510707
0.018650528237922116
0.01873239749111235
0.018735850716475398
0.018755993348313495
0.018790583604713904
0.01877299613901414
0.01873217541142367
0.018739416877506302
0.018692678329534827
0.01866850438993424
0.018800140062812717
0.018999400918837638
0.019134294810937716
0.019164458743762224
0.019105300089577212
0.019225188054842874
0.019410958047956228
0.01956626706640236
0.01960877233883366
0.019690039799315856
0.01978767288266681
0.019752337810350584
0.01958289491245523
0.01947791638202034
0.019518030039034785
0.019372517556184903
0.01940434659132734
0.019464070179965348
0.019480359881417827
0.019451391878537835
0.01963534953421913
0.019812488205498083
0.019864039187086745
0.01983745947945863
0.019813895940314977
0.01981960889766924
0.019894269122742118
0.019985032393597068
0.019934188439510763
0.019816385549493134
0.01975443903473206
0.01967981018126011
0.01977133351727389
0.019985400345176457
0.019979407978244126
0.019959171804366634
0.019917484475299715
0.019819314926862716
0.019729153817752376
0.019673959371866657
0.019648792810039596
0.019643738936865704
0.019699440931435674
0.019737268785247578
0.019691627345746383
0.01965041098301299
0.019703163928352297
0.0198228974849917
0.01983450001454912
0.019678992071421816
0.01968899412313476
0.01963891299557872
0.01977925538434647
0.019940218408592045
0.019904204922495408
0.019867603516904638
0.019869755626423284
0.01982373198028654
0.01971742222434841
0.019672229978023096
0.019746242840774357
0.019850690817693247
0.019947520316345616
0.01998200238100253
0.020096833551069723
0.02031291670049541
0.020391934217186644
0.02041086811455898
0.020589408505475148
0.02062667001388036
0.020425880989059807
0.020285642115632073
0.020381136586656794
0.020569616650464015
0.02061680960934609
0.02076275130501017
0.020985367839457467
0.021215425801929085
0.0214174143911805
0.021452629723353312
0.021697880489518866
0.022240181965753437
0.022709410469979048
0.022926787154283375
0.022788999101612716
0.022512691110605373
0.022194741873536258
0.022112291106022895
0.021997827041195704
0.02181147094583139
0.02166444905102253
0.021722690559690817
0.021751176797552035
0.021724781855009496
0.021688766166334972
0.021704765185713768
0.02176319873891771
0.021758949315408244
0.021700279058422894
0.02176665571751073
0.02179686413379386
0.021857591890729965
0.021877656587166713
0.021896889820927756
0.021911111501976846
0.02190451950300485
0.02187510983669199
0.02181505998247303
0.021729918281780555
0.02177511472837068
0.021839736553374678
0.02181182787171565
0.021878629989223554
0.021912810830399393
0.02197115320363082
0.022161301312735304
0.022317049086559564
0.022398779100039973
0.02249957977444865
0.022407299352344125
0.02241654881159775
0.022440587752498686
0.02252459481591359
0.022561285018455238
0.022498440614435823
0.02233050641603768
0.022057035509496926
0.02176712011336349
0.021605308201396837
0.021655117457266896
0.021803438671631738
0.021962611958151683
0.022022383083822206
0.02197804585448466
0.021882922592340037
0.021871442495612427
0.021789600718766452
0.021500038612866774
0.021291876797331497
0.021261491776676848
0.02128329933970235
0.0212865000218153
0.021338889806065707
0.02149267062661238
0.021623936898540707
0.02162868814659305
0.021634592240443454
0.021542957199271767
0.02149996846797876
0.02148844476789236
0.021525668823160232
0.021645307107828558
0.021681734423618763
0.02166218824335374
0.021753881040494888
0.021811513076536358
0.021885549285216258
0.021880827165441586
0.021776415307540445
0.021738373287953437
0.021474309880286455
0.021398212970234455
0.02129352365154773
0.021192607942502946
0.02115505563095212
0.021263414246495815
0.02141278617782518
0.021496929802233354
0.021579548160079867
0.02180247757351026
0.02194664955488406
0.021981540338601918
0.022180201470619068
0.022269532456994055
0.02208560502389446
0.021979312982875854
0.02211959724780172
0.02216127308434807
0.022147340651135893
0.022089419499970973
0.022009637344162912
0.02200870488770306
0.021973626823164522
0.0219389945094008
0.0219344920408912
0.022095515355467797
0.022227115724235774
0.022274851771071552
0.02229662223136984
0.02243247518199496
0.022512412500800563
0.022469784978311508
0.022406092083547265
0.02235220537870191
0.02231637078570202
0.022328974569682032
0.022319363912101833
0.022407222769688814
0.022524662676732986
0.022531463917111978
0.022371386644663288
0.02220457368995994
0.022157759665278717
0.02217718604253605
0.022186855346662922
0.0221203611115925
0.021899007101310417
0.021728287187870593
0.021734861452132465
0.021692162771942095
0.02159471228835173
0.021555591819342225
0.021540686165681108
0.02144526651711203
0.02151752498932183
0.02160132212564349
0.021574494529049845
0.02155494816368446
0.021530705504119396
0.021582732354290785
0.021353578626876698
0.021161110979737715
0.02123502199188806
0.021341467485763134
0.021264078102540225
0.0211697729898151
0.021169902503024786
0.02112956398748793
0.021054013510001822
0.02105758753605187
0.02108610311290249
0.02104923815233633
0.020882231581490485
0.020670724872034044
0.02077416979940608
0.02082814314751886
0.020761634733062237
0.0207022864848841
0.020711760787526144
0.02070543495705351
0.020705386312911286
0.020724905031966046
0.02076099510421045
0.020975211272016167
0.02123876357451081
0.02133906148490496
0.02133237959584221
0.02128324332763441
0.021171803285833447
0.02117971339728683
0.02114953960175626
0.021119330041110516
0.021012835132423788
0.020981255883816628
0.021014094776473938
0.02107664122362621
0.0212111070624087
0.02128285651560873
0.0211892351671122
0.021083208709023894
0.02107011801446788
0.021029872067738323
0.020889079647604378
0.02089629612164572
0.020810990703757852
0.020734439969528465
0.020749796441523357
0.020735598525498063
0.020555325475288554
0.020478549934923648
0.020560153789119795
0.020558358234120534
0.02035129462601617
0.020132439968874677
0.02009879404795356
0.019941898805554956
0.01968581845983863
0.019397666230797767
0.0191411199583672
0.01904196064453572
0.01877911449410021
0.01824064744170755
0.017757305479608475
0.017553609502501785
0.017526223375461995
0.01745818480849266
0.017582595470594244
0.01769844423630275
0.017656598015455528
0.0176452800212428
0.017663199172820897
0.01771140519529581
0.017800510284723715
0.017871877668658272
0.01783665920374915
0.01772012241650373
0.017666877374285832
0.01755571658955887
0.01763036314281635
0.017581601020647212
0.017631815562490372
0.017586925236973912
0.01753732000826858
0.017745347506133838
0.01801459862035699
0.01815384202520363
0.018113467409275472
0.018110162067459898
0.018227448068792
0.0181832978350576
0.01811192143242806
0.01811769969528541
0.018078402318060398
0.018034851615084335
0.018026138494024055
0.017883918908191843
0.01766824317863211
0.017540402320446447
0.017501962423557414
0.01751838910044171
0.017463310761377214
0.01756872419617139
0.017745143806096167
0.01785962132154964
0.01780155626940541
0.018009445536881684
0.018215335860149937
0.01830222481978126
0.018645496878307313
0.018871878869831563
0.018833463600603863
0.018727115630172195
0.018707724504638465
0.018726469986140727
0.018730669660726562
0.01875497560715303
0.01876175732119009
0.018833837452111767
0.0189044348069001
0.018955269505968316
0.01896124329417944
0.019081286257132887
0.01926743615535088
0.019283027327619492
0.019204203272238374
0.01919598917244002
0.019141685354989023
0.019241477806353942
0.019466167466016485
0.019600326985819264
0.019570427662692964
0.019518089181510732
0.019573183823376895
0.019575074535096063
0.019563722198363394
0.01955422820756212
0.019343944784486665
0.01913472194573842
0.019017049790127204
0.01902514599612914
0.019043966471217574
0.019025666447123512
0.01902791711152531
0.019006394589086994
0.01899537490447983
0.01891462137689814
0.018786135426489638
0.01874953807797283
0.018783668820979073
0.01869485835894011
0.018679893326479943
0.01866346433176659
0.018435158397769557
0.018243853626772763
0.018196473277639597
0.0181785882008262
0.018093892397591845
0.018029416211647914
0.018041102380957453
0.0180406963895075
0.01804548908607103
0.018130793512100354
0.018307489872677253
0.01838028372148983
0.01834709254675545
0.018261764001799748
0.018185150150675327
0.018189510416705162
0.018220166829414665
0.018209469445282594
0.018165392976952716
0.018146934990072625
0.018190370487282052
0.018214485382195562
0.018126529831206425
0.018044128484325482
0.0181558993877843
0.01816144091077149
0.018078456236980855
0.0180419868521858
0.01807225721073337
0.01805054147262126
0.017934400538215413
0.017854954255744813
0.01790610243799165
0.017876203367486597
0.01791204874170944
0.01796156008495018
0.017933988366276025
0.018180456454865636
0.0184677148621995
0.01852853740681894
0.01843688699300401
0.018458914262009785
0.018405430533457546
0.018388095346745105
0.018379003544105217
0.01832284511066973
0.018269044623011724
0.01845506004989147
0.018630876968381928
0.018571840242948383
0.018559261355549098
0.018681032909080388
0.0188799406925682
0.018925695420475678
0.018771435666130855
0.018637024043127896
0.018631956782191993
0.018640578160993754
0.018633177791489288
0.01854468695470132
0.01849720817292109
0.01855949618620798
0.01851998851634562
0.0185050307540223
0.018623665069462732
0.018785786580992864
0.018761849376605823
0.01882816682336852
0.01886833831202239
0.018847365271067246
0.018853450901806356
0.01873323725652881
0.018578160754404962
0.018559042857959868
0.01858071101945825
0.018544711627764627
0.01854729912476614
0.018542424289043992
0.0185493200737983
0.018534769280813636
0.018466734307585286
0.018270014085574077
0.01817561932024546
0.018183381679700687
0.018220043503679336
0.01817365988739766
0.018190846764482557
0.01820979776675813
0.018208392888773232
0.01832085250876844
0.01849217785638757
0.01846458681160584
0.01847927354858257
0.018379942084429786
0.018422826873138547
0.018453031859826295
0.01852281843777746
0.018617220068117602
0.018572148476960138
0.01848497460829094
0.018460609914036467
0.018469779518200086
0.018593017688253895
0.01882337366696447
0.0189532617747318
0.018972922429675236
0.019063235827488825
0.019101328457472845
0.01913805697229691
0.019186763399047777
0.0192066227667965
0.0192117786698509
0.019349043767433613
0.01947169104241766
0.01936724877101369
0.019481699162861334
0.019833216927945613
0.020187933770939706
0.020415324603673072
0.020303781159454956
0.02023395220632665
0.02008719520526938
0.020123720185365526
0.02014141539344564
0.020048020891845226
0.020065924254013226
0.020027883490547536
0.02002771114814095
0.01995273262844421
0.0198820487014018
0.019938599426532165
0.01978941182838753
0.019593462526099756
0.019675558977760375
0.019963129243114962
0.020086548142135143
0.019969462807057425
0.01996437270194292
0.020051294948207215
0.02014859307324514
0.020128729201387613
0.020150298530934377
0.020108617718797177
0.020102523975074293
0.02016474254662171
0.020155547191388904
0.020137527522165327
0.020199059584410862
0.020290807356359436
0.02025237477151677
0.020026463825488464
0.019787400644272566
0.01977859018021263
0.019561832159524783
0.019360578601481392
0.019282854741904883
0.0189610731927678
0.018663685442879795
0.018552519393851982
0.0185337445337791
0.01846855367766693
0.018408529533771797
0.018469181613763794
0.018557822074508293
0.018649958014721052
0.01862983909319155
0.018450822025770322
0.018294191706227137
0.018333942418685183
0.018208564650267364
0.018099115517688915
0.018144017251906917
0.0182493953674566
0.018276008121902124
0.018292741551995277
0.01822541552479379
0.018123426189413296
0.017969490800751373
0.017815849628532304
0.01769201270886697
0.017576001286506653
0.017564397554378955
0.017537283945130183
0.017462365935789422
0.01760958520579152
0.017948713436489926
0.018283823119709268
0.018274827861459925
0.018511431826045737
0.018540805227821693
0.018805087053915485
0.019092209254158662
0.01918704347801395
0.019163638580357654
0.019136088936356828
0.019137372906552628
0.019150055930949747
0.01915492531610653
0.019225182401714846
0.01942015254520811
0.019569514521863313
0.01972931924276054
0.02014761492027901
0.020479007889516652
0.020596569064073266
0.020621488494798543
0.020648409610148518
0.0206608083890751
0.020667391532333566
0.020561815830878915
0.020374077280284838
0.020312053514644504
0.020406628272030502
0.020358912392985075
0.020311293066479264
0.020372835501329973
0.020536815696395934
0.020689541989704595
0.02073574765934609
0.02071649146731943
0.02068836262100376
0.0206234977778513
0.02074941258179024
0.02095056184916757
0.020980985043570398
0.020859255394898354
0.020861507351510225
0.02082522424287163
0.02081902279984206
0.020800464400090278
0.020776822019834072
0.02075167924980633
0.02072066569235176
0.020731594526441768
0.02078044304740615
0.020857209607493134
0.020952341703232378
0.020670884925639257
0.020282610019203274
0.020143199795857072
0.020227473080158234
0.020249439482577146
0.0201836974255275
0.0201188841520343
0.020155363819794728
0.02013183103175834
0.020055596119491384
0.019815948047908025
0.019696928032208235
0.01983307577553205
0.01981537063489668
0.019606891664443536
0.019374277755850926
0.01929590282845311
0.019334063570713624
0.0193700200447347
0.019376972567988558
0.019378923100885004
0.01934957448160276
0.01933537915116176
0.019300053087063132
0.01926374781411141
0.0192496473074425
0.019154277555644514
0.018954941160045563
0.018857068427605553
0.01898178692208603
0.01889685004716739
0.018857426841277627
0.01886819125036709
0.018851357295643537
0.01882149889366701
0.018769788576755674
0.01870051561621949
0.018625633434858173
0.018571162392618135
0.018602591688977554
0.0186914666951634
0.018746260998304932
0.018791963771218435
0.0188109084952157
0.01886242836015299
0.018851168840192258
0.01881040818057954
0.018698115532752125
0.01862000737688504
0.018597986601525916
0.01862798098125495
0.018645519744604825
0.018488695865962655
0.01830269063473679
0.018287779301172122
0.01835808726376854
0.01848269029171206
0.018432897722814232
0.018426811201497913
0.01839956982061267
0.018271789255086334
0.018204104077303784
0.018221218971302734
0.018265570051735267
0.01827180780121125
0.01817840882926248
0.018041108595207335
0.018032406906131657
0.018247381846886127
0.01845198668423109
0.018665917057078332
0.018806197228841484
0.018827538912883027
0.01881321201683022
0.018879225007258357
0.019024994374485685
0.01925388495903462
0.019491355213103814
0.019409995721653105
0.019189923903904855
0.019007323150290176
0.018942312069702892
0.018949660988291726
0.01908074426930398
0.0193109283328522
0.0193339237710461
0.019374898771056904
0.019455174680333583
0.01955431906390004
0.019612639342667534
0.01968278270214796
0.01975910723558627
0.019847952999407427
0.019820416748989374
0.01973223888198845
0.019643203391460702
0.019426664591301233
0.019139220608631147
0.01904574964544736
0.01916284217266366
0.0192322404042352
0.019176954437280073
0.019086008013691754
0.01912393362261355
0.019242754307342694
0.01946805459097959
0.019760496559320016
0.02007819363498129
0.02046546831377782
0.020887006549164654
0.021186839998699726
0.02127318949205801
0.02118172264075838
0.02126859323354438
0.021385858614230528
0.021438387262169272
0.021465863263001664
0.021487440920900554
0.021480959398904816
0.021472788801183924
0.0215487540315371
0.021636021443409845
0.021639111225958914
0.021632047233870254
0.02168489240691997
0.02172961399075575
0.021704494525911288
0.021640675156377256
0.021580798239447176
0.02168908520019613
0.021870094856712968
0.022034509078366682
0.022226711767725647
0.022249670824967326
0.02212217551539652
0.02202592247747816
0.02206610401510261
0.02210416308254935
0.02215816398500465
0.022183524953434244
0.022286295373924077
0.02251953160855919
0.022874883575132118
0.023304082312388345
0.023648764934623614
0.023804370575817302
0.02380657604429871
0.023802802141290158
0.023726256404770538
0.02375484604970552
0.024148445365717634
0.024347704615211116
0.024760848248843104
0.024830074838828296
0.02473237342084758
0.02476112129748799
0.02473029885906726
0.024805816457374022
0.024905848214402795
0.024974885965930296
0.02500403346377425
0.02494387683342211
0.024784402570221572
0.024704586265143005
0.024587025018408894
0.024152463484788313
0.023805406170431524
0.023734529656358062
0.023847665278008207
0.024048537778435276
0.024267719213385136
0.024414972182130443
0.024441691511310638
0.024515309700509535
0.024668173076352103
0.02484524142812006
0.024976124973036348
0.025029815728776158
0.02496595975360833
0.024742030648048967
0.024488260615617038
0.024378289326559752
0.0243636446329765
0.02431355452979915
0.024314736798405647
0.024186730748042465
0.02395647015538998
0.023806647632736714
0.02384772231569514
0.023861006087390706
0.023965872105909513
0.024123843620764092
0.024422644415171817
0.024760193437105046
0.024956450022291393
0.024938995520351455
0.025005911624757574
0.024977263796608896
0.024796533015323804
0.02466693895868957
0.024721138145541773
0.024807216578628867
0.0247431735356804
0.02462103342753835
0.024573115180246533
0.024590850383974613
0.024607806667918338
0.024520230339840056
0.02446328434860334
0.024513788734329866
0.024569070980651305
0.024520897193579003
0.024409226840361953
0.024452213196782396
0.024680908479494973
0.024924884559586646
0.025015514201950282
0.024997955758590252
0.02501546305604279
0.025123296205420045
0.025348250911338254
0.025712749497033657
0.026138409472769127
0.02643032876425423
0.026403511040844024
0.026439933995716272
0.026487952799070628
0.026553213172592224
0.02665882049477659
0.026781083449022844
0.026930949988309295
0.026952515236334875
0.026981185571057723
0.026893652444705367
0.026846998584223913
0.02696002943557687
0.027191549860872327
0.027449942388338967
0.027658107962924987
0.027740189866162838
0.02772863265010528
0.02770058382768184
0.027655802315566688
0.02766935084015131
0.027694278232520447
0.027717109631048516
0.027697167850565165
0.027655673308763652
0.027686822954565288
0.02773734270129353
0.027707700819009914
0.027627797649474813
0.027699237344786524
0.02792846299591474
0.028191042677499355
0.028301186156459154
0.028291259623365476
0.028268895115470514
0.028241750439628958
0.02818744073738344
0.02818066587555222
0.02822594004566781
0.02826136940973811
0.02823141950997524
0.028259314232273028
0.02828337587765418
0.02818861011764966
0.02808552615577355
0.02791751956916414
0.027682304122718052
0.027474973702337594
0.027326847026124597
0.027189372160937638
0.027154617483029143
0.027141731212614106
0.026900997953489422
0.026664440144086258
0.02662460657535121
0.02670060739037581
0.026676356424577535
0.026510904892347753
0.026411562809953465
0.026515533255878836
0.026379869083175436
0.026182472127256915
0.026105335352476687
0.02611523600644432
0.026073586876736953
0.025969708757475018
0.02589911561924964
0.025839311919407918
0.025760550714330747
0.025651298818411307
0.025625046098139138
0.025761241079308092
0.02596214202931151
0.02617114664288238
0.02631520090275444
0.026266302957665175
0.02616724700666964
0.026091445341007782
0.026073338113492356
0.026098419846966862
0.026072040263097732
0.025956590384012088
0.02570317456847988
0.02537434913916513
0.025049544761423022
0.024715134864673017
0.024361431446159258
0.024088219493860377
0.02404111371957697
0.024256475388538094
0.024349183513550088
0.02437822209787555
0.024413732757093385
0.024460816495120524
0.024528252063319086
0.024659850993193688
0.024799595464719458
0.02476033702143468
0.024831257360056043
0.02500282040447928
0.02504469033679925
0.02497700375970453
0.02503507872694172
0.025359995211474598
0.025807514735497535
0.026155704045668245
0.026187097284710036
0.026024610806489365
0.025805468827020377
0.025615202895132826
0.025583515085745603
0.0257320700166747
0.026012921025976538
0.02628856665105559
0.026430828728480266
0.026447126765269786
0.026429639590205625
0.026398327979259194
0.026273000169312583
0.02600074378424324
0.025642344725783913
0.025312545272754505
0.025105287347687407
0.025107122742338107
0.025090730220545084
0.02496723997173831
0.0247813202557154
0.024540437716059387
0.024110006048576906
0.023693991679465398
0.023415611194213853
0.023210712984437123
0.02309598777908832
0.02310265384032391
0.023033732989570125
0.022984556768788026
0.022964611529605463
0.02293119529960677
0.022870461569400504
0.022832083962857724
0.02288047020789236
0.02299378355848603
0.023067442631581798
0.02305247924872674
0.022990113931009547
0.0228361610986758
0.02268226756248623
0.022647641499061136
0.022774183920118957
0.022898756572976707
0.022812279851641505
0.022639704460743815
0.022499348561977967
0.022511460753157735
0.02262177535681985
0.022754563563503326
0.022946421942906456
0.023125697643263266
0.023160084260161966
0.023088871710933746
0.02306958827073686
0.023097233752487227
0.02312786824419163
0.023138463052455337
0.02317163278465159
0.02323410252807662
0.023263106769882143
0.023157464783871547
0.023015181814553216
0.022699604058871045
0.022418774685356767
0.02224786126171239
0.0222463782900013
0.022139239043463023
0.022071139868348837
0.02208133984124288
0.02208213724079542
0.02202215704252012
0.021959563600830734
0.021932190099032595
0.021959227819461375
0.0220100697199814
0.022027209175284952
0.022079050581669434
0.022185206580907106
0.02228331706370227
0.022342861609067767
0.02240207505878061
0.022485795475076883
0.02252082697930746
0.022407498126849532
0.02220096562989056
0.022013645205879583
0.021920217530569063
0.02188861424452625
0.021824455929454416
0.021697115988936276
0.021476020860718564
0.021124627217650415
0.02069846902275458
0.020434322137152777
0.02040978499338962
0.02034862701082602
0.02035133579047397
0.020354017320787534
0.020224206910934298
0.020018648395780474
0.019901956664398313
0.019904244693461807
0.019952255624812096
0.02003751837532036
0.02007521658204496
0.019996546732727438
0.01980230806861073
0.019574287916766478
0.019405134610133247
0.01929822693229653
0.019204910920234398
0.019148635407909752
0.019159173070220276
0.01911689146538265
0.019058740314794705
0.01902515210909769
0.019037902920972558
0.019082579208770767
0.019121218560030684
0.01915229219594039
0.019215080509893595
0.019262567948317155
0.019200742741813884
0.019016455229138956
0.018777661798521875
0.018578881431603803
0.01842674702988006
0.01834085928159766
0.018289913160260768
0.018285498887998984
0.018298333020647987
0.01829245969769545
0.018287769589805977
0.018349101215135305
0.018387110310140998
0.018393797050230205
0.018445747225778176
0.01848109081736766
0.01853502123616636
0.018592941244132816
0.018623304994544013
0.018644351452821867
0.018676030705682932
0.01867026732186787
0.01866734878742136
0.01864784108940512
0.01853354345075786
0.0183237924950663
0.018128908353392034
0.01800678198109381
0.018017691106069832
0.018020295017631725
0.017910644705407323
0.017862960130441932
0.017848422487732024
0.01777482171775773
0.01771291597280651
0.017781488961772993
0.017922799329971893
0.018005867098690943
0.018073020378360526
0.01814903431222774
0.01822590544936247
0.018230860809562727
0.018130138823762534
0.01796066018403508
0.01778823972097598
0.017687712443294003
0.017698835043702274
0.017695540429558607
0.017658901594113558
0.017628824596758932
0.017627770585240798
0.017648676584940404
0.01766624952084385
0.017677578360307963
0.01769142331671901
0.017699802779825403
0.017690401542931795
0.017659521993482485
0.017595094243297353
0.017472394406795502
0.01730292918975465
0.017146755577996373
0.017048163779545576
0.016984331174753606
0.016914185001514852
0.016835459691938014
0.016756093992153182
0.016693659463198854
0.016733472293708473
0.016590596792520954
0.01636282491264865
0.01629275016952306
0.016304881867254154
0.01616430070134811
0.015788350607035682
0.015354063170962036
0.01506056226673536
0.01495133465854451
0.014948337515816092
0.014988508730893954
0.015032662326702848
0.01496115479269065
0.014751752775628119
0.014443834719713777
0.014152288648765533
0.013975003169616685
0.013880610190099105
0.013779294214909896
0.013663014631019906
0.01357885611592792
0.013529335069470107
0.013483954698313028
0.013451574308564886
0.013463595389621332
0.013486621028278023
0.01344726309645921
0.013338296298170462
0.013201545296469703
0.013089088377309963
0.013085994923021644
0.013070058644516394
0.013076563796494156
0.013142373433802278
0.01317042789189145
0.013160208258777856
0.013113582639489323
0.01303137454087846
0.012928885169094429
0.01287629035417922
0.012918286646017805
0.012954857094446198
0.012864309097640216
0.012692558226408437
0.01256875269813463
0.012528772131772711
0.01253615462454036
0.01260921684326604
0.012606096589006483
0.012472771242028103
0.01230075278552249
0.012238787460373714
0.01231671039480716
0.012293596338713542
0.01214998544775881
0.011933380705304444
0.011734850395005197
0.01159148774924688
0.011400391809875145
0.011223533886950464
0.011156872296705842
0.011163027081638575
0.011205969201400877
0.011201876789564268
0.011194239379838109
0.011250169224804268
0.011314442586153746
0.011292827796423807
0.011229498712345957
0.011241264203563332
0.0112226602982264
0.01130464151268825
0.011332395338686184
0.011350654519628734
0.0113888465159107
0.011432303625624626
0.01144846280454658
0.011441731196828186
0.011430120695149527
0.011426722038304433
0.011434135742019862
0.011466674621915444
0.011450714949751273
0.011419962156796828
0.01140176079235971
0.011385368205374106
0.011362921074032783
0.011333955340087415
0.011291709776269272
0.011242608174216002
0.011213202440412715
0.011210733857005835
0.01120927118579857
0.011199596681399271
0.011202447330579162
0.011223418043227866
0.011249131694203243
0.011289311378495768
0.011329309205757454
0.011345433839596807
0.011329639978939668
0.011325802920619027
0.011336886372882873
0.011421381756663322
0.011424078333657234
0.011351985981455072
0.011295353464083746
0.011277568216901273
0.011276772936107592
0.011276509687304497
0.011264588148333133
0.011232633671024814
0.011194491048809142
0.011175947071751579
0.01118646297720261
0.011215706152142957
0.011238925880752504
0.01123959599295631
0.011233505418058485
0.011239108269801363
0.011239696583943441
0.01123558336053975
0.011225856479723007
0.011235949950059877
0.011273038504878059
0.011304549159249291
0.011300222852732987
0.011264637153362855
0.011220446157967672
0.011191767023410648
0.011182026090100407
0.011181803168728948
0.011199241490103304
0.011228489103959873
0.011252104940358549
0.011291419705376029
0.011312370661180467
0.011333681989926845
0.011340487429406495
0.011318469296675175
0.011310976470122113
0.011310773154255003
0.011267072268528864
0.011178807759424671
0.011112007742049172
0.011100308211753144
0.011098430928541347
0.011064932767767459
0.011022827447159217
0.011007699266774579
0.011010137521661818
0.01099461423465982
0.010953847408527508
0.01091989919077605
0.010917259067064151
0.010924428612925112
0.010916267316788434
0.010939149457262829
0.010948678950080648
0.010971938379807398
0.011031557958340273
0.011099085176829249
0.011058911292348057
0.011023499737493694
0.011060746819712221
0.011087069504428655
0.01102537528378889
0.010912750763818622
0.01082432484603487
0.010780594707466663
0.01076581985107623
0.010770128332078457
0.010779703077860176
0.010771463935961947
0.010741933818208054
0.010717061103787274
0.01071921719238162
0.01074358208104968
0.010771000196691603
0.010781436641700566
0.010767346752109006
0.010743137364042922
0.01073560576653108
0.010776147332508116
0.010863855045754463
0.010932159156072884
0.01092177051701583
0.010862601259723305
0.01083225715206936
0.0108393689757213
0.010806676598731428
0.010760831482475624
0.010773845554795117
0.010862754511181264
0.01091800249996595
0.010917023941874503
0.010900197566952556
0.01087218738393858
0.010824339692480861
0.010781919199507684
0.010785416283179075
0.010835049863671883
0.010890288108494134
0.010927400948712602
0.010947835088009015
0.010940430687041954
0.010905097483191638
0.010877064549131319
0.010874925759853795
0.01088453026721254
0.010897106773918495
0.010910796313546599
0.010920267957262695
0.010928531549870968
0.010949196558212861
0.010978471406269818
0.010979414847679437
0.010951871543657034
0.010921798531198875
0.010944872635882348
0.010984930521808565
0.010980140147730709
0.01093793346779421
0.010954207584727555
0.01094607359962538
0.010995618540327996
0.011081469194032252
0.011096909524640068
0.011050973781384527
0.011030342548619955
0.011052046336699277
0.011057038489961996
0.011013836353085935
0.010966058558551595
0.010953781350981445
0.010950984640512616
0.01093813065555878
0.010922549748793245
0.010933250442612917
0.010930662585888058
0.010873997268499807
0.010794450446264819
0.01076431227615103
0.010799017113167792
0.010847586850868538
0.010873480654554442
0.010872558815171941
0.010835396350594238
0.010762633343692868
0.010684102001832799
0.010621658494928852
0.010564666199497879
0.010514281294308602
0.010517897118115798
0.010586433171993122
0.010623535256600007
0.010623620091937482
0.010600498554995284
0.010662067164666951
0.010772211897419766
0.010786289827665314
0.01079176242579706
0.01077156540704891
0.010814808745635673
0.01084921025321819
0.010792361052008346
0.010700368344550952
0.010626585587160661
0.010658232711721212
0.01074772836989723
0.01079323643934913
0.010768348291749134
0.010741535634733736
0.010756144457263871
0.010768604929326102
0.0107427559082862
0.01073228963650763
0.010796625982038677
0.010890054784249514
0.010925661264918745
0.010914409076794982
0.010932582799578086
0.010987516712630168
0.011030048492830246
0.011044339464278892
0.011039725138107314
0.011012914299499243
0.010965703261317685
0.010918929126346484
0.010882278144126758
0.010851081672590225
0.010844834278104827
0.010874475194141269
0.010897016382077709
0.010889192756731064
0.010885130012175068
0.010897646920057014
0.010897125749615953
0.010878568602493033
0.01089048464782536
0.01096592788118869
0.011049450989812613
0.01104022178100422
0.010958506757160648
0.01086998068378307
0.010863323847297579
0.010893647855846211
0.010899527387227863
0.010859749667579308
0.010791829114314169
0.01074812349397689
0.010749064799165353
0.01074531341670081
0.010719526603352278
0.01072137031937018
0.01075242368504405
0.010759416526416316
0.010750376911601052
0.010782102085649968
0.010852962351636962
0.010911032225703821
0.010928487787023187
0.010911498288623988
0.010932176619535312
0.010903496355749666
0.010940374750643968
0.01102655652561225
0.011060026854975149
0.011031631933292374
0.01097657434642315
0.010917698133271187
0.010872146516339854
0.010834567019483075
0.010801998893730342
0.010788608534494416
0.010785705301677807
0.010783033502520993
0.010795938846422359
0.010827751997858286
0.010857516520190983
0.010866783928358928
0.010867417411645874
0.010901483268244192
0.01098337657400407
0.011062539187259973
0.011081336031202227
0.01104085823521018
0.010983053096570074
0.010936518601374701
0.010910496743163094
0.010911500478396192
0.010931444586021825
0.010945931372698397
0.010938180369557814
0.010922734662890433
0.010930099994875491
0.010945207817712799
0.010926867936505005
0.010995196250732989
0.010997233693487943
0.0109032894927077
0.010850742125185206
0.010884116789093241
0.010923921301728114
0.010923306954791769
0.010906988468486816
0.010902754461858422
0.010912504708394409
0.010927112469216809
0.010924564640736207
0.010884002966340631
0.010824204405071213
0.010790980295278132
0.010799806638387963
0.010826208982616664
0.01084888777229935
0.010864678794750943
0.010865566956344991
0.010849721760023386
0.010854704097146168
0.010910048054065556
0.010973370503634214
0.010985802438808605
0.010946414481149986
0.010899692425737158
0.010887235719710588
0.010906627557706088
0.010919184368103742
0.010875726948725059
0.010845127436332404
0.010877368297660723
0.010915100541897118
0.010981503984658048
0.010942888769786805
0.010881838775239884
0.01088984121917747
0.01093666317872703
0.010954737428110093
0.010935451581608503
0.010923555103363469
0.010932028747629375
0.010930836333427578
0.010926026958040893
0.01094183630309999
0.010956715061329305
0.010959298404632136
0.010979679302545264
0.011014965274371206
0.01102358668576926
0.010990416124695913
0.010937678548507392
0.010893512044567615
0.010863051702035591
0.010822358744917437
0.01075705055030994
0.010701445579761638
0.010705832991516218
0.010750115563860163
0.010800950030097739
0.010812502766493709
0.010808701340574772
0.010838076327927411
0.010917386651271954
0.010985518245724961
0.011130887439940125
0.01122918201610446
0.011225787630537524
0.011191257642349229
0.01116152573376894
0.01114708039793186
0.01108849307638593
0.011039288295432926
0.011019045626744628
0.01101218274445273
0.011021538369823248
0.01105909954290837
0.011078979232115671
0.011061072994489224
0.011027111824369058
0.011014103430788964
0.011012954040197656
0.011019776114262641
0.01104181719245389
0.011058186768786981
0.011035414489451795
0.010981872695265339
0.01096391168772243
0.011018030074192211
0.01106383566162549
0.011020236123586073
0.011015110039152206
0.010970093776704744
0.010990534595912323
0.01102514378260821
0.011032671695575117
0.011048593048471958
0.011042332043871284
0.011026879251003265
0.011003660015994683
0.01095267761265859
0.010974819512339308
0.011024496187455952
0.011058339824667201
0.011037992555648088
0.011050137600395828
0.011172751542180776
0.011333436256973074
0.011447410328546539
0.01141985341324471
0.011314413875807077
0.011226832433603704
0.011179606477962806
0.011125131755834445
0.01104182328330353
0.010982746254885569
0.010993448669323698
0.011026801097905263
0.011009741190355271
0.010957507519051432
0.01095079003367573
0.010998150203377008
0.01101333906291984
0.010961304274387658
0.010902953613549472
0.010883966533001513
0.010894238491309806
0.01091342868283391
0.010928035629913211
0.010910736828809603
0.010898354839300737
0.010847291273530573
0.01086413424112834
0.010899125948781148
0.010868427839595825
0.010817869902821258
0.01078431642963551
0.010781331827165558
0.010790184820070863
0.010813355562277138
0.010846175138140098
0.010863719389308244
0.010860749462153763
0.010875292570563033
0.010902247164631262
0.010933282182086258
0.010915060607949272
0.01088705228175968
0.010877365806372837
0.010893363379873336
0.010934005624148995
0.010948390972334892
0.01090805177926086
0.010876432196237146
0.010887336697196588
0.010892205249983817
0.010883668209426106
0.010902913403697312
0.010931186360539868
0.01091984378406778
0.010887328777462244
0.010887889042496681
0.010910180575447157
0.010926423764321952
0.0109451638313476
0.010969294286333024
0.01103317589033395
0.011002555474406109
0.010938958957558498
0.01094084037700668
0.011001544605242088
0.01105513608083129
0.01105712707620114
0.01103808446903713
0.011028763197828084
0.010995987873757258
0.010964273310964927
0.010958136431872845
0.010958626278443262
0.01095873573096469
0.01095495694084093
0.010944162340601906
0.010914528988068923
0.0108498652104754
0.010769186246907338
0.010729730535531416
0.010764016001485289
0.010826675229473039
0.010840364007744938
0.010803426539059729
0.01076814736239612
0.01075356088578701
0.010759142149472609
0.010821376910898834
0.010949756759218872
0.01106302487431094
0.011087538733845577
0.011081315970513969
0.011120217741699889
0.0111554402904585
0.011138701669406146
0.011115301969693974
0.011116990178124979
0.011120807578554376
0.01110023179790005
0.011052407686365768
0.011006089854054152
0.010996032857801765
0.011010242154588923
0.010999681256944314
0.010970007954165339
0.01099073585937731
0.011064370569074526
0.011093064242741093
0.011086922640679404
0.011095142032718285
0.011055195810040459
0.011050882959971205
0.011042832229286433
0.01104200145113282
0.011059055726509542
0.011059547057375312
0.011031755395233631
0.011017882082378493
0.0110344446497038
0.011047926201717928
0.011049871279392392
0.011069994529243558
0.011111853275215253
0.0111573732632678
0.011138201925205067
0.011118335109204054
0.011175747290253639
0.011184945980785415
0.011191691947169602
0.011219172946875916
0.011229439578019083
0.011209176435368135
0.011204311357578262
0.011231484586605802
0.01124520618468523
0.011225604942301287
0.011200462108245119
0.01117554199998267
0.011143809917848557
0.011129164026351645
0.011132268639048561
0.011106810860801487
0.011045317298267037
0.010995270245475695
0.010987736163660883
0.011014100076863542
0.011038621028419585
0.011041707544354722
0.011061572621110826
0.011119839771417901
0.011160082223359496
0.011147886880207807
0.011128245579311625
0.011128383764298633
0.011122572195017711
0.011107066904660314
0.01108835232211277
0.011031759553588927
0.010940013971412555
0.010872151820221916
0.010820967567851766
0.01074336918652989
0.010681868101237342
0.010700974472565577
0.010736551060108467
0.010762254798319191
0.01076752998167649
0.01077460246742703
0.010772699494846166
0.01077776906080544
0.010777543297735974
0.010793901606230066
0.010821805617306382
0.010824016208061948
0.010811413909541443
0.010825598741648719
0.010855679223313928
0.010874354146653786
0.010908019951311871
0.01097331348224543
0.011005795779637992
0.010946992035023868
0.010845208046957851
0.010804508228320629
0.01085634705494158
0.010850897310301661
0.010876887432532385
0.010837550655705854
0.010784899530699476
0.010732434865785763
0.010703152460046113
0.010704205717192963
0.0107812201755587
0.010910502278711647
0.010932910307310521
0.01086650142329745
0.01081196778686717
0.010793188033858314
0.010786512882914394
0.010764266536571086
0.01068865236476995
0.010563131264643744
0.010463455545250326
0.010449116058880463
0.010497591397725046
0.010553262782050297
0.010584284805227072
0.010607540651690214
0.010649543828330934
0.010695919169811531
0.010715618761023506
0.010712109601590782
0.01071505895233713
0.010745449371170253
0.01079286211868748
0.010822297091362999
0.010816623263526708
0.01079355274210684
0.010782763928873465
0.010804779019672424
0.01084544693119824
0.010864131646230816
0.010850993245840072
0.010852927986998112
0.010866526192985474
0.010958271776326
0.010993339018896223
0.010969869343098253
0.010977878147969022
0.011014479362638668
0.011051101618213578
0.011049440804636107
0.01102169523248449
0.010990956159075723
0.010960885260719805
0.010918704591458663
0.010884506501024589
0.010892937373137101
0.010929970483994111
0.010957626000745221
0.010963967428542673
0.010972322474699467
0.011008688359288499
0.011034644066821784
0.010989997788565234
0.010973039290402085
0.010959118615137414
0.010984468790702522
0.010984801786253228
0.010923825410427525
0.01084521500626579
0.010800768728367985
0.010798720403108746
0.010798307900549843
0.010762959092389793
0.010711424408946187
0.010706632265355438
0.010755376907764003
0.010766550538828596
0.010848762908717618
0.010846375320106745
0.010852283551357686
0.010872549862833694
0.01086409910582006
0.010821672659367322
0.010769929793896153
0.010748135878238828
0.010761687174672262
0.01081243064138107
0.010899485626723618
0.010943866722518578
0.010910077422158793
0.010868552933679894
0.010873824642039835
0.010912850454915315
0.010944693892961368
0.010973024698905647
0.01102922689751722
0.011092382100177928
0.011110325482441112
0.011078865749295801
0.011044101845473052
0.011049893770832568
0.011085330345667898
0.011117732801940292
0.011152928557712584
0.011199190730694681
0.011196702759480103
0.011108890856849029
0.011000326580833643
0.010937765529379249
0.010928958958247676
0.010956978718750178
0.010980574199929833
0.010975450946716592
0.010972356629790738
0.010981135129695759
0.010967245384817944
0.010946262588258832
0.010970820932416246
0.011013799974462017
0.011006893698358909
0.010964437816292048
0.010953923829365522
0.010976481611141935
0.010955621150787919
0.010866932983044536
0.010812019280856476
0.010799644213402643
0.010794705223524943
0.010836809802567586
0.01082990775932558
0.010834014427382499
0.010857815560884774
0.010863469430478289
0.010845146601786837
0.010830488133942709
0.010821266634156928
0.010795944157289341
0.01075303870951757
0.01071350242709741
0.010691778589971364
0.010666114130290226
0.010609227028908208
0.010599180480930954
0.010637872057268396
0.010646517432760447
0.010554766072891653
0.010461012735031545
0.010444367006421089
0.010462645191000774
0.01046139353653416
0.010443515657680109
0.01043599463882856
0.01044776693568565
0.010471589672379196
0.010499256282346324
0.010524551704293117
0.01054855787428096
0.010578840632224456
0.010620139630045742
0.010674120744224637
0.010736115920590237
0.010787246220279484
0.01079699573223479
0.010749105578288436
0.010696028786478564
0.010653546118410304
0.010619538004975766
0.0105716897174716
0.01052833320456557
0.010519011938013136
0.010524178041378037
0.010516143277054652
0.010520780247170479
0.010549089259002357
0.01054720121435821
0.010534538256470114
0.010592258538817987
0.01066670150263235
0.010666898587951437
0.010643678621854634
0.010653082763310522
0.01064559924066998
0.010602765795774759
0.010598396236309782
0.010635810001986101
0.010685500554973259
0.010760265862336383
0.010860614806879311
0.01099145797197707
0.011055436183232814
0.011041440312983469
0.01111950389808044
0.01114494663081132
0.011095864165108651
0.011110227012541146
0.011130134471459314
0.011101374354911969
0.011039715855149552
0.011032945126062258
0.011095499944640324
0.01113679795875214
0.011124360110843555
0.011119343290338292
0.011156189426546916
0.011220343504101038
0.011291304152691736
0.011345371505012736
0.011388193431776017
0.01141076382016763
0.011459720784332604
0.01148263378883712
0.011385617759078741
0.01129267371725291
0.011295197384897619
0.011355774556286634
0.011403886118205264
0.0114111419825349
0.011389804229838773
0.011370586031116545
0.011366107248468324
0.011358277957187966
0.011333004967309535
0.011299057338619604
0.011271521641174332
0.01126185467466712
0.011265381627017632
0.01125946590444073
0.011240513094235212
0.01123001566156745
0.011214540430810303
0.01117595295771025
0.011121110493550078
0.011126803746446968
0.011228373170597479
0.01131849070545286
0.011364464117214083
0.011390992138767615
0.011386832470307126
0.011343403761275113
0.011303265262395144
0.011307402291567997
0.011341488694306463
0.01135144651751034
0.01130290869390592
0.011235964858205988
0.011231754845939577
0.011315115481847897
0.011426187310134991
0.01151377652771771
0.011594173572957516
0.01164180419058539
0.01165213291766122
0.01173533542547375
0.011787731470540165
0.011776376946363598
0.01176100704469718
0.011774142201757059
0.011747066685929895
0.011772223043954
0.011819755459437148
0.011794810033170506
0.011755736456252634
0.011760368222603575
0.011784424866782502
0.011871965680038557
0.011901363257784396
0.011887341851834208
0.011912673754850403
0.011993244754849001
0.012086405297741293
0.012162678862223402
0.01223256602534093
0.01230671803234145
0.012370558708207682
0.012415257932152599
0.01244892503018491
0.012450719100888819
0.012387708676978946
0.012302578964736313
0.012277249057078735
0.012322645356180146
0.012361450546886772
0.012359850641805678
0.01235450281878002
0.012362502739997581
0.012335011432878674
0.012277029393007979
0.012194320282433183
0.012174953266512602
0.01225675707217306
0.012315649951342494
0.012291388458106667
0.01224883779650554
0.012251497094985098
0.012287211572984234
0.012315880929818376
0.012323513677110896
0.012327628365019336
0.012343126353807748
0.012359154495643452
0.012358491139020772
0.012345231218496337
0.012323449135292321
0.012271165917627513
0.012187384866410866
0.012113522965228185
0.012063991646282374
0.012029575012857095
0.012037888341583312
0.012072347311768681
0.012048597421962768
0.011979488277575001
0.011960034053772687
0.011993874605977908
0.012025647865375504
0.012054919842630624
0.012097191952634603
0.012136970671126618
0.012170342094032094
0.012200159096391872
0.01220345110166818
0.01217409839737229
0.012143448126735165
0.012131994230439886
0.012134195626713336
0.012136613595066592
0.012152660782448947
0.01219264904386364
0.012258270655293018
0.012318416173802688
0.012353702298132702
0.01238923060009256
0.012421283988514916
0.012388083440018818
0.012421849883394316
0.012413148273481056
0.01244016766664572
0.012538590311305598
0.012604419199051335
0.012572841818910092
0.012508372102165594
0.01253228986170143
0.012522768350318075
0.012504658930702135
0.012467364120529964
0.01247999839601107
0.012513739119749517
0.012510093478485942
0.012499121766304598
0.0125290668674279
0.01258128858404234
0.012616952913813293
0.012630577262025327
0.012632541756611318
0.012632846605265513
0.012644483622862026
0.012659586846129969
0.012646405468694865
0.01260510645341128
0.01256783513352275
0.012544775182614104
0.012536480034468696
0.012553718257695436
0.012595461565069854
0.012629753319779412
0.01267643884406425
0.012728864232776686
0.012804297667462378
0.012924782633781433
0.01306371453218162
0.013161072501679883
0.01317768355133012
0.013128811500500888
0.013095404161140323
0.013149177300510928
0.013194497474469245
0.013219851151807233
0.013299551793606952
0.013367381362477317
0.013299452561186626
0.013463990613818169
0.013740060840500518
0.014021867651026696
0.014290363176260144
0.014544569418067112
0.014736575096612796
0.01478145298664458
0.014653127511264756
0.014617256560595706
0.01471186570241116
0.014871154876891524
0.014888719515874982
0.014939295467920602
0.015119740641675889
0.015304817985743284
0.015433670295169576
0.015440807979321108
0.015441316921496764
0.015459859709953888
0.01545064987265505
0.015464041986269876
0.015529672830598428
0.015611293743131683
0.015695510990917684
0.01580114143085666
0.01591950900736265
0.016018646917073057
0.016056610379600898
0.01600611410103738
0.015963000324554742
0.015868688967311754
0.015833616473246367
0.015814875472569837
0.015801388301188126
0.015831860976759343
0.015952438489766792
0.016133906373288483
0.016304721848573536
0.016395351111423224
0.016405441222013907
0.01639868490281515
0.016410166623536497
0.016428991112625226
0.01644329118775204
0.016431199157377705
0.01639445895329118
0.016363591226981954
0.01639869553502649
0.016460437728092074
0.01651585121639073
0.016602033467497678
0.01674598965793848
0.016805335310054945
0.016679770196788013
0.01656620116205886
0.016602832191856577
0.01669841511407867
0.01674052228918299
0.016745029698358848
0.01675389283336699
0.01674039822537452
0.016709257720503957
0.01667956401128322
0.01663483926677145
0.016579974186606707
0.01649685574695468
0.01635436274809763
0.01622852518921718
0.01613998485961929
0.016074871588498355
0.016082226518774403
0.016142941581783816
0.016104640652192758
0.016078056355472655
0.01612388050300069
0.01618103766348213
0.016213460117578505
0.016295326099498197
0.01631245815427974
0.016255096192471685
0.01621765300631523
0.016204988721292467
0.016212641891324892
0.016166868358850478
0.01607738418621011
0.016017280888045205
0.0159609146672301
0.0158976349059958
0.015814006509026514
0.01571993366931565
0.015637438610428944
0.01558816150878556
0.015587630977388472
0.015624899533577263
0.01565307851531543
0.01563427086919546
0.01559285342344083
0.015581058311508968
0.015593437571078539
0.015581594408722595
0.015540981317171828
0.015508161663310602
0.015497813151450828
0.015489843364339322
0.015479768957011402
0.015483641980681568
0.015473970989696682
0.015495428029680625
0.015489540742710233
0.01542657237034291
0.015447212741710245
0.015593904254492372
0.015700666384072973
0.015651721250033005
0.015567150969291106
0.01551513840444386
0.015486064912984147
0.015430065388791263
0.015380480499006808
0.015377330948831513
0.015398253151215614
0.015401978422887623
0.015383002260932699
0.015373800006927922
0.015393900190247223
0.01541372125968337
0.015408970273565501
0.015404244306264445
0.015416052703512833
0.01542197227361612
0.015415277630090714
0.015420984225347639
0.01545031695975922
0.015489820567891001
0.01552377747488208
0.015543344600591808
0.015550324693322182
0.015550057364162057
0.01554270006949082
0.015535238675074652
0.015542749953456223
0.015563397671794519
0.015575072509236634
0.015570243680849671
0.015562014164170251
0.015562102597905324
0.015535225176718086
0.015475271249888465
0.015386924664489925
0.015307752086082474
0.015254466971382498
0.01520537761040032
0.01519345524138771
0.015297629041597247
0.01536121230572462
0.015458941945107654
0.015499810548499226
0.015446442901156843
0.015389551656553521
0.015383185917744412
0.015394349088892341
0.015371083099162207
0.015377821249421686
0.015326085458509624
0.01525128650246188
0.015193199792411178
0.015177284443052486
0.015183118599234149
0.015182424552040174
0.015188959734514356
0.015202516977442428
0.015172681148396806
0.01512740658945404
0.015087005097884685
0.015091723180375993
0.015118372613796964
0.015125259896740318
0.015128662209026516
0.015156490168301388
0.015197714227251708
0.015219591242494062
0.01519718843861483
0.015155401139054447
0.015113925355253742
0.015082142560277133
0.015049444715259597
0.014986852692672983
0.014898575138067827
0.014804433962563052
0.014731951284920797
0.014713299405993894
0.014759732856182381
0.014821948185563087
0.014819896095432342
0.014761180657660588
0.0147659037692938
0.01474184000166133
0.014574610635172576
0.01441453728126362
0.014429901159601285
0.014236480291001498
0.013953621297841891
0.013671065655071288
0.013385491769295186
0.01308464668225497
0.012833377064671367
0.012714859558036551
0.012725716517306864
0.012638017947319896
0.012533446887973696
0.012467238518875092
0.012440582524286583
0.012410261891782284
0.012311713938834146
0.01214487947174348
0.012006768172141165
0.011980181002290919
0.011975036781514063
0.011975318434415384
0.012001461534528062
0.011978500259574502
0.011885836367728188
0.011757659710710869
0.011620414627250284
0.011461731522576884
0.011284174056490882
0.011095909714931622
0.011029212276916951
0.011059437475632877
0.011048162025399506
0.011100629511056469
0.011140520978951827
0.011233050972223282
0.011328572077909485
0.01133195199421607
0.011207357773091644
0.011020684570539743
0.010867890064837411
0.010809683194383978
0.010817786430707202
0.010827887179329991
0.010824605376692489
0.010814879783429205
0.010794146965490654
0.010779117816127837
0.010774817052297294
0.01077255658688955
0.01072427056496963
0.0106494463107083
0.010596309908432886
0.010561327202012763
0.010495588466292248
0.010421636055689305
0.010414671737235039
0.010447467436315493
0.010429651003796607
0.010366236274130643
0.010325711743207648
0.010317926288116723
0.010318662581266836
0.010340485578635707
0.010354551156051457
0.010342526212334634
0.010353427468799055
0.01038554505794309
0.010406198186101391
0.010421944620320573
0.010409663122845813
0.010401294942712412
0.01040250550606288
0.01037816034979187
0.010319278775714338
0.010269645623629912
0.01025975133641623
0.01025891930796206
0.010222447173437104
0.010150291579775513
0.01008765370817855
0.010074069512775168
0.010102915262104944
0.010146093844668939
0.010184117377502844
0.010207154194358737
0.0102145715279039
0.010212049769470467
0.010198922735871746
0.010242071895627305
0.010283652634825557
0.010284046531887725
0.010263427541358396
0.01025360553758219
0.01025576756335795
0.010253287957748398
0.010229226109804585
0.010190903861075639
0.010171386556467042
0.010178477676818147
0.010186105566099286
0.010183735302416608
0.0101870762987528
0.010203723645536228
0.010223617079900578
0.010246032093418763
0.010285671701421962
0.01032795401290059
0.010353305286262184
0.01034810406039469
0.010326281344750896
0.010342644168995321
0.010382360616931692
0.010348341247299686
0.010226548365317285
0.010171132186660542
0.010272269311826676
0.01036603782675229
0.010356319808633998
0.010307915619341657
0.010339607202913612
0.010397506570443511
0.01038810822996311
0.010334735147189349
0.01030965443351306
0.010324731728760526
0.010361788290319964
0.010402807432692498
0.010452904079575092
0.010514917345717549
0.010572487724712119
0.010616565590025858
0.010647470559924842
0.010656056922161952
0.010638790200464427
0.010607449690578506
0.010567722042324021
0.010516980399843305
0.01046820416348055
0.0104390042333398
0.010418531300965697
0.010388598771532998
0.010365041869226843
0.010371886162320152
0.010386645956896246
0.010366138704121113
0.010364938201382757
0.01037352558108978
0.010376015200745315
0.010388639436569065
0.010391509294277058
0.010396589781157673
0.010403375050518662
0.010407355696661397
0.0103994662349578
0.010367847334127872
0.010316801231820136
0.01025005585514009
0.01016502613783814
0.010091167640639468
0.010078940568491816
0.01012345366878435
0.010167540553957223
0.010201695442665368
0.010244647926883772
0.010289725016336888
0.010334587434772401
0.010379306507529691
0.010429671278689056
0.010485689998604357
0.010565137914381921
0.010631831613136456
0.010608790650730953
0.010518520444165916
0.01048197781550698
0.010467581319389865
0.010495681647444143
0.01051432683132589
0.010500082483049481
0.010467290551168844
0.010427211540518328
0.01039268119027838
0.010373810859164223
0.01037546581006609
0.010406108791939914
0.0104507140442729
0.010506623778492213
0.010555627588182688
0.01058263617916964
0.010600632769055665
0.010604221029207111
0.010588037174893544
0.010544511858606711
0.010470327725633978
0.010402136133052409
0.01038957927725278
0.010425566833000631
0.010458660474978388
0.01046571264974773
0.010451760820578783
0.010423315458465367
0.010417611199663952
0.010464476358611136
0.01051857840269804
0.010536048643989488
0.010549598170910031
0.010578103523002938
0.010614546338329091
0.010644379726145417
0.010668826078763231
0.01069023413117975
0.010670695083681493
0.010589011734118685
0.010486276884330436
0.010408091371646151
0.010350889671826735
0.010294837391702458
0.010239808057667688
0.010202368281316012
0.010196557204471901
0.01020915098604746
0.010210285066859797
0.010209711887873708
0.010246413537533954
0.010301171551691368
0.01034434765460901
0.010356782071758061
0.010327670829137787
0.010315822632983328
0.01032754876301624
0.010328787113539874
0.010369348268723115
0.010413356317440049
0.01040637152385898
0.010385263588977978
0.010352355603827164
0.010307663818821311
0.010260591680416837
0.010233217445202171
0.010250900398241357
0.010296883335104211
0.010333971329964697
0.010361530841328204
0.010385266519151629
0.010386873601237311
0.010366510828025638
0.01035913020838052
0.010390499995555729
0.010445466585224494
0.0104921848338563
0.010518285019788891
0.010531382587505505
0.010537392316618934
0.010523446921724825
0.01048213615315035
0.010444401991553604
0.010441701201489195
0.010455493198242039
0.010455220834119245
0.010450271250447259
0.010455600251443684
0.010462410328909755
0.010460332289803774
0.01044532347121276
0.010431324223754928
0.010438926169881598
0.010451250600162894
0.010446124234003946
0.01045585568761453
0.010518235831987112
0.010593841437948868
0.010602862372761592
0.01055626070126891
0.010520795957418158
0.010551248288247734
0.010569510550703853
0.010515658247750253
0.010450448445044457
0.010439304893370718
0.010454142319504171
0.010441017908742651
0.010400376413017512
0.010369321893667802
0.010360343429492786
0.010353649285389111
0.010346719234948978
0.010372726792702451
0.01042801365023479
0.010481341540580615
0.010490321601973846
0.010497423980850726
0.010541266198270022
0.010589807416545227
0.010595004918286577
0.0105598202010151
0.010512954844161869
0.010477254803990945
0.010475486034993082
0.010508330641314387
0.010533232339657844
0.010507832049624995
0.010454398844158276
0.01044159646728076
0.010486521731363609
0.010523116264957935
0.010496873899828642
0.010466288295574486
0.01042163883917965
0.010395804488798604
0.010391443592961878
0.010397291271947324
0.010409555773949251
0.01042587048956193
0.01043125347001478
0.010414215496275574
0.010375769713427872
0.010324546345509588
0.010288928291993215
0.01030172775965184
0.010352729596197605
0.01040067055961117
0.01043291055248119
0.010460808080388233
0.010479433882283047
0.010484456821577623
0.010503167655551806
0.01052476015407592
0.010508494705427439
0.010451636792859063
0.010399080236675217
0.010370138528523967
0.010339571523945778
0.010295660067349673
0.010257943894248455
0.01023718653130345
0.010227600726066157
0.010230191512964665
0.010249561934033409
0.010276319821132347
0.010292806150391697
0.010294254629407078
0.010289545968407764
0.010287042232230306
0.010294294827617704
0.010323016158072278
0.010375110066961497
0.010384961914969609
0.010396810959791765
0.010436374979326502
0.010472433344693855
0.010485880635678768
0.010483927668537944
0.010481395581737161
0.010472500370815397
0.010454261816339567
0.010425615947460755
0.010383596771862357
0.010352489876095206
0.010370302217779681
0.010420441917376592
0.01042355851852335
0.010354579956037923
0.010296510842163115
0.010300026891054586
0.010318785527488217
0.010327363376272842
0.010350926236715168
0.010394811058649794
0.010433140048990026
0.010425639805616812
0.010356774874962867
0.010281831526663154
0.010271559926914052
0.010316855978453532
0.010352205026429147
0.01039788125664927
0.010426264883717522
0.010424651241628453
0.010413007730385289
0.010418541838880628
0.010412908205762506
0.010356572919990868
0.010280556959332898
0.010246475539170206
0.010262532309861854
0.010293380909133702
0.0103232764871791
0.01035571686225012
0.01038323879125528
0.010409535181242973
0.01044688867405057
0.010474204772617669
0.010472515925066546
0.010468469822080806
0.01047590482630767
0.010466537632746622
0.010438849335769192
0.010422760632354765
0.0104119402251672
0.01039002486737445
0.010374396075494587
0.010369117298396305
0.01036201968905516
0.01036154096131213
0.010367016361560672
0.010362161955563352
0.010359317963011563
0.010385481651173905
0.010430686386534944
0.010457384423352778
0.010460580862127245
0.01047772129648365
0.010522632458014413
0.010563937795814127
0.010577015931485221
0.010562553112395108
0.01053362178732641
0.010512923755450175
0.010509521005442366
0.010498402500525117
0.010466420011362061
0.010446897363290191
0.010456958052236587
0.010472966233501212
0.010484701021341606
0.010490513894474134
0.01048681504209526
0.010506944704102352
0.010538546815514565
0.01062001141370274
0.010677769635803998
0.01067065265844576
0.010640397890238091
0.010605365847004578
0.010557879951084032
0.010510524375131353
0.010486754945013672
0.010488620528485626
0.01049450070830062
0.010478850421495736
0.010431059616385028
0.010359016677830369
0.010281326075783
0.01023848908022046
0.010250331207644195
0.010326311202952639
0.010414000854361803
0.01045664343284443
0.01044822790659964
0.010427237345138564
0.010423110330011696
0.010437256067525595
0.010455381778301671
0.01046252335770987
0.010459676039172337
0.010447964938357472
0.010416736078914255
0.010368254171917215
0.010315526007907465
0.010266020533163101
0.010234658524859696
0.010231359826866538
0.010239304912975058
0.010245639128843322
0.010262888871366158
0.010299924447899685
0.010345087095629424
0.010388049508910625
0.010421345464419574
0.010421352711273358
0.010393315715482458
0.010401513046817855
0.01045330890105106
0.010491872811689973
0.010459090307122096
0.010429392165970058
0.010463647921569645
0.010506351006915793
0.010496524154441432
0.010463773481315003
0.010461118230596185
0.010494276710087434
0.010536879770224914
0.010568596333032474
0.010587486085714772
0.010591199294431135
0.010571101839886979
0.01054877118440345
0.010568065064726398
0.010615293651353568
0.010622242206009104
0.010570792151847854
0.010517528228228911
0.010510966192232445
0.010531095610931516
0.010525406542001292
0.010479625714942813
0.010409791559213772
0.010333588577341289
0.010290024757850916
0.01030669670784846
0.010341087324777619
0.010329343635821714
0.01027829185128212
0.010255476457532496
0.010294579738983884
0.01032666145125404
0.010371153248706832
0.010418476610211655
0.010477749633137136
0.010528455304447562
0.010541555834934116
0.010536737170768902
0.01054361645365134
0.010540113453753292
0.010495644350303337
0.010433705119648948
0.010400775099406019
0.010397639173315838
0.010376811141613871
0.010310485104564577
0.010232272859429941
0.010197550907032565
0.010220897269900888
0.01025422373553738
0.010241804503602908
0.010204519566614181
0.010213301620678976
0.010282607080880553
0.010364360612584278
0.010432812290964648
0.010495559647679328
0.010540758317802101
0.010552441070321947
0.010544986838940531
0.010533876504050568
0.010511350418673827
0.010459119079168886
0.010405684737488628
0.010389895957196131
0.010345661210594699
0.010359457961749285
0.01042419858975336
0.010486089189071209
0.010548416551901028
0.01063986862776801
0.010763045158237219
0.01089198221336119
0.01099673390504904
0.011069501171587035
0.011123092119814828
0.011162820003228262
0.011154175912961363
0.011168404634809122
0.01124146661371924
0.011264173013623804
0.01132072764565237
0.011467783610569313
0.011625368014210834
0.011687149718636648
0.01164753652177751
0.01180389099754393
0.011997533162357285
0.012098675040761009
0.012130982127273456
0.012127697766991331
0.012119196826824918
0.01225882300757803
0.012435749475844204
0.012496037848759443
0.012469369288301096
0.012532757098088041
0.01256222416413948
0.012544137175427749
0.01257213510107249
0.012675587327685207
0.012737419061595574
0.012668154996354132
0.01268002975732088
0.012752244119765237
0.012895305287092923
0.013095046741655096
0.013272534520365298
0.013407733837375417
0.013580593419028446
0.013872608148958535
0.0143029540264979
0.014814985176781193
0.015293313980801032
0.015633660617750136
0.01582168333930895
0.015906898747198285
0.015909007882000878
0.01627379538840614
0.016921769983600825
0.01750569466035813
0.017813319120323287
0.017972080745967105
0.01814228447386995
0.018264036810724065
0.01825751014635898
0.01840333631611429
0.01859645755495876
0.018802106258226557
0.019058288466185333
0.019376411747653036
0.019697598749771714
0.019927332422230392
0.019981668471591548
0.019965536374365912
0.020056634553475304
0.020104776818770917
0.020059431738918648
0.019990951656363904
0.02001401283661835
0.020243712582159786
0.020632029275875537
0.020934585221111773
0.020915222452022136
0.02123579379869625
0.021832290734164417
0.02246789666940458
0.022832212536595762
0.022765853222226726
0.023112281619105488
0.023591600431827828
0.024070652265800165
0.02457399006932974
0.025012963566696272
0.025143949140328914
0.025225379613693803
0.02553991674561985
0.025725734691368417
0.02571410786709748
0.02575495347031392
0.025955739909550177
0.026189822325250134
0.02635054285055958
0.02638616272364743
0.026399316929746418
0.02650108771282248
0.02646593559766188
0.02671973339514807
0.027098343804245816
0.027375713963992895
0.027524676391622052
0.027677872515050696
0.027861771724419667
0.027953949987422674
0.02793028238462284
0.027892638526391237
0.02795365948579274
0.02808257947792299
0.02820946052321233
0.028368716046679766
0.028572364419233054
0.028731045358581467
0.028776066333521158
0.02876283898134716
0.028787402507150547
0.028806511040311306
0.02882128592929803
0.028828977599041537
0.028794487287523225
0.02880252108327113
0.028764352472499012
0.028784242975525558
0.028771047767950222
0.028716280839871614
0.028679723961977287
0.028628388927318157
0.028673252797452732
0.028743700382765382
0.02873065400752239
0.02876530978945084
0.028863245212705807
0.028940103736240418
0.02899265936925076
0.029053608576068656
0.029132860208628698
0.029209139471640812
0.02924849707982503
0.029265142244985328
0.029314646701095626
0.029378349956823514
0.029386309967376293
0.02937977618537843
0.029399251614231615
0.029463840266689658
0.029610424442216753
0.029748819943051785
0.029777237827656792
0.0300750632036943
0.030404270326253025
0.030617796345613898
0.030761631252244116
0.030902305161580445
0.031002212112070993
0.031008332872297616
0.031000144993886352
0.03098692573723383
0.031066645904211328
0.03118341286550276
0.031257135074120014
0.031312873107381164
0.03142791174701415
0.03156416422571055
0.03161086943000555
0.031594371255487204
0.03162232477334328
0.03162169984192587
0.03170176165527664
0.03203984625288285
0.03248870830517262
0.03291998614557087
0.033128997546155003
0.03329300333047286
0.03362876954954117
0.03387902155169286
0.03406884834636003
0.03430536301340908
0.03449725503101945
0.03453204698977061
0.034504859814187515
0.03454062205157243
0.034590113642625514
0.03455732627655379
0.0345258547377307
0.03447392835631035
0.03439206611714326
0.03429913404514082
0.03421877140179277
0.034139454294927415
0.03410004767356441
0.03409842697554268
0.03415894087171182
0.034250973208108916
0.03435295582283288
0.03441502951434813
0.034400014203274626
0.03439787843264639
0.03434341675369069
0.034280492758844046
0.03422878759563901
0.034112575765466314
0.034056237580953164
0.03408311842242256
0.03414235909585841
0.03421078201965429
0.03431564515340142
0.034447889846051113
0.03454982394468971
0.03463215816998854
0.0346389747003559
0.03453617267776281
0.03452825880376622
0.034466676347656176
0.03434139538090676
0.03417986020096578
0.03403912367997691
0.03402376619516872
0.0339130337187089
0.03378472981275991
0.03365527269663289
0.033646216959459706
0.03374611937440932
0.033703181142918766
0.03375766232493334
0.03392551245633513
0.034106181996176016
0.034226146219298245
0.0342189800250344
0.034214085490675644
0.034227471728809175
0.0343300318706315
0.034583913414971905
0.03490913879824802
0.03507442816044204
0.035301653208443896
0.03595401374506764
0.03685648450744338
0.03774543850449845
0.03830774080823176
0.03830632508615963
0.038338432969758286
0.03840828835614957
0.038347560605034234
0.0381904493260663
0.038062207469483834
0.038045239007333295
0.03807634271099232
0.03802967814495787
0.0380619911220856
0.037726597018772734
0.03713426510221325
0.03668191143777221
0.03639634011313319
0.03621447350247763
0.0360181948589161
0.035860398440854625
0.03585281405830756
0.03573702922905795
0.035624414501944555
0.03551156528643332
0.035331770032644275
0.03505764102912508
0.03471887723659165
0.03442435384960845
0.034333567878929896
0.034385131348390136
0.034380643455078824
0.034445172294508664
0.034615566530264916
0.03479021691367962
0.03481857311329804
0.03460787127143703
0.034256915701553224
0.033982586574275046
0.03398359444923699
0.03365922958822921
0.033113924654899166
0.03249753572046757
0.032053177844500166
0.03212264176923782
0.03179919460904784
0.031326830472098666
0.03089448560262099
0.030479448785772547
0.030032294301781802
0.029895065575838087
0.02985919872764498
0.02962549772928469
0.029597023318056016
0.029840471248608082
0.030043559955665843
0.03001597181893885
0.02980229553184472
0.029681202727369963
0.02976644266396761
0.029900268868077548
0.029953230090904982
0.030166362479794772
0.030116376689402386
0.029906691776122898
0.029722784165060148
0.029603174939984454
0.0294882119668182
0.029378988451790065
0.02928988771047443
0.029451328438008205
0.029778256786521524
0.030004422463243828
0.03014529709238559
0.030326872423756868
0.03052383180242032
0.030701132867252453
0.030883764014579356
0.031068961068522184
0.031276184098096564
0.031574932950316
0.031955379559658464
0.03212324127089232
0.032127890459960326
0.032335908458335325
0.032436670711031186
0.03256691955262795
0.03278822021558881
0.03322783716605045
0.03368447245913558
0.03376585847814567
0.0339684818754904
0.033963450158480554
0.03406550508458167
0.03421865829266608
0.034269219847628846
0.03446947870659642
0.034660950559191404
0.03479276174795814
0.03487121043843217
0.03489591426565312
0.03485690443427302
0.034752108030952515
0.034726398697821424
0.03471683999639936
0.03474278627429157
0.03486159334075637
0.034950676895678046
0.03495944156311452
0.0351239422603976
0.03533615029416978
0.035622863486642016
0.036082564855460075
0.036291098068468274
0.036377230492653324
0.03644966323394328
0.03652483774814755
0.036552862708922475
0.036475575111107904
0.036646158519433814
0.03704285616171546
0.03744612728711218
0.03755225364584476
0.03741599491797388
0.0373366594419349
0.03730833643930964
0.03719038359238766
0.03701224849559367
0.03693703991128132
0.03696115230792202
0.0369645603292156
0.03706919011077844
0.03721623728517443
0.03714232514728792
0.036842848941450936
0.036423203604063016
0.03624128538649529
0.03623363664606586
0.03606330508482643
0.035829638617578895
0.03566757749067619
0.03545884905615822
0.03523932380368933
0.03518471905263141
0.035371227129362526
0.03576332789263688
0.036328972042538224
0.03697132364031859
0.037487420092802495
0.03784344690153375
0.037880974345607686
0.03832407723646611
0.039118553751613945
0.039926150364335625
0.040498188028577714
0.040687327161431315
0.04076420387253165
0.04096292071277276
0.0411155582498759
0.04130862339166924
0.041571491279173645
0.04171469391789287
0.04183935667504556
0.042115345527417955
0.04226989616290666
0.04230520353303291
0.042371890521608294
0.042207100898958745
0.042115585887804625
0.04193408108432777
0.04204698161105625
0.04215056520304643
0.04201169885578565
0.04193488486926071
0.042044032817939295
0.04238069529063068
0.042726413342170415
0.043049719174159694
0.04309053534525446
0.043282621913822365
0.04361962968250736
0.043731566212372855
0.043768632650608194
0.04430309795541689
0.04536104878527112
0.046082855621352795
0.046083942404948175
0.046132919092196974
0.046095401513157414
0.04618311405531131
0.046248276876285674
0.04616446351399645
0.04623384010628797
0.046632977303816006
0.047439276470104236
0.04821134266327135
0.04849406785564497
0.04838983949157409
0.048295477613573896
0.04807403597515077
0.04735295944148674
0.04647352419910021
0.045972260971320796
0.04629024619120173
0.047455944468965755
0.048235879003768786
0.048173073139041664
0.04797027195687406
0.04839964027400129
0.04948030383326113
0.050964912329800424
0.05245866119279526
0.05363080425770022
0.054165128868771714
0.05420045455452055
0.05438602925743908
0.054811341563472525
0.05532148852013052
0.05544424977037124
0.05566291325143538
0.05606132774497383
0.0565891359874513
0.057249223907710985
0.05770280146622099
0.05764301173971034
0.057866806688252836
0.0582469563675113
0.058596090165665374
0.058996688782935965
0.05960472937324084
0.060529851090395825
0.06180619571940042
0.06323052290128545
0.06434474627487362
0.0648711465660017
0.06501552166650072
0.0651044991821982
0.06522940442431718
0.06537738659302704
0.06552270276821219
0.06558567592408508
0.06553224124014377
0.06548561292816885
0.06551267263130285
0.06545101480325684
0.06544029802200385
0.06538644305546767
0.06545090944855474
0.06549781344248913
0.06552085901261308
0.06543834783486091
0.06529556147404947
0.06520143727539107
0.06512190409936011
0.06498488576966338
0.06479210021905601
0.0646316207118798
0.06461639728513546
0.06458508990821428
0.06445858680526725
0.06425748470355756
0.06414404510869645
0.06405248400289565
0.06390306590707041
0.06373315575183369
0.06363457215484232
0.06354482696275227
0.06344379187212326
0.06335712412488646
0.06330607680836692
0.0633073604980018
0.06320643232436851
0.06295098969363608
0.06265706665813923
0.06231730418396182
0.06202880105818622
0.06166905383346602
0.06137518097646535
0.06124159514904022
0.0610852487932425
0.06076580947148614
0.06035418014624156
0.06016466819564812
0.060121145978337155
0.05994512425852008
0.05990908759413287
0.059887119592167436
0.05969170197378844
0.05928944097366184
0.05886865217937157
0.058752865814603865
0.05858717922470533
0.05858546683797613
0.05842703645583242
0.058240545708686114
0.05814782241010107
0.057863008328713474
0.057574384341714906
0.05734099734807387
0.05718479126924649
0.0571073491172865
0.05708803739165887
0.05719723842456006
0.057416917689843104
0.05776757164974697
0.05804684443632141
0.058074122346006334
