0.011412130552344024
0.011440502884797752
0.011365595494862647
0.011264192522503436
0.011170320755336433
0.011067481625359506
0.01096651288913563
0.010915667410008609
0.01092924087541178
0.010960706057958305
0.01098340661264956
0.011023772282060236
0.011081294363830239
0.011115749489981681
0.011104995473288
0.011051102487836034
0.010979440186638385
0.010928737241774797
0.01091115792747587
0.010911771312821656
0.010916039077565075
0.01091469096718356
0.010894260141067208
0.010850018234923481
0.010806502888444812
0.010791670745238662
0.010802010660991073
0.010817806413397192
0.010825712103396654
0.010825689572375268
0.010841642948798835
0.01087733500637114
0.010892095554154366
0.010902897086925805
0.01093218354973942
0.01091553338104859
0.010842129765078425
0.010693283516447992
0.010616327645257115
0.010646945221815259
0.01065272257430479
0.010603877347894013
0.010583572660107166
0.010604203550610692
0.010607136401813478
0.010594736407510937
0.010601178065408022
0.010610945185180753
0.010604891376569867
0.010610591052100063
0.010656713102944195
0.010708368972409517
0.010702627522405236
0.010655739710200578
0.010632571005262435
0.010646395683288574
0.010620877475012093
0.010535630772355944
0.010482332620304078
0.010504576279781758
0.01059979559155181
0.010697239052969962
0.010733608545269818
0.010732159288600086
0.010748393069952726
0.010795032379683107
0.01083429146092385
0.010819488898850977
0.010753146493807436
0.01069479112746194
0.01069450702285394
0.010698229591362178
0.010661287882830947
0.010645240205340087
0.010738332842011004
0.010818981186021119
0.010854899934493005
0.01079730095807463
0.010746628423221409
0.010716089594643563
0.010658244439400732
0.010549523115623743
0.01042663429863751
0.010371844607871026
0.01041736642131582
0.010495792457368225
0.010549685680307447
0.010593752132263035
0.010620313538238406
0.010587310828268527
0.010510915729682893
0.010441540300380438
0.01040234396001324
0.01040539974346757
0.010434598790016025
0.010449310117401182
0.01045651852618903
0.010498499379027635
0.010573458154685795
0.010616622033994645
0.010575430479366332
0.010498303035274149
0.010476981468964369
0.01051771325059235
0.0105626299418509
0.010590736151207238
0.010616691866889596
0.010636085940059275
0.010633028310257942
0.01062058050883934
0.01062071650288999
0.010612973792012781
0.010571687705814839
0.010531222983263432
0.010535901682451367
0.010580174669157713
0.010642156191170215
0.01069593463325873
0.01070706448983401
0.010679710099939257
0.010646547263022513
0.010616415867116303
0.010596836940385402
0.010589445414952934
0.010555118846241385
0.010481956771109253
0.010424521467648447
0.010421027895063162
0.010441027614288032
0.010426469796802848
0.010367240719497205
0.010312763275578618
0.010290631086099893
0.010277063867542893
0.010271946964785457
0.01033030399819836
0.010438557835295797
0.01059085673186928
0.010696927574463189
0.010692560474853962
0.010646492387168109
0.010595022223424167
0.010519341004546733
0.010433422620408236
0.010371026056818665
0.010333479233086109
0.010316993840970099
0.010320290869567544
0.010328645834233612
0.010333382417447865
0.01032508649630472
0.010295893060974776
0.01028697907924652
0.010351465938147158
0.010464245600160212
0.010518004903569817
0.010549700916744769
0.010598997550550849
0.01063199192751199
0.010637025542091578
0.010608023731037974
0.01054395237006247
0.010457563202362508
0.010366011944133788
0.010275223669596016
0.010193696080241352
0.010140756452456117
0.010129956919699907
0.010164225832559168
0.010238316552713513
0.010328143767546863
0.010419965290930122
0.01051776110427454
0.010585492374375463
0.010583661240525543
0.010551067618653178
0.010555495945736766
0.010587163120508194
0.010570697532966734
0.010491018434986472
0.010427034646272659
0.01044557688990608
0.01052729204762727
0.010588625140953808
0.01057485957397148
0.010526776651386172
0.010487345338333398
0.010429441558662801
0.01036977659445256
0.010378699549473822
0.010435601924546062
0.010470717020798475
0.010491062765941023
0.010520502098370344
0.010531751660164446
0.010505135371349752
0.010470551738981157
0.01046119194244966
0.010453167771920562
0.010417014432605357
0.0103960688598454
0.010425294865854084
0.010447992372792213
0.010393854884896428
0.010272012760397046
0.010160335348919034
0.010122650014236569
0.010148315916303545
0.010178871997632087
0.010174928426276892
0.010139669689815492
0.010101927183568478
0.01009566873544827
0.010129428394138813
0.010177896157838404
0.010204173154197633
0.010188839200418442
0.010167951656039804
0.010190958369057625
0.01023212150670588
0.01023846356663853
0.010214270669966935
0.010182920491788537
0.010155409302096814
0.010157271162606776
0.010197499652858823
0.010235559730790555
0.01024686157470569
0.010270991867873818
0.010331550585106016
0.01037465006345883
0.010364869283512235
0.010356075710151345
0.010395748724695295
0.010452142171561717
0.010475678266957403
0.010459732154849917
0.010433803687337786
0.010437920219264924
0.010480013466440142
0.010516082767862827
0.010521306891459971
0.010541082110721618
0.010609016148373484
0.010676344123203308
0.010687828711234033
0.010666178888641298
0.010655628887470812
0.010619478449225426
0.0105011363979429
0.01038664038758725
0.010413376709911971
0.010519068497233093
0.010541910082101822
0.010506388302892446
0.010538976364769042
0.010630073363427073
0.010688495328649879
0.010668707841541619
0.010562291375827045
0.01042768026702106
0.010371039661113173
0.010404020233545452
0.010448838556185365
0.010462136482819915
0.010450636411551386
0.010422191098332406
0.010386293535120786
0.01037562915822491
0.010402348812203855
0.01043231810675934
0.01044614722020924
0.010460279453545808
0.01047834311146289
0.010478487506043166
0.010443093245849014
0.010355765311978758
0.010233743768185376
0.01013866462977603
0.01013421697774902
0.01018941962858662
0.010275139114819467
0.010385565455071627
0.010484818348195403
0.01052884063217789
0.010504749931860714
0.010434488144237548
0.010349595095030964
0.010285094911232591
0.010199033990502357
0.010174253184814006
0.010208797948434949
0.010235613125842065
0.010215277215465904
0.010194889055565
0.010239569856785237
0.010322878768201918
0.010359513883013278
0.01034202033886686
0.010339661506004632
0.010366910707671196
0.010360434639733285
0.010290969682391732
0.010216964057181031
0.010212405391503126
0.010283042364753782
0.010358433520887047
0.010371988674160093
0.010350786990020424
0.010363434918690472
0.010406233596149832
0.01043288229731843
0.010435666956473142
0.010431014872156084
0.01042371187126264
0.010414423155598342
0.01040314592421055
0.010380491700489073
0.01034430175088346
0.010312861332204193
0.010307313436642289
0.010334115338046103
0.010379591714590788
0.010410237929318101
0.010401516023557633
0.01037609868682921
0.010364104169420898
0.010340497225988655
0.010283637666143477
0.010247238997835665
0.010274670862127095
0.010310509013943375
0.010295350332744419
0.010270105490926653
0.010290972702205182
0.010323612708598376
0.010318121968302875
0.010301908706314861
0.010303577850572765
0.010289664389565587
0.010256551199126988
0.010244772890582681
0.010231382010970265
0.010169308341573924
0.010092908549122512
0.010058067287318409
0.010057664739433677
0.010066055543720722
0.010106586606707425
0.010203674838412552
0.010291921163443477
0.010284808464348316
0.010212277611717582
0.01017044231062755
0.010172921097837389
0.010162616935558618
0.010136304977349938
0.010149466812144965
0.0102226389804855
0.010313437676522881
0.010353478286415339
0.010317876415792853
0.010257381375413387
0.010221113418228924
0.010206943391822279
0.010207653327379376
0.010234362790361046
0.01027844508178532
0.010301544775720685
0.010291574301663785
0.010275622005574405
0.01026798456441611
0.010255649723112582
0.010234559949021787
0.010228585202712566
0.010260965353809296
0.010336028442252428
0.010430880626663565
0.010520005840808153
0.010564468470402062
0.01056028767488897
0.010495925799477845
0.010380650912411511
0.010270517924800516
0.010216629123315215
0.010231523041147739
0.010299144180025905
0.01039561536628753
0.01047595735406503
0.01056808102177456
0.010593754795845598
0.010562384135555476
0.010544379893690347
0.010587989159394056
0.010645664990879595
0.010637017297558487
0.010581042929552496
0.010570140420459211
0.01062574481125921
0.01068081113975495
0.010685475671198218
0.010663332093972713
0.010661139513831585
0.010678180865943432
0.010666655695531517
0.01059306156821549
0.010491312285885214
0.010432368747424335
0.01043215296464041
0.010441242046654224
0.01042911124881357
0.010417786363977938
0.010431598634459078
0.010460231062024832
0.01048973940545693
0.010531818063464015
0.010593139538541437
0.010639460971578956
0.010626116241328419
0.010568411692511291
0.010524002793245018
0.010516879234928637
0.010535743136424571
0.010567192144226283
0.010603649320546537
0.010634484232869
0.01065496281720698
0.010678392732515932
0.010693638490047307
0.010671777322422714
0.010641238542739302
0.01066049468703568
0.01073613325599581
0.010828607184812426
0.010898914376739413
0.010931914751417936
0.010939945648424328
0.010939180608838797
0.01093257389497012
0.010927466358989477
0.010924295003060252
0.010904997778125107
0.01087705344427377
0.010871634462382644
0.010888572968542575
0.01090454762103036
0.010907670112792402
0.010897932418156415
0.010891963057219982
0.010905268092174084
0.010922100848983974
0.010930257712025195
0.010953309265896678
0.011004750509746372
0.011062132648658008
0.01110545485978946
0.01111086510354653
0.011050018980167806
0.01097632777877152
0.010986541491001844
0.011062478686217219
0.011098047259729356
0.011039004269987345
0.010921691716648639
0.010805464417207986
0.010772759600076825
0.010809178457129746
0.010841863341629504
0.010848912254441529
0.01086611459031701
0.01091761607909575
0.010982594871893524
0.01102730313083157
0.011055957623757422
0.011083921946119518
0.011101412074640393
0.01111477064434439
0.011142557165585458
0.01116160348057747
0.011132191533688456
0.011056526671163738
0.010972571226302534
0.010908251008950175
0.010866107840556652
0.010835953019559384
0.010813416563905776
0.01081402152776718
0.010840016626752913
0.010853272806853055
0.010828136247582734
0.01080624976195395
0.010843570185825229
0.010908539430238307
0.010928708910942077
0.010914213242940604
0.010912283840589225
0.010904565278906375
0.01084581449860707
0.010752569406758995
0.010697569933254271
0.01071419228799641
0.010746697937138379
0.010733487585093826
0.010690860075410456
0.010669336318969727
0.010685862821992487
0.010732236886397004
0.010794067846145481
0.010848154406994581
0.010882830149494111
0.010905852857977152
0.010908608520403505
0.010877657129894943
0.010848375838249921
0.01086083719274029
0.010892260812688619
0.010905093264300376
0.010905159607063978
0.010919642616063357
0.010945798095781356
0.010942713352851569
0.010880539386998862
0.010789228391367943
0.01073881276883185
0.010742919358890504
0.010738402826245875
0.010697350359987468
0.010659897648729384
0.01065493592293933
0.010682613085955382
0.010739765476901085
0.010797650376334787
0.01079684668686241
0.010709821167401969
0.010587849412113428
0.010520413457415998
0.010532341548241675
0.010551902540028095
0.010535012206528336
0.010533227222040295
0.010564877518918365
0.010572501129936428
0.010546181986574083
0.010517104298342019
0.010483334290329367
0.010451455991715193
0.010435063024051488
0.010412954215425999
0.010385514269582927
0.01040089105721563
0.010469299335964024
0.010540285727474839
0.01058859120355919
0.010627026208676399
0.01064315646653995
0.010617974605411291
0.01057699670549482
0.01052675669780001
0.01047178531298414
0.0104186897771433
0.01032067604828626
0.01034977701259777
0.010443300262559206
0.010537519489880652
0.010633495615329593
0.01069323518546298
0.01070728917606175
0.010705787728074938
0.010707828302402049
0.010695872344076634
0.010653577686753124
0.010595087190158664
0.010535887135192752
0.010474314177408815
0.010426892442628741
0.010418026016559452
0.010436349192168563
0.010458119180984795
0.010474848865997047
0.010488854239229113
0.010513635885436088
0.010560833753552289
0.010625990480184555
0.010689295425545425
0.010725487899035215
0.010722647241782396
0.010699671243783087
0.010698270497377961
0.010732436007820069
0.010767850063275545
0.010775518014561385
0.010757877854630352
0.010717034523840993
0.010648086641449481
0.010568520308006556
0.010519636732060461
0.010534415335860104
0.010619522545021028
0.010738660420756788
0.01083064145874232
0.010879006388131529
0.010908652376383544
0.010926471722777933
0.010924579554703086
0.010910953739657997
0.01090169174131006
0.010893812766298652
0.010867524270433932
0.010817033294588328
0.010758972784969956
0.010705279163084924
0.010659704965073616
0.010645453091710807
0.010679723932407797
0.010725260071922094
0.010720489316154271
0.010663861588109285
0.010630521245766432
0.010668871011584997
0.010739220730029047
0.010792531361803413
0.010825537478085607
0.01083226093556732
0.01079146825708449
0.010740277583245188
0.010745105659589171
0.010771583681926131
0.01074237103573978
0.010690866927616298
0.010688469063024968
0.010715490882284939
0.010726913011167198
0.010736916856840252
0.010781845771707594
0.010850912258028984
0.010876109327655285
0.010830331805627792
0.01078786278842017
0.01078892181860283
0.010763247460126878
0.010705948371905834
0.010727267693728209
0.010832724382635207
0.010895006915088743
0.010863211075775325
0.010803493936546147
0.010777318498585374
0.010782347079366445
0.010776026283856481
0.010734744069632143
0.010689108774531633
0.01066778223030269
0.010637644107919186
0.010572494394145905
0.010513942374382168
0.010495778953190893
0.010508024340961129
0.010559207275509835
0.010604926159139723
0.010609032877255231
0.010671728996094317
0.010665878525469453
0.010648187466431409
0.010663342387415469
0.01067673770012334
0.010641327726189047
0.010583134246990084
0.010539196215104312
0.010492699458263815
0.010437083898577839
0.010409803579095751
0.010424858601763844
0.010453424269799142
0.01047280796105042
0.01048307424876839
0.010495464806444943
0.010519145021680743
0.010541982240974903
0.010537805720232427
0.010509915659204125
0.010495779996272176
0.010495057944208384
0.010457619754597546
0.010384316325653344
0.010346765753347427
0.01037361849565059
0.010398397932294755
0.010356540787033736
0.01027541602961719
0.010226774807088078
0.010229682209901511
0.010240301345475019
0.010237561089452356
0.010264728928450494
0.010348215522244573
0.010441782367415726
0.010481967530213297
0.0104536796011962
0.010394156526308507
0.010336872451007366
0.010274299224838614
0.010204641604796052
0.010173231766093522
0.010217233730945735
0.010294147436507046
0.01032459741923958
0.010286039884667843
0.010227038117591292
0.010211134140845388
0.010246731874067336
0.0102975835185498
0.010345257276203484
0.01036815189057961
0.01034431624924764
0.01032401189673692
0.010367234235163779
0.01042149649001658
0.010398754391353578
0.01031596481334418
0.01024118925910443
0.010190510540269315
0.010162806834559888
0.010174050612840801
0.010201553204096854
0.010184134549926966
0.010129448759835213
0.010125355126801879
0.010198963803704829
0.010279287877492606
0.010303235149476677
0.010262804944068194
0.01018943065078929
0.010133897729683667
0.010116575486026704
0.010124479241203516
0.010153346797451376
0.010183580366428942
0.010182111947797239
0.010163860614411532
0.010170839508064092
0.010199778801761568
0.010200415351428092
0.01015091058332473
0.010099743942264467
0.010094517823308707
0.010123966080136597
0.010171163468621671
0.010241696382872761
0.01031727490015328
0.010361176701262593
0.010361342644318938
0.01033456889213994
0.010316472579725088
0.01033038274385035
0.010358069350477308
0.010370584139600396
0.010367738336790354
0.010373669047839939
0.010410288167186081
0.010471732635051013
0.010532339569181204
0.010575219884049147
0.010575496894307434
0.010511741845402867
0.010431896802037955
0.010394876501522958
0.01037277487339452
0.010329923613462598
0.010300356175284832
0.010303008651826531
0.010292891815770417
0.01025270729791373
0.010238523427397013
0.010282114360015839
0.010335193618666381
0.010345597071573138
0.01031107251998037
0.010267307676840573
0.010257283956743777
0.0102696807612665
0.01023815386928618
0.010153923996258528
0.01009979853639379
0.010116232263389974
0.010138184402603657
0.01011934459907934
0.01010593649931252
0.010146893442142755
0.010223238542675973
0.0102883595880121
0.010328752670902759
0.010372460479848087
0.010440894460771233
0.010512660357635468
0.010566422967240214
0.010613510611001402
0.010651143556460739
0.01065191940171644
0.010621483933646233
0.010593553727958352
0.010581368308048695
0.01059567834949121
0.01064061011420563
0.010673613555263728
0.010662951273843646
0.010647443460766227
0.010676196017302573
0.010735396472737193
0.010772509456146509
0.010773330028168857
0.010773778015282004
0.01080635687103495
0.01085470533464104
0.010841657991986721
0.010711424630135297
0.010541697873268276
0.010467553578782826
0.010503320733550935
0.010549016990698873
0.010537293110974132
0.010497054355219006
0.010487103806808592
0.010520912723150104
0.010571399929467588
0.010603891860228032
0.010597490372601897
0.01056828192435205
0.010558301953133196
0.010573987616226077
0.010571576391812413
0.010537068457342685
0.010516298066359014
0.010521908923983574
0.010500155256595462
0.010434539301786571
0.010377665997948498
0.01034965788712725
0.010304251697380095
0.010223551888484507
0.010167798262555152
0.010187625756952912
0.01024404841242358
0.010265739155001938
0.01025515218032524
0.010284360649529844
0.010370482173748315
0.010430755012203008
0.010415819967165589
0.010378356098663062
0.010365259060636163
0.010370748422574252
0.01038900803308934
0.01040453625144437
0.010387540778610855
0.0103460605093278
0.010315078892745078
0.01031195615651086
0.010326308291405439
0.010316984453238547
0.010247647401411087
0.010130398564506322
0.010016856521833688
0.009966307745780795
0.009991160151548684
0.01004239997593686
0.010079405370634049
0.010103058943059295
0.010135208400897681
0.010196851114742458
0.010271758981980383
0.010321186820510775
0.010333509794436395
0.010307327443733812
0.010241807212587446
0.010177515535615385
0.010163733195513487
0.01018196904566139
0.010180501707363874
0.010157199713867159
0.010153535085264594
0.010205335319042205
0.01031200360506773
0.01042130332905799
0.010482100415974855
0.010510666815098374
0.01053412253735587
0.010531698951963335
0.010494016373995692
0.010461552389897407
0.01046223239507526
0.010446003100369125
0.010343489891383797
0.010190502856858075
0.010095022381283342
0.010074858653824776
0.010052278216462582
0.010015465000178666
0.010028791043441742
0.010083021908067168
0.010110493176616728
0.010106009098235518
0.010103035301435739
0.010113385196309537
0.010133467924315482
0.010151307235937566
0.010156676373444497
0.01014742725295946
0.010117215148638933
0.010074469021055847
0.010054414479527622
0.010055939441081137
0.010026311974506825
0.009965274035930633
0.009959128401242197
0.010034983318764717
0.01008641798282042
0.01005420376546681
0.010022138238418847
0.010046979051548988
0.010085119483992457
0.010097139864228666
0.010079887290485203
0.010038154853973538
0.010003310106694698
0.010023749931715429
0.01008975276723504
0.01013119931332767
0.010108082252554596
0.010055870679207147
0.010042759394273161
0.01008070640731603
0.010105149406008422
0.010085119910072535
0.01007655224762857
0.0101038184389472
0.01010627604322508
0.010070919215213508
0.010075743275228888
0.010149585090111941
0.010215599292423575
0.010200886714737862
0.0101367416116409
0.01011918721254915
0.010164235711563378
0.01018028416670859
0.010132771278731524
0.01009414944332093
0.01008920846041292
0.010062021650373936
0.009998214899096637
0.009938926305621862
0.009908548195380718
0.009907178874127566
0.009930285974405706
0.009977645424660295
0.010040497812442482
0.010078832344152033
0.010085159062873572
0.010117869889363647
0.010187404006719589
0.010240949767176061
0.010278436010703445
0.010338139946106821
0.010407502949237823
0.010441288580186664
0.010435251530725508
0.01043438519584015
0.010452793021686375
0.010446391084697098
0.010413127792999148
0.01041203471366316
0.01045456834603101
0.010499471838120372
0.01053743283264339
0.010567006159108131
0.010545746455900371
0.010469225842971355
0.010411399770528079
0.010423997617326677
0.010465238159522414
0.010456425619777292
0.010394007733557373
0.010349036678671836
0.01033967779483646
0.010320225991308688
0.010297349989414215
0.01031895186053589
0.010374891459941865
0.010415129109751432
0.01042564155999571
0.010423694816417993
0.010427223655860872
0.010452641795855016
0.010489307220559567
0.010498380269855261
0.010467021968215704
0.01040228602476418
0.010312282477971167
0.01024702590657398
0.010252798264846206
0.010297491454984993
0.010325088289100677
0.010321122754830866
0.010308923253323882
0.010322002260945738
0.010362501295749098
0.010395002160221338
0.01039962423266843
0.010396741374861448
0.010394866592250765
0.010383005195762962
0.010385444299317896
0.010419018866959959
0.010443346358370036
0.01044080561492592
0.010442438938189297
0.010444429088383913
0.010422381493262946
0.010410805093124509
0.010453985461499542
0.010524373676162213
0.010572959315031766
0.010602072649635374
0.010630598147399724
0.010635000159963966
0.010587950306944548
0.010526595341507345
0.010512270918115973
0.010541388008277863
0.010561401636805386
0.010565208753105253
0.01058948429301381
0.01063392544630915
0.010669909850694239
0.010683942390605806
0.010675459906924516
0.010662707930896432
0.010666604738216847
0.010680213114246726
0.010687688903417439
0.01068833802593872
0.01068158172769472
0.010652650380507112
0.01059968953486532
0.01055239786626771
0.010534366210922599
0.010541505108121782
0.010581768720876426
0.010685008966829628
0.010822808255907148
0.010896382294595242
0.010874762940220535
0.010834715943783522
0.010827088537625968
0.010826042145490647
0.010814368398860097
0.010804294338449837
0.010786371624562889
0.01076171505264938
0.010770785002969206
0.010804227478802204
0.010789426038973033
0.010710723761003465
0.010625709015876054
0.010567755759693683
0.010522530390881002
0.01047202232759446
0.01041791173396632
0.010381080601364374
0.010367756297346204
0.010348551399074495
0.010319151692092418
0.01032184600364417
0.010363310878165066
0.010406917829532175
0.010450166913215072
0.010517067916225642
0.010592878242023289
0.010629736322443932
0.010624093245714903
0.01064203565241769
0.010720160098280758
0.010795802779030054
0.010804048730060458
0.010771504945587367
0.010753305286634714
0.010743929913733154
0.010695867333561182
0.010595442687626928
0.01049488426418975
0.01047630215762183
0.01055636378005147
0.010634320946410298
0.01060888986568898
0.010512028518132866
0.0104593989928253
0.010508538873400539
0.010595135325565934
0.010613233000040054
0.0105522290058434
0.010484929508529604
0.010447745369747281
0.010440742133650928
0.010470817817840726
0.01050487200031057
0.010486639440059661
0.010436289804056286
0.010424542624969035
0.01045329523505643
0.010475999384652823
0.010496449822094292
0.010523477704264223
0.010521684624254703
0.010500276545062661
0.01052269250387326
0.010589024182409049
0.010627584964968264
0.01061751613393426
0.01061037222854793
0.010627390760928392
0.010640880174469203
0.010634325202554465
0.010601515599992126
0.010537037246394902
0.010475882075261324
0.010471418031957001
0.010507372466381639
0.010516108951997012
0.010491711325012148
0.010495982591528445
0.010545839595142752
0.010580062144435942
0.01055624859407544
0.010508261562790722
0.010493800838012247
0.010533087889198213
0.010613438971340657
0.010710241219494493
0.010773914069868624
0.010771820601075888
0.010744349169544875
0.010733742038719357
0.01073171416996047
0.010749225171748549
0.010806765495799482
0.010849055247381329
0.010807829042896629
0.01069835964590311
0.01056615292094648
0.01045576725853607
0.01042904038215056
0.010478460488375276
0.010507610079366713
0.010486540128476917
0.0104786895820871
0.010490592033602298
0.0104809870547615
0.010470975821372122
0.01048054948914796
0.010473125751595945
0.01045104101067409
0.010450755353085697
0.010460311858914793
0.010467194910161197
0.010492843547835947
0.01054768277099356
0.010615916212555022
0.01066081565571949
0.010662333748769015
0.010633221063762903
0.010581276575103403
0.010514210602268577
0.01046271058730781
0.010457933803554625
0.010488289659842848
0.010502524415496737
0.010479462100192904
0.010451966691762208
0.010439238732215018
0.010423344594892114
0.010390117336064576
0.010339872955810278
0.010302700952161103
0.010307073055300861
0.010297681530937552
0.010227626962587237
0.010181830148212612
0.010242189795244485
0.010348067707382143
0.010398821251001208
0.010387399836909027
0.010378212803043425
0.010402414815034717
0.010432338810060173
0.010445917744655163
0.01042992414906621
0.010376002825796603
0.010344277864787728
0.010401489734649659
0.01049782729241997
0.010546423145569861
0.010544572912622244
0.010509923226200044
0.010430311819072812
0.010345501026604325
0.010327934543602169
0.01035689263837412
0.0103495574882254
0.010300641178619117
0.010257865868043154
0.01021575618069619
0.010175014031119645
0.010190289919264614
0.010245526223443449
0.01025533837499097
0.010223556791897863
0.0102177221653983
0.010232503823935986
0.01022529564332217
0.010205597169697284
0.010189315108582377
0.010162639596965164
0.01015396814327687
0.01021079956786707
0.01028115423163399
0.01028031349880621
0.010242441652808338
0.010246062274090946
0.010270428883377463
0.010253320236224682
0.01021054561715573
0.010210260944440962
0.010269363492261619
0.010330685297958553
0.010345593958627433
0.010331347200553865
0.01031305015552789
0.010279843437019735
0.010240104240365326
0.01023460080847144
0.01028004240943119
0.010352683004457503
0.010406709539238364
0.010408860722091049
0.01037679594475776
0.010357713438570499
0.010377086782827973
0.010422082981094719
0.010446617291308939
0.010413236420135944
0.010343268420547247
0.010289626521989703
0.010281922894064337
0.01030192350037396
0.010307323609013111
0.01030447346623987
0.010329710717778653
0.010356520076747984
0.010342356336768716
0.010327352334279567
0.010366038994397968
0.01043534838128835
0.01048537636641413
0.010501184870954604
0.010498137848917394
0.01048863154835999
0.010466420277953147
0.010446217181161045
0.010460853471886366
0.010505993608385325
0.010558977269101887
0.010614207696635276
0.010647474417928605
0.010623037456534803
0.010562969478778541
0.01051878886995837
0.010489528570324182
0.010448433863930405
0.010401404320728034
0.010367363658733666
0.010363085221033543
0.010399272765498608
0.010435213886667042
0.0104295186069794
0.01043847513385117
0.010510216297116131
0.010561124470550567
0.010519806551747024
0.01045647076331079
0.010439304818864912
0.010433782897889614
0.010416077754925937
0.010418299122247844
0.010451648698654026
0.010484663441311569
0.010498367168474942
0.010522083113901317
0.010571425561793149
0.010596649809740484
0.010560443243011832
0.010516270576044918
0.010542762479744852
0.010627980604767799
0.010688059490639716
0.010682628802023829
0.010639713713899254
0.010595644118729979
0.010561480002943427
0.010527416986878962
0.0105064512277022
0.010541023833211512
0.010615827990695834
0.010659207995049656
0.010659949164837599
0.01065810178173706
0.010652467962354422
0.010638320134021342
0.0106503109424375
0.010681628054007887
0.010675065980758519
0.010639293466228992
0.010646841316483914
0.010696065297815948
0.010714511978439986
0.010689271397423
0.010662770068738609
0.010640387902967632
0.0106055528530851
0.010581501396372914
0.010588440913707017
0.010586422989144922
0.010546859193127603
0.010509503341745585
0.010502362190745771
0.010496968885418028
0.010469474638812244
0.010432472636457532
0.010418425442185252
0.010446394067257643
0.010488498311024158
0.01050383222522214
0.010501202372834086
0.010519577437080443
0.010550772992428393
0.010546436421573163
0.010501500954851507
0.010453554103150964
0.010435605125967412
0.010471224405337124
0.010544255054555833
0.010606295890174805
0.010654805833473802
0.010703832670114934
0.01071334296837449
0.01065328151686117
0.010563794234767556
0.010511867520399391
0.010537300361320376
0.010602722694166004
0.01060494632460177
0.010511571974493563
0.010419729582499712
0.010414388391654938
0.010463951327838004
0.010498696041759103
0.010516496419440954
0.010556106155272573
0.010584851317107678
0.010526901639532299
0.01042334877885878
0.010392290884628891
0.010428611997049302
0.010426178453490137
0.010369346560910344
0.010338961009401827
0.010368679603561758
0.01042081237072125
0.010466942323837429
0.010531926925759763
0.010639427369460464
0.010716184682678431
0.010665382337756456
0.010538331596180797
0.010474192828405648
0.010498088393360376
0.01051910636946559
0.010489833985920995
0.010456182481721043
0.010473715767730027
0.010543227442540229
0.010603615415748209
0.010591962134931236
0.010519024326931685
0.010440900239627808
0.010404959181323647
0.010418079334776849
0.010402163630351425
0.0102915606694296
0.010183393284678459
0.010202437418047338
0.010273111704736947
0.010236913352273405
0.010110034996178002
0.010025839328300208
0.010017462735995651
0.010036681829951703
0.010089752001222222
0.010197738027200103
0.010308644652832299
0.010356087514664977
0.010342126074247062
0.010305993659421801
0.010254913913086057
0.010186873720958828
0.010152045118156821
0.010193897853605449
0.010257331568282098
0.010265728610102087
0.010241890172474087
0.01024796224432066
0.010262836047913879
0.010226275341119617
0.010158451106399298
0.01013610851019621
0.010188815128058195
0.010268099729437381
0.01030166681157425
0.010278757698833942
0.010246701433788984
0.010231247576884926
0.010237400038167834
0.010281375998165459
0.010342486870940774
0.010355940682347863
0.0103161327005364
0.010298925226088614
0.010330705039668828
0.010346319384407252
0.010320768461097031
0.01030237000901252
0.010285741740372032
0.010214957543648779
0.010113619596231728
0.010054288741666823
0.010048667325172574
0.01007454596227035
0.010105868100654334
0.010083225269336254
0.00998461538227275
0.009898656618315727
0.009898396283388138
0.009925443441607057
0.009915165319107473
0.009905697111971676
0.009946453832089901
0.010018613731954246
0.010065579102374614
0.01005155471386388
0.010002967966720462
0.009981877501122654
0.01001487503759563
0.010069641054142266
0.010092533808201552
0.010048626530915499
0.009941027003806084
0.00983216607477516
0.009807035450357944
0.009879616915713995
0.009983711875975132
0.010053772307001054
0.010078768332023173
0.01009117892710492
0.010127724157646298
0.010184290525503457
0.01022530798567459
0.010252324671018869
0.010283720730803907
0.010287095243111253
0.010221130140125751
0.010111295362003147
0.010046884610783308
0.01008612684905529
0.0101689467090182
0.010189951867796481
0.01013606422347948
0.010089878188446165
0.010118609254714101
0.010185059676878154
0.010193349858745933
0.01012721139471978
0.010069159131962806
0.01006898608058691
0.01010738872224465
0.010175694329664111
0.01025088388705626
0.010272253372240811
0.010248865853063761
0.01025332958670333
0.010281016514636577
0.010268017170019447
0.010231507837306707
0.010246189592871815
0.010307399632874876
0.010355379688553512
0.010393089384306222
0.010445746160112322
0.010472567863762378
0.010433122331742197
0.01036089334404096
0.010307046598754824
0.010271668590139598
0.010233597590122372
0.010227601963561029
0.010291387075558305
0.010348408066201955
0.010318644030485302
0.010269129679072649
0.010266555508133024
0.010252604226116091
0.01021002944558859
0.010233370626810939
0.01034061289858073
0.01041723002679646
0.01039051338331774
0.010307295562233776
0.010251729229930789
0.010263255338650197
0.01030696694739163
0.010327418874949217
0.010329524115659296
0.010348890917375684
0.010364857430104166
0.010336938404943794
0.010312070604413748
0.010364393896888941
0.01044496268266812
0.010452735088765621
0.010403182515874505
0.010365948737598956
0.010340118976309896
0.010317780715413392
0.010332870385609568
0.010376718908082694
0.01039238064782694
0.010359381276648491
0.010313722137361765
0.010309315258637071
0.010370547224301845
0.01046536554582417
0.010528585340362042
0.010518322952557356
0.010450294706970453
0.010370380587410181
0.010312281963415444
0.01028866327367723
0.010281606593634933
0.010259048864245415
0.010235362013336271
0.010254723753314465
0.01030657741939649
0.010331019842997193
0.010308521010447293
0.010283746572677046
0.01029418785125017
0.010331441387534142
0.010362049415707588
0.010347018488682807
0.010288195780012756
0.010248712522443384
0.010256692417897284
0.01025240752613172
0.010205660844221712
0.010171395284123719
0.010167459307704121
0.01013831608230248
0.010064714269246907
0.009999242480844259
0.00999855727655813
0.0100592754711397
0.010114303743466734
0.010101508072111756
0.010045872973278165
0.010040628456044942
0.010113872233778238
0.010184547628741712
0.010192874954082071
0.010166332107037306
0.010147060628514736
0.010143865845166147
0.010142004052177071
0.010130234013777226
0.010108883762732147
0.010078058950603009
0.010048188511282205
0.010048351204022764
0.010097887029405683
0.010177326863631606
0.010242794246878476
0.010264114055316895
0.010243920646607875
0.010211335991043598
0.010196809945628047
0.010207186618354172
0.010220578357111662
0.010201012538746
0.010143730705603957
0.010100114413071425
0.010113748111762107
0.010160192206967622
0.010191657759714872
0.010212298785336315
0.010254332441836595
0.010289526220876723
0.010267997069749981
0.01022919057868421
0.01022785052889958
0.01022471449803561
0.010190180770587176
0.010174973332323135
0.010192249214742332
0.01018070655176416
0.010125893740914762
0.01008939055725932
0.010094100045971572
0.010094013726338745
0.010067922668531537
0.010054597561247648
0.01008039413485676
0.010115595050156117
0.010118473339825868
0.010076301421504468
0.010018178289756178
0.009989085912238807
0.00998181123053655
0.009954193914309144
0.009919540530536324
0.00992596535710618
0.009963029746431857
0.009986635132227093
0.009998137110378592
0.010019064187072218
0.010047607908491045
0.010081513421609997
0.010118875205516815
0.010131784426048398
0.010098991789855063
0.01004667094675824
0.010019493508152663
0.010036224173381925
0.01007746244315058
0.01011320763733238
0.010134041085839271
0.010135326073504985
0.010124290382955224
0.010140568488277496
0.010196347828023136
0.0102441963320598
0.010240282958839088
0.010189268772955984
0.010140249459072947
0.010145048443228007
0.01019223043229431
0.010227383440360427
0.01024868046399206
0.01028610171051696
0.01031124108703807
0.010293662345502526
0.010272885840386152
0.010273329336196185
0.010265355384908616
0.010245184262748808
0.01022623635130003
0.010192555766552687
0.01016297728056088
0.010193339721299708
0.010259527780581265
0.010283179217949509
0.010269469236955047
0.01027948058443144
0.010321855938527733
0.010359882139600813
0.010362347410991788
0.010331390537321567
0.010299905654974281
0.010284916134551167
0.010274782495107502
0.010271380292251706
0.010281067141331732
0.010289178835228086
0.010291876846458763
0.010286882296204567
0.010269806596916169
0.010267362690065056
0.010276201048400253
0.010255041101481765
0.010221230881288648
0.010208302785176784
0.010188120838720352
0.010154274066444487
0.010163657397497446
0.01021854481426999
0.010248323099222034
0.010242535637225957
0.010249260931741446
0.010275915006641299
0.010308382732328028
0.010335572008043527
0.010325403613969684
0.010280289119109512
0.010260471862275154
0.010277745886705816
0.010282622966915369
0.010273871722165494
0.010290041740518063
0.01032075020018965
0.0103240109491162
0.0103071797802113
0.010320356134325265
0.010371551560238003
0.010416840286925435
0.01043578608892858
0.010445989181753247
0.010458475917112083
0.010473831426352262
0.010492434888146818
0.010508749342989177
0.010517260839696974
0.010518732608761638
0.010517624216154218
0.010524204534012824
0.010540465486701577
0.010542463273741304
0.010527116495650262
0.010531449285335838
0.010551595801953226
0.010546334001701326
0.010519959919620306
0.01050166247645393
0.010491910567507147
0.010482485722750425
0.010482335528358817
0.010483664707280696
0.010458660200238229
0.010437795503530651
0.01048528766958043
0.010572274043224751
0.01061221822630614
0.010593761401250958
0.01056413329904899
0.010537303991150111
0.01049129873747006
0.010438386264722795
0.010440483489073813
0.010505242438521236
0.010541191981174052
0.01049196331296116
0.010417549386620522
0.010391493316274137
0.010409543819259853
0.010426768537145107
0.010415146532468498
0.010365985217504203
0.01029516669921577
0.010244984333403408
0.010236886767670513
0.010244247848168015
0.010237060252111406
0.010229070091154426
0.010244523948058486
0.010263003502041101
0.01025219505885616
0.01023188150022179
0.010251774576026947
0.010308250745292753
0.01034417777089402
0.010339583628810942
0.01032249871874228
0.010300842756405472
0.01024804860819131
0.010161996399983764
0.010105858906172216
0.010123925837688149
0.010170497631188482
0.010205140453763306
0.010248417002148926
0.010296535410452634
0.010308902042452247
0.010289376492146403
0.010270280928816647
0.010262463896069676
0.010296676107682288
0.010389877841807902
0.010468180868774652
0.010469514515716583
0.010428563146851956
0.010382820896338671
0.010341902622021735
0.010335204331204296
0.010360381756909192
0.010362954465672375
0.010338777313008904
0.010339665922801942
0.010367799925152212
0.010390551441814751
0.010412361691705882
0.010425186024513096
0.010390310089569539
0.010339368872810156
0.010344612249173223
0.01038807089207694
0.01041223170235753
0.010413867933675647
0.010401526077184826
0.01037252089008689
0.010344848916865886
0.01034477771492675
0.010357022213283926
0.01034089928260073
0.010306580520700664
0.010286407377570868
0.010270881289616228
0.010249822488985956
0.010232218604069204
0.010219743000343442
0.010220339621882886
0.010243947114795447
0.010271977414377034
0.010281383704859764
0.010284378924407065
0.010298574082553387
0.010315853003412485
0.010319832102395595
0.010290756695903838
0.010235763997770845
0.010212133119348437
0.01023873316589743
0.01027061635395512
0.010309712409507484
0.010392681083176284
0.010472928194794805
0.010464137846138328
0.010394399769138545
0.010371307258028538
0.01040112271439284
0.010412416229955852
0.010405211262404918
0.01042299160035327
0.01044817004352808
0.010422996524721385
0.010363513317424805
0.01036146039608866
0.010422386438585817
0.010433611534535885
0.01034472030820325
0.010245196712203324
0.010232007873710244
0.01028726747725159
0.01033186404965818
0.01034540771972388
0.010349620073102415
0.01034120156429708
0.010331756165251137
0.010368142202496529
0.0104495808808133
0.010503718091640621
0.01049255250953138
0.010458917682990431
0.010427732716780156
0.010388226793147624
0.010375534226186573
0.010423712455667556
0.010493126397486776
0.010528405592776836
0.010514086615294217
0.01046277622692287
0.010404136350844055
0.010363258870784193
0.010337175275199116
0.010342231444083154
0.010413416880182921
0.010509378311689943
0.01054868254577741
0.01052286010235548
0.010475402798037976
0.010434237336739897
0.010407656542956828
0.010394223856274039
0.010382647754158824
0.010376700891647488
0.010389699193183333
0.010393189685419201
0.010352360617835074
0.01029930877732113
0.010291625065729022
0.010328201728407293
0.010350746084004641
0.010334658266510815
0.010320062884129583
0.010314299596939237
0.010283658104017377
0.010242941256146878
0.010220309754367917
0.010207580735441297
0.01020633751526475
0.01021516182925552
0.010221927014645188
0.010262750058900564
0.010349380476400256
0.010394427226856351
0.010340644966345281
0.010251067713834345
0.010218530644197017
0.010253203290048987
0.010281366142444313
0.010256769561674445
0.010207990417256951
0.010168518451973797
0.010139378558378667
0.01010098614031449
0.010045885557774454
0.01000186285469681
0.00999019289854914
0.010001423065550625
0.010016681500710547
0.010010239246767014
0.009965877395588905
0.009906074311584235
0.009865131652913988
0.009839615959208459
0.009800667208619416
0.009751742396038026
0.009746983940713107
0.009811007170937955
0.0098731160745956
0.009870576509274542
0.009835613428149372
0.009797299157362431
0.009728979337960481
0.009637781335040927
0.009590968217235058
0.009636316553223879
0.009739523197058588
0.009815442231483758
0.00982450345531106
0.009796322903130204
0.00977296252734959
0.009783555858302862
0.00983525742776692
0.009908519526943564
0.00997505105799064
0.01001229666173458
0.010029201679863035
0.010060944999568165
0.010109038504306228
0.010139362271875143
0.010136341410689056
0.010119735393673182
0.010120088800322264
0.010138385307509452
0.010159490066580474
0.01020575966918841
0.010285533631686121
0.01032340619713068
0.010261262122076004
0.010160020573530347
0.0101084624719806
0.010112741757184266
0.010127589243929834
0.010122809358872473
0.010083659754600375
0.01000921218888834
0.009927549110725522
0.009867638603318483
0.009844214350450783
0.00987290462711826
0.009941867121960967
0.010010404814966022
0.010059331646189093
0.010084305766504258
0.010073688966222107
0.010036520918365568
0.010019305981695653
0.01005977280670777
0.010137691705022007
0.010212190093006938
0.010263611867558212
0.01027636810671538
0.010244615389965475
0.01019120696466416
0.010152178909629583
0.010151046616956592
0.01017883521039039
0.010196992217097432
0.0101808388158679
0.01015735032968223
0.01016858071088791
0.01019407546846196
0.010180789427831769
0.010153994027059526
0.010181702012196182
0.010257748342119156
0.010319643563125282
0.010328151404391974
0.010297164560761303
0.01027226095320657
0.010266365956049413
0.0102440978679806
0.010205576994922012
0.010212620154488832
0.010288820955902339
0.010370243964716792
0.010378249059431254
0.010308963027782739
0.010238351414445788
0.010236193190794439
0.010300021809525788
0.01036758506903425
0.010377375928219407
0.010342375210020691
0.010337162190116942
0.010383889533113689
0.010424479031935335
0.010422102042939514
0.010396580388769507
0.010371472584083677
0.01037545821396634
0.010441224484238773
0.010539247535634786
0.010603392138145864
0.010637591734994203
0.010681846365332603
0.010707515755202622
0.01068640163866803
0.010675049987621605
0.010700843096710742
0.010712580664549023
0.010699321830179543
0.010694107634481042
0.010683878445997835
0.010639671401586384
0.010573590062558652
0.010508792598266155
0.01047466741874814
0.010503436466678976
0.010569365266710519
0.01061287428252399
0.010611295376438647
0.010574327674694359
0.010525962689425796
0.010487691010348498
0.010463956969324499
0.010456733948085457
0.010471114767715334
0.010500861729960889
0.010514713078737258
0.010487902108579875
0.0104465785715729
0.010419227045495062
0.010396351425442844
0.010369263305328787
0.010325477251317352
0.010258237207308412
0.010217131243553012
0.0102625319827348
0.010394159583374857
0.010551272502634674
0.01065463362960145
0.010687142566312105
0.010719050092156977
0.010803531305864453
0.010882201055064798
0.01086178878787905
0.01080047440249473
0.010700561425182968
0.0106248137797229
0.010558222685940564
0.010509300560224802
0.010477160636801272
0.010443299766629935
0.010423618105705827
0.010459239869378507
0.010526743645314127
0.01054528059437871
0.010489974378142506
0.010421481120865793
0.010411011925898493
0.010467623732984066
0.010542372222989798
0.010588746622670443
0.01059912918601185
0.010592038319446146
0.010580859936308116
0.010574157950468361
0.01057944115716964
0.010582265760749578
0.010566526795737446
0.010546673140488565
0.01054415691876784
0.010557695280294866
0.01055998839205131
0.01052430139388889
0.01047715807100758
0.010481956463772804
0.010543014169670642
0.01058671482373029
0.01056825352134183
0.010531584755517543
0.010514017650857568
0.010488447793759405
0.010450870045460761
0.010436871538404375
0.010449841592926532
0.010475522032938897
0.010511481517460198
0.010532422561664135
0.010505613889545202
0.010470674741081893
0.010508024932350963
0.010595276954118162
0.01062635682988912
0.010595007848460227
0.010599997290410102
0.01067616175627336
0.01076654100092128
0.010825930899009108
0.010858056149445475
0.01088850811123848
0.01091560215689242
0.010890322031918913
0.01080212216824293
0.010715006398968399
0.010666506791021674
0.01063105859560892
0.010591311047319323
0.010577074305620044
0.010616449571680278
0.010684001417830586
0.010743478066287934
0.01079565548337996
0.010838077107910066
0.010850712975952774
0.010842872422654182
0.010836443344596774
0.010824315471109004
0.010792078641243279
0.010741566694341599
0.010697156866081059
0.010698229607660323
0.010746481616515667
0.010785014003049582
0.010776659524999559
0.010747590435203165
0.010711384317837656
0.010656199799850583
0.010618389640003443
0.010622461466118694
0.0106110883760266
0.010560947856865822
0.010525755127891898
0.010518437067512423
0.010515386497136205
0.010533602519426494
0.010575359431095421
0.010583919289056212
0.010525387520901859
0.01044762720586732
0.010426539757754654
0.010460385833866895
0.010457011994440109
0.010388634686823934
0.01037554012145847
0.010496653460431844
0.010605784077197313
0.010670341846998782
0.010669197053648532
0.010653634029440582
0.010629461186472327
0.010611029032152147
0.010629955183248966
0.010661383657716215
0.010637577972374856
0.01056684274924919
0.01052400675835088
0.010533782723359763
0.010560767310671508
0.010571553048212081
0.010561069168616086
0.01053913778392598
0.010517577419523149
0.010504563862923533
0.01049423250835389
0.010489189545623959
0.01050462523009628
0.01052652376005426
0.010537913588341325
0.01055871287593618
0.010593776172026993
0.010610745400190353
0.010600015656091272
0.010588453488890082
0.010583381636533886
0.010560602941550314
0.010513404819648712
0.010453414926305414
0.010392839761916548
0.010364284103270621
0.010388830106239765
0.010440788706764579
0.010479704311583191
0.010484811749774963
0.010480521286372096
0.01050153986318037
0.010518240481615067
0.010486497932579369
0.010440676857251674
0.010439145017880947
0.010467689537908881
0.010477576910052449
0.010479543497785926
0.010511097919661552
0.01053914253367111
0.010503319806884974
0.010418925296980887
0.010359807033091783
0.010372981363907456
0.01041979824192822
0.010417012614198029
0.010365956022869795
0.010355366116855294
0.010404488642234356
0.010451226748991758
0.010490025742910802
0.010549279055558145
0.010596505503635854
0.010598556972108781
0.010582083731424063
0.010573709048330784
0.010568407876417042
0.01056382836541161
0.010568620997946709
0.01058706217445433
0.010610033702105283
0.010621718722395599
0.0106250468082726
0.0106406414299272
0.010669002374634147
0.01068103730212897
0.010643395953811705
0.010555440729949623
0.010478444651234896
0.010470730445813387
0.01050150853348896
0.01053013437660411
0.01058855556882918
0.01067888954654336
0.010736041283234955
0.010744217110332101
0.010750154089182616
0.010774652005638928
0.010796708255074918
0.010793808710295706
0.010759115607943386
0.010702659767121077
0.01065171544905752
0.010636938172392547
0.010655035546515137
0.01065012440085411
0.010590145622845739
0.010535412363242357
0.010544569741468876
0.010586531185545027
0.01061825878219679
0.01064378629438579
0.010667933272197843
0.010684492343571036
0.01070472260005772
0.010745043323840946
0.010792059150990099
0.010793825082946568
0.010724673504009843
0.010650447083171456
0.010639981718268245
0.010663522323593497
0.010667466160375625
0.010655963777098805
0.010645501378457994
0.010635168231092394
0.0106317642563954
0.010630678422749042
0.010610484476201236
0.010568553998600691
0.010504817576147615
0.010416025223676115
0.010334292927291244
0.01030038575641811
0.010311852630693466
0.010335431406274439
0.010342613342218102
0.010336856311187147
0.010357170451898127
0.010431697007734329
0.010528656458482145
0.010588381574489176
0.010613744624424725
0.010656252950429917
0.010707909057382494
0.010716540354769677
0.010676826976705342
0.01062819895101711
0.01059418510645628
0.010541326145175844
0.010442763245664536
0.010371371621731669
0.010405942136421799
0.010495287338271738
0.010556371542625129
0.010601676870137453
0.010656425647903233
0.010683687534183264
0.01066559720551595
0.010655011748895049
0.010693432302214206
0.01074631568044424
0.010758757556322962
0.010720427194610239
0.010672159413807093
0.010663689796347171
0.010682900701649487
0.010675708535127343
0.010638365049380809
0.010598870092071593
0.01055137817747891
0.010504995863884687
0.010504245548509062
0.010536394554656
0.010547511198092252
0.010539812373463065
0.010527853711973876
0.01049716706154868
0.01046467360574752
0.010459475899115205
0.010466367774643003
0.01045610114466399
0.010429544793441891
0.010408395566046239
0.010396483787335455
0.01038690400775522
0.010411543210502715
0.010497164195403457
0.010577362540643662
0.010570490981917828
0.010511921690776945
0.010480922132264823
0.010465926940087229
0.010426706727594137
0.010392010416835547
0.010394277872983367
0.010404905960895121
0.010400292458944022
0.010405815527774394
0.010430908885318786
0.010452721198089421
0.010469376349356026
0.010481969164684414
0.010468410511966795
0.01043789326911792
0.010448970617726445
0.01053010041359812
0.010630489645991474
0.010673194949049503
0.010628344374708831
0.010531810214743018
0.01044670129660517
0.010414771509822458
0.01044447555905208
0.0105072285188362
0.01054073782172054
0.010513847360853106
0.010475968283135444
0.010484837365802378
0.010518447228241712
0.010516503918915987
0.010484071339014918
0.010486677114386111
0.010539650064893068
0.01058794883545488
0.010601018532179296
0.010598671368788927
0.010605794293805957
0.01064055847004056
0.010708496659062802
0.010791328372433781
0.010857579575385898
0.010874222200363874
0.01083052128786221
0.01076749172527343
0.010749694036785513
0.010786654856055976
0.010810081637464464
0.010759000470861792
0.010663621467538178
0.01061065937159583
0.010616180791985244
0.010594561479520053
0.010512162575032562
0.010448796965647489
0.01045936205657199
0.010513325342908502
0.010564088288228959
0.010604090397246182
0.010662415022961795
0.010746141786221415
0.010803194502368569
0.01077559516998008
0.01068229422206059
0.010604222717229278
0.010566225969232618
0.010522836369927973
0.010480180075392127
0.010500093442387878
0.010570799689739943
0.010603077567648143
0.01056367248762399
0.010510913582984359
0.010498211917001754
0.010505212906282394
0.010483478889800607
0.0104407041775994
0.010425359739456326
0.010452719409950078
0.010507254134863616
0.010574649926275015
0.01061398196965456
0.010572385108098388
0.010477079944685101
0.010410041511058808
0.010381430580746382
0.010343906956259162
0.010302500247489662
0.010306596243754029
0.010357040562666953
0.010397201287560165
0.010402414570562542
0.010407993400003762
0.0104306013812311
0.010447832783684134
0.010447004549205304
0.010421819386538118
0.010380361818242818
0.010371325365267694
0.010413857316598297
0.010454028013627976
0.010460635146591813
0.010467306417413056
0.010495577782858163
0.01053309700684622
0.010565726291388274
0.010583479637280107
0.010586931125726552
0.01057275006780401
0.010529061432462185
0.010478229394648224
0.01046901746187359
0.010514201389160007
0.010567793280351907
0.010581929441541434
0.010575869244057685
0.010583171951584518
0.010579253553878516
0.01055843804962933
0.010572739520575851
0.010624640060123057
0.010647869696840643
0.010609090344514698
0.010540261752903462
0.010487300758250058
0.010468613321427256
0.01047493784688413
0.010501209856010973
0.01054694167105481
0.010593996259849518
0.010631268878933042
0.010646452500950546
0.010610773179214448
0.010536882057785989
0.010474458381067961
0.010453082064632326
0.01048387808026746
0.010558296917006374
0.010626257304102183
0.010630047114100307
0.010574077230412513
0.010528017771430314
0.010549261958803981
0.01062413047766313
0.010684857612941414
0.01066194417187944
0.010560189893003552
0.010485818812157958
0.01051065250299871
0.010561518394388259
0.010542626921087504
0.010484278358053416
0.010476850341074168
0.01053003890439868
0.010576997892931103
0.010555830372031777
0.01046975423116237
0.0103952829237096
0.010379319228231907
0.010382988213095815
0.010378370746038854
0.010389100429601967
0.010436612183693796
0.010500527631957085
0.010522792134433984
0.010505566601641475
0.010526665332727135
0.010580022691283376
0.010560605376958847
0.01045334346126765
0.01038506377954036
0.010432701909448951
0.010509871512185782
0.010514842513948679
0.01046077805571258
0.010414924810174853
0.010416399349924176
0.010462816106155515
0.010515483934432268
0.010529734881129117
0.010504903853870928
0.010488539880607278
0.010523661109618842
0.01060134066035971
0.010666662270668894
0.010680257540661842
0.010671581528149544
0.010674735365901142
0.0106494556250982
0.010575948408804834
0.01053454372799024
0.010572470903862268
0.01062234042910859
0.010643776718061417
0.010698985683266073
0.010815814707893879
0.010908626399468631
0.01090278232237324
0.01083320552483201
0.010760728109162301
0.010697209772188217
0.0106447295518592
0.010600884282030165
0.01054553417954594
0.010493083810433745
0.010494086784310639
0.010537252319045365
0.010540172099135816
0.01050403902772814
0.01053051876835525
0.01062278240453452
0.010670721645001323
0.010637875981628894
0.010582013966049998
0.010532571652438491
0.010477058656979352
0.010437397004570812
0.010454207616858184
0.010496429181657732
0.010484648265410214
0.010422987670172006
0.010411278838291764
0.010487531456165015
0.010578249010723084
0.010636657136492431
0.010677271252498031
0.0106974837789312
0.010698792899493128
0.0107115174154751
0.010725220141466707
0.010691584558226169
0.010633513757493347
0.010621932006906719
0.010650084426160902
0.010671061754692346
0.010678141489624976
0.010665545316878706
0.010609908874612302
0.010521963937208056
0.010469806028995663
0.010496074282564223
0.010542282511014491
0.010540026023518294
0.010501980315893888
0.010468607204966247
0.010469641396775841
0.010525912793818861
0.010604059756733477
0.010638869774993509
0.010630181815940887
0.010620353892445564
0.010620564362034202
0.0106354543636553
0.01065789797808975
0.01065123216016218
0.010632337925489992
0.01065755300456658
0.010706248569767922
0.010719576191622764
0.010699827277567237
0.010681741945445538
0.0106738820951432
0.010655918491538614
0.0106175358989276
0.010590322657953948
0.010585477501153946
0.010561323091387749
0.010523183650802822
0.010537174788769334
0.010608321086037905
0.01065441878978163
0.010627013654448092
0.010577610121108591
0.010576744470745325
0.010626307344064117
0.010668553232681005
0.010661245053634048
0.010623011798597872
0.010604066029191016
0.010626398879103362
0.010654229363426566
0.010643089243676513
0.010601276971865446
0.010565555572975427
0.010552117850165814
0.010554262280929833
0.010549227744340896
0.010527971622068436
0.010528289773501455
0.010566113835666328
0.010581373295281082
0.01053490644088015
0.010468927316833288
0.010415611781645566
0.010342718705069275
0.010247623510658742
0.0102089081145823
0.01025487154489383
0.010315852814819663
0.010371904037892819
0.01045323816826567
0.010528552955947816
0.010568993100896477
0.010601790058426559
0.010626858342438936
0.01061291188467294
0.010583594716154039
0.010602500634267925
0.010656612983439118
0.010669592663180082
0.010638139583170414
0.010613610483705998
0.010613199234940111
0.010642261367756874
0.010688010128214956
0.010700041924137623
0.010663898929487914
0.010620667710900306
0.010593465152196587
0.010583960625808686
0.010601664872374385
0.01063282071845606
0.010658527032937855
0.010681877012830228
0.010678710346110166
0.010627704192884266
0.010562075739726425
0.010503007268998771
0.010451220080722124
0.010442160905804486
0.010498277340084315
0.010576910888776183
0.010619763697031886
0.01061434852425009
0.010587530890479684
0.010566334698814898
0.010567808260675519
0.010600765361450612
0.0106422573258169
0.010635857672896236
0.010565137958619743
0.010500279548577964
0.010506018546875566
0.010553543968126178
0.010581560682039708
0.010575252559501678
0.01054516114294529
0.010504735957365483
0.01048129918752238
0.010484749297611416
0.010507848204579204
0.010562982445117086
0.010635550091974437
0.010676574225071818
0.010692781619727611
0.010732340351678431
0.01079160570865497
0.010821999353356659
0.010805305894464254
0.01077265819068998
0.010749967629089951
0.010724664882291108
0.010689183250069617
0.010679562422446907
0.010721181232947857
0.01076848091557622
0.01076822834322229
0.010743671101517976
0.010746523865964263
0.01077043327037245
0.01077093802858144
0.010748513035941869
0.01074982961639762
0.010777759882621467
0.010790456482209266
0.010782706562895327
0.01077058090828359
0.010749636190012098
0.010718494190368801
0.010683702263049781
0.01065320366062224
0.010652325216215104
0.010691463723778724
0.010729921071324498
0.010730662234127521
0.010704340389929711
0.010680396410170942
0.010679395680781453
0.01068861153209582
0.010667619411833584
0.010617688759230077
0.010594622769858689
0.010632499754428863
0.010704599057789891
0.010754691183101385
0.010753693589940667
0.01073071503546089
0.010733105067629367
0.010754269568715245
0.010752448129933328
0.010737684080377221
0.010737593513913452
0.010717717898078263
0.010660111247561872
0.010631292497273535
0.010662920216564089
0.01068926703883335
0.010670299034100026
0.010643859051633627
0.010642221812158823
0.010653096546884627
0.010656272231135517
0.010653805898036807
0.010663228118792176
0.010701071901712567
0.01076684583676979
0.010823762489017098
0.010833655607420951
0.010823072532657534
0.010837223678827286
0.010855918601155281
0.010838433289900423
0.010786496344953775
0.010726337283849717
0.010683535276912152
0.010664009528700263
0.01066089230356738
0.010684972063172609
0.010733044156804681
0.01076379606500268
0.010750823232810944
0.010700084592681378
0.010633248891681433
0.010591875603422523
0.010596137179527431
0.010613646323326975
0.010619235159829259
0.010632060081698001
0.010671281525865196
0.01073078041896224
0.010798262094613164
0.010847034212201834
0.010847060822416097
0.010826882130932063
0.010856266031041742
0.010945050716400147
0.011029552789404989
0.011068947410676629
0.011078688234556466
0.011079798911232501
0.01106500625377521
0.011007056364323944
0.010923630928155036
0.010881018857471645
0.010891323485411704
0.010901679755188525
0.010881635604891925
0.010848928890191019
0.010832820020150393
0.010847077341750264
0.010891560211312025
0.010956674769986421
0.011010313162114472
0.011013264926150441
0.010983177535235882
0.010985743885394186
0.011025587017647921
0.011030422102194279
0.010974336231593043
0.010926656164228917
0.010937667666003108
0.010957111271563917
0.01092685233335942
0.010866632314864545
0.01081039768178016
0.010762574791442603
0.010730682672001422
0.010715783021878452
0.010704213047865778
0.010696096932515503
0.010700293304398655
0.010712189010810107
0.010722573983948679
0.01073342155199498
0.010751601685769855
0.010778395186644047
0.010806544180959464
0.010822171070612967
0.010821807249449193
0.010820599473081529
0.010831848420202732
0.010851592046674342
0.01085991328349337
0.010838857998605818
0.010807015728205442
0.01080335560021922
0.010807700837031007
0.010761314751580358
0.01069147469708696
0.010678442504722625
0.010711185722611845
0.010720104612410068
0.010703828607220203
0.010702730992343278
0.010704295942559838
0.010691268513910472
0.010696159310173243
0.010716300602070987
0.010714392478112131
0.010701266031246633
0.010693209101445974
0.010677856111433357
0.010657127695158124
0.010642004350665956
0.01063686233246699
0.010639813505113125
0.01062923894962296
0.01058594137430191
0.010529977132100611
0.010496633714064956
0.010498897295910865
0.0105311987712048
0.01057148354826495
0.010589708704501391
0.010591778715606778
0.01062327194493264
0.010691263054031879
0.010731482848059385
0.010700239948928356
0.010637226542457938
0.010600164344068616
0.010613047708757222
0.010680778159294278
0.010765079876873642
0.010792321877088397
0.01074488260783255
0.01067120275227353
0.01062407705700025
0.010636578230187297
0.01069478623336181
0.010741609623655677
0.010753192955162376
0.01075540045974776
0.01075689957011491
0.010731673024129123
0.010661860115360468
0.010571024022065103
0.010511335779447108
0.010516073673497885
0.010558404922485352
0.01058417143067345
0.010593730320688338
0.010611900032963605
0.010621489498298615
0.010612569176591933
0.010606516387779265
0.010607690671458841
0.010618488017935307
0.010660924001131207
0.010718248293269426
0.01072651689639315
0.010669481381773949
0.010618818774819374
0.010636792064178734
0.010673322652000933
0.010643611967097968
0.010584989089984446
0.010596852940507233
0.010661921177525074
0.010684243440628051
0.010666185203008353
0.01070140971802175
0.010811845073476434
0.010915696420706809
0.010938248978927732
0.010890541567932814
0.010859376552980393
0.010897745471447706
0.010951176513917743
0.010963803292252123
0.010959458558354528
0.010963013696018606
0.010960074625909328
0.0109391014627181
0.010906147425994278
0.010886490740813316
0.010903140855953097
0.01092239293968305
0.010896409486886114
0.010867390187922866
0.010899814562872052
0.01094909548992291
0.010935288411565125
0.010877211759798229
0.010845034080557526
0.010843149442225695
0.010833221599459647
0.010813368370290845
0.010799089788924902
0.010783021787647158
0.010757330399937927
0.010745885910000651
0.010774470351170748
0.010825360857415945
0.010869141612201929
0.010893322925549
0.01088613220024854
0.01087132298387587
0.01090780933154747
0.010989370022434742
0.011033553725574165
0.011009633515495807
0.01098304287996143
0.010995878500398248
0.01100256314733997
0.010965995881706476
0.010927201847080141
0.01093374395975843
0.01096178179141134
0.010970482213888317
0.010972721248399465
0.01098279002122581
0.010974854975938798
0.010938717797398568
0.01089409169042483
0.010846389546059073
0.01080352779943496
0.010792565832380205
0.01081058198120445
0.010829655572306364
0.010836938247084617
0.01081902238773182
0.010770752620883286
0.010732362791895867
0.010748256742954255
0.010807768809609115
0.01086690615164116
0.010880699073895812
0.010828599932137877
0.010745496768504382
0.010682748607359826
0.010658501803409309
0.010665056300349534
0.010669389660470187
0.010640595871955157
0.01061171764275059
0.010631721089594067
0.010665042423643172
0.010644372389651834
0.0105992047698237
0.010607839599251746
0.010643534581176936
0.010624080034904181
0.010565240546129643
0.010533018270507455
0.010532609866932035
0.010537897660396993
0.010524065541103482
0.010475684453267605
0.01044832160230726
0.010509328483603895
0.010602335957810283
0.010611107586883009
0.010518784634768963
0.010438432334922254
0.01046776479575783
0.01053814651677385
0.010534296883270145
0.010485309481155128
0.010481870109215379
0.010511635299772025
0.01049618361517787
0.010431705401279032
0.010403636018745601
0.010470863364171237
0.010584691860713065
0.010640414389781654
0.010609496871475131
0.010560983465984464
0.010540920570492744
0.010538097319658846
0.010548410885967315
0.010560672171413899
0.010543863514903933
0.01051630920963362
0.010521722424309701
0.010544551950879395
0.010565618404652923
0.010603424541186542
0.010630190495867282
0.010602250925730914
0.010564774831291288
0.010588391181081534
0.010658736936748028
0.010716181597672403
0.010749022618401795
0.010788398084696383
0.010849450228270142
0.01090945621021092
0.010928107153158634
0.010894953401293605
0.01085427689133212
0.010858078869059682
0.010898881542962044
0.010919554308056831
0.010897399180103094
0.010876205670647322
0.010874575607012958
0.010828591601457447
0.010713973087258638
0.010635093259625137
0.010677082387264818
0.010769577724859118
0.010795313667040318
0.010744083230383695
0.010697487751021981
0.010714984089136124
0.010773729558568448
0.010819558706134557
0.010835029962472618
0.010820702970959247
0.010780069346074015
0.010752840908244252
0.01078916018595919
0.010890039762016386
0.01099332936340943
0.01102188301505521
0.010983902162406594
0.010972736114636063
0.011017962037585675
0.01105468101100996
0.011059637828730047
0.011066709856968372
0.011062880933750421
0.011009323147591203
0.010930237234570086
0.010878809147980064
0.01086245603626594
0.01085491272388026
0.010844518255908042
0.010846801239531488
0.010859999761451036
0.01083543237298727
0.010765722913201898
0.010740383141674102
0.010801018294878305
0.010859038094058632
0.01085011483868584
0.010821410552598536
0.010814882384147495
0.010801764372736215
0.0107694355933927
0.010761822501663118
0.010807743845507502
0.010870360536500812
0.010878052059561015
0.010824676896445453
0.010803381926380098
0.010850279352162033
0.010863307639956474
0.010792602016590536
0.010732168606482446
0.010749642495065928
0.010807084853295236
0.010846570685971528
0.010846702547278255
0.010820370700675994
0.0107894147769548
0.010767413016874344
0.010751659562811256
0.010728280756156892
0.01070276067359373
0.010692365441937
0.010698232192080468
0.010712776039727033
0.010730894247535617
0.010754816983826458
0.010779400812461972
0.010796448080800474
0.01081996243679896
0.010844202842563391
0.01083619924960658
0.010804674667306245
0.0107866763160564
0.01078743981430307
0.010793741524685175
0.010797638304065913
0.010775731508620084
0.010721229880582541
0.010689910936634987
0.010707190949469805
0.010706571622285992
0.01065870027989149
0.010632114105392247
0.010658192406408489
0.010663928797002882
0.010601459976751357
0.010526023113634438
0.010495731940027326
0.010518534376751631
0.01058300245553255
0.01063741994323209
0.010623406213708221
0.010569646435324103
0.010555054268334061
0.010598711201455445
0.010652388739399611
0.010687837467994541
0.010734429892618209
0.010797489457763732
0.010825268304906786
0.010802339192014187
0.010783657191786915
0.010813732671085746
0.010862390222027897
0.010871689945925028
0.010840854095295071
0.010799841724801808
0.01074442767770961
0.010665127574466169
0.010591701637022197
0.010555736308451741
0.010541802351363004
0.010512572042644023
0.010443530702032149
0.010341454297304153
0.01026571167865768
0.010266322968527674
0.010301713151857256
0.010294348518364131
0.0102334690769203
0.010168363354168833
0.010131505909375846
0.010128885533194989
0.010177558921277523
0.010268661235459149
0.01034037210745737
0.010356912144925446
0.010357147140894085
0.01039103620685637
0.010448657656088472
0.010485202686395497
0.010509670504834503
0.010571261299774051
0.010652081563603134
0.010695106708444655
0.010710938337724655
0.01074219296919182
0.010777533804066479
0.010787115150596946
0.010798354137223213
0.01084504535421729
0.01088007822399959
0.010836089453659952
0.010740245894994586
0.010697563784196973
0.010737869278527797
0.010754314118530601
0.010680010076612234
0.010590915461070835
0.010561462773475796
0.010581100163981318
0.010619393137749284
0.010657406041864305
0.010672596427612006
0.01065824670251459
0.010649255993776023
0.010674770495388657
0.01069373009260744
0.010652259760536253
0.010593049314338713
0.010593902287073433
0.010629431407433004
0.01061516699148342
0.010542970558162779
0.010478916701395065
0.010463856847491116
0.010482469010166823
0.010494399997405708
0.010483987762127072
0.01049372366629541
0.010556703365873546
0.010639194827526809
0.010689621565397829
0.010684113467577845
0.010637001951690763
0.010590894403867424
0.010584323189686985
0.010622431719675661
0.010667364755645394
0.010685568689368666
0.010700225052423774
0.010733886854723096
0.0107437161821872
0.010704219003673642
0.010686973119154572
0.010751295641530306
0.010827708730939776
0.010817080538254231
0.010719045901205392
0.010605792792048305
0.010549825062043964
0.01056135855615139
0.010587923997081816
0.01059353290591389
0.010572960516437888
0.010525462455116213
0.010475047584623098
0.010447226704563946
0.01042584448121488
0.010395739618688822
0.010369086891878397
0.010335662746801972
0.010273780531715602
0.010211190851405262
0.010192081679124386
0.01020997459301725
0.010240427129901945
0.010295396456494927
0.010382582854945213
0.010459592309780419
0.010496959281153977
0.010516186058521271
0.010525338705629111
0.010538204873446375
0.010608622452709824
0.010718814430292696
0.010774222614709289
0.010761164042633027
0.010753430400509387
0.010798771164845676
0.010883939238265156
0.010949264138471335
0.010941831145901233
0.010876056347042322
0.01080778260016814
0.010782393626868725
0.010809954071883112
0.010838602045550942
0.010798434095922857
0.010705976202152669
0.010649936564732343
0.010662287278100847
0.010680185919627548
0.010642847875133157
0.010567170071881264
0.010509937000460923
0.010488543310202658
0.010474831832107156
0.010452241955790668
0.010425392934121192
0.010397018583025783
0.0103884083381854
0.0104358949419111
0.010516015915200114
0.01053538722684607
0.010461932509206235
0.010397491129115224
0.010439740226138383
0.010537962603848428
0.010574742557946593
0.010539886031765491
0.01052137021208182
0.010555853515397758
0.010589296543039382
0.010577295338734985
0.010548269657883793
0.010545524354092776
0.010565779579337686
0.01058985231909901
0.010605509765446186
0.01059469681000337
0.010564462193287908
0.010550166245084256
0.010553761937189847
0.010548953043762594
0.010537231827620418
0.010520361585076899
0.010479983412660659
0.010426230577286333
0.010376117613632233
0.010310172121971845
0.0102321444475092
0.010213509616442025
0.010302454514894635
0.01044299737084657
0.010549555241595954
0.010601676034275443
0.010622740813996643
0.01062152066733688
0.010587806673720479
0.010518591897562147
0.010444868598133325
0.01042433275608346
0.01045882975216955
0.010471754565369338
0.010434318732004613
0.01042096465593204
0.010490846836473793
0.010605299512390047
0.010683663731906563
0.010691648067440837
0.010659951707348228
0.01062613096088171
0.010600239599589258
0.010586344175972045
0.010589191580656916
0.010604700166732072
0.010622147887479514
0.010644213007763028
0.010684608856681734
0.010717345152515918
0.010697992166969926
0.01065168100176379
0.010640123272314667
0.010658250360284
0.010651715639978647
0.010610769130289554
0.010578071386553346
0.010589870864059776
0.010645524787250907
0.010696401989553123
0.010695182273630054
0.010672298285644501
0.010673533985391259
0.010669655739329756
0.010629214136861265
0.01058357438771054
0.010551974060945213
0.010524909500963986
0.010512077207677066
0.010505625957157462
0.01049156701657921
0.010495575270615518
0.010512707831803709
0.010496585783548652
0.010445226882584393
0.010395382072310895
0.010383704111445695
0.010427305249031633
0.010485646189190448
0.010500500241760165
0.010474576172418893
0.01043913546949625
0.010398473294917493
0.010364737880881875
0.010359577895142138
0.010360890231095255
0.010343506799545139
0.010325685609132051
0.010318420883268118
0.010311017965432257
0.010300137079320848
0.010284840732347221
0.010271079833619296
0.010280480021610855
0.010317488836590201
0.010339982404839248
0.010312166626099496
0.010271075800992548
0.010269314225297421
0.010282676620408892
0.010251883612945677
0.010192961483262479
0.01017641909653321
0.010196357236709445
0.010174418529495598
0.01010932617355138
0.010096989404410124
0.010170914358459413
0.010252106979023665
0.010278253993019461
0.010263848302420229
0.010246375703718513
0.010245418071281164
0.010256205955520271
0.010267504802905024
0.010282169638667255
0.010302979389671237
0.010321956598199905
0.010336687108501792
0.010350811418611557
0.010360789378173649
0.01035486268112436
0.010336883729323745
0.010322870642412454
0.010305901877582074
0.010286328268703073
0.010287956958636641
0.010310575149487704
0.010348132157232612
0.010415752946864814
0.010495863126125186
0.01052272948436439
0.010469996714964508
0.010399465770460666
0.01036571976961568
0.010342975850217045
0.010293952347710729
0.010229149237275123
0.010190959621686488
0.010212637244258076
0.01027608645381406
0.01032757505774498
0.010340503402985632
0.010330328773707152
0.010307592605240643
0.010264889211393893
0.010223410469479858
0.010210704619530588
0.010193339644465595
0.010156153566204012
0.010175928201060742
0.010271731880493462
0.010330039581749589
0.010293763321824372
0.010250542492140085
0.010260625150986016
0.010266461176797748
0.010219679565634578
0.010161374977324158
0.010151964807882906
0.010191279090940952
0.010222573888022453
0.01021325855748728
0.010197442690841853
0.01020468887174502
0.010211656093597412
0.0102007867093198
0.010189023623242975
0.010183864408172667
0.010180829514283687
0.01019197990419343
0.010225133714266121
0.010259216569829732
0.010276622094679624
0.010297618501354008
0.010338802433107048
0.010373637555167079
0.010391029361635447
0.010420116307213902
0.010462236762978137
0.010480405807029455
0.010474667923990637
0.010496072012465447
0.01053950811503455
0.010538007400464266
0.010511318051721901
0.0105362793430686
0.010593980455305428
0.01062448024051264
0.010633623946923763
0.010649515700060874
0.010660591227933764
0.010635745462495834
0.010592322184238582
0.010596251813694835
0.010665814904496074
0.010739641757681965
0.010754081944469362
0.010691681550815702
0.010599399702623486
0.01057226172182709
0.01062341792974621
0.010671664865221829
0.010706641981378197
0.010771944008301943
0.010823523018043488
0.010786957622040063
0.010686786810401827
0.010610451709944756
0.010604284247383475
0.010645780861377716
0.010679829709697514
0.010681145768612623
0.010673931632190943
0.0106781544839032
0.010685938375536353
0.010687847200315445
0.01067240618634969
0.010642138025723398
0.010628373008221387
0.010639897014480084
0.010649417256936432
0.010627809129655361
0.010562435374595225
0.010485951981972903
0.010454262406565249
0.010468396439682693
0.010472126852255315
0.010433354831766337
0.010376549898646772
0.010328785500023514
0.010293480686377733
0.010271432742010802
0.01026123970746994
0.010262831144500524
0.01027850913349539
0.010300749307498335
0.010331446237396449
0.01037367673125118
0.010393091151490808
0.01036069446010515
0.01030747853918001
0.010280767420772463
0.010286814940627664
0.010294902415480464
0.010282183166127652
0.010263325236737729
0.010264108527917416
0.01029270448954776
0.010324574157129974
0.010309836734086275
0.01025633855490014
0.010255577848292887
0.010348980736453087
0.010452775952871888
0.010479208619799465
0.010441910224035383
0.010397748863324523
0.010360159317497165
0.010307217095978559
0.010252411332912744
0.010247884318232536
0.010289710352662951
0.010318011187482625
0.01031619516434148
0.010316674376372247
0.010341446488164365
0.010370590644888579
0.010372652043588459
0.010352479172870516
0.010320118716917933
0.010271504386328161
0.010235935158561915
0.010259354871232062
0.010326328254304826
0.010361446947790683
0.010318429197650403
0.010231477527413517
0.010160961484070868
0.010118653734680265
0.010097845115233213
0.010128148146905006
0.010223363020922988
0.010329596735537051
0.010380922732874751
0.01036323840264231
0.010299486189614982
0.010221304714214056
0.010158302064519375
0.010118809908162803
0.010091294448357076
0.010062423190101982
0.01003093804931268
0.010010799104347825
0.010012158886529504
0.01001788571011275
0.009996309166308493
0.009977650945074856
0.010050393929705024
0.010187524703796953
0.010244474951177836
0.010207403628155589
0.010188789817038923
0.010207707930821925
0.010227940534241498
0.01028134283144027
0.010393332310486584
0.010514236628077924
0.010560042464639992
0.010477079104166478
0.010367934436071664
0.010278901564888657
0.010226061861030757
0.010189433903433383
0.010117554883472622
0.010058463299646974
0.010091965924948454
0.01023659175960347
0.010415740918833762
0.010537272095680237
0.010593173941597343
0.010620976283680647
0.010676202299073338
0.010827543660998345
0.011035813733469695
0.011163543867878616
0.011169572700746358
0.011147603755816818
0.011163558720145374
0.011126967030577362
0.011174736965913326
0.011441430679988117
0.011789120465982706
0.011987879581283778
0.011926854497287422
0.01195574996061623
0.012158763844054192
0.012659248299896717
0.013563589411787688
0.014758656132034958
0.015879954495467245
0.016591196584049613
0.01679181376704946
0.016854389116633683
0.017497896132990718
0.01872015055269003
0.02011578915407881
0.021045140265487136
0.021141025798860937
0.02150277199689299
0.022055261817295103
0.022406076199840756
0.02246103954734281
0.022388211803045125
0.022417987235821783
0.022612801266368478
0.022889227976556868
0.023184293515514584
0.02345718126744032
0.023586239092983307
0.02374588641570881
0.024616500888951124
0.025899903043173255
0.02681681261630729
0.026857570041902364
0.027392923892475666
0.028180895869154482
0.028948444991838188
0.02964157625567168
0.03017845517490059
0.030415594931691884
0.030395024446770547
0.0306884416914545
0.03096445696661249
0.030942161006387324
0.03090861540287733
0.031179000241681933
0.031677835953887554
0.032113798838108776
0.032285101634915915
0.03228086356073618
0.03222302101319656
0.032093511011917146
0.03192567277699709
0.03188379564322531
0.03205360519234091
0.03233821988105774
0.03257586553925648
0.032707883685361594
0.032835080549120904
0.03304362478200346
0.033265590793453155
0.03341476136120036
0.033493216841015964
0.03350094501627609
0.03340720907552168
0.033342008688487114
0.0332682002382353
0.033337840246967974
0.033599863555282355
0.03388790438650176
0.0339565364504233
0.03384867359418422
0.03376177973812446
0.03379271251149476
0.03411046975757927
0.03463259143522009
0.03500130671542138
0.03487330552190542
0.03545913280220702
0.03632722580106929
0.037115236287936566
0.0378163121570833
0.03869495876831934
0.039876287952065465
0.04096645108424127
0.04146449302323162
0.04126954095670953
0.041505944384261965
0.04235402442747727
0.043977588531561196
0.04594434780767188
0.047429944335017356
0.047997684758156536
0.04776250429451465
0.04810019209049642
0.048772641408722846
0.049435532547067854
0.050114349147770555
0.051028413067106156
0.051761547862552104
0.0517372521921061
0.05145235833246261
0.05121238433057442
0.05154033991508186
0.051734605131205175
0.05171963637694717
0.051920836796052756
0.05236166322603822
0.052398857043590395
0.05158832300454378
0.05126929719233885
0.051610106888692824
0.051881318371742965
0.05183505889261141
0.05186279369983822
0.05174120514886454
0.051141089973971245
0.05149454773403704
0.051845941822975875
0.05161898708436638
0.05139606259996071
0.05202513186493889
0.05293606827966869
0.053439933795016256
0.0533907299512066
0.05313526352168992
0.052888428929727525
0.052550999845843764
0.05252555200830102
0.05261508007766679
0.051985608008690176
0.050783622674643994
0.04984384389361367
0.05005593501729891
0.05029798624804244
0.05047500178683549
0.05037030206527561
0.05011673998553306
0.05019784093135968
0.05065991709707305
0.05110092347022146
0.05126349562546238
0.05211161326151341
0.05366226435406134
0.05462268684525043
0.054275231182109564
0.054263434489257634
0.05420748304342851
0.0545377135835588
0.05571962133049965
0.05744574826443568
0.05874642688082531
0.058819820287171753
0.059663974442519245
0.06041361424606293
0.0604935809597373
0.06030580478953198
0.06024842367507517
0.060163457579910755
0.060529376219492406
0.0612115581985563
0.061866803327575326
0.061909465244971214
0.062480320881586525
0.06319652219768614
0.06324361206032336
0.06323928048135713
0.06389787519117818
0.06498710789484903
0.06557269696379081
0.0654402499133721
0.06581150572746992
0.0660069657373242
0.06646292680641636
0.06721083854325116
0.06726484225830064
0.0673608165839687
0.06886284841457382
0.06951389993540942
0.06940940028522163
0.0690334339486435
0.06867070285370573
0.06944985846756026
0.07100359708303586
0.07267623394262046
0.0738197234366089
0.07409786789678037
0.07441058989381417
0.07497913566417992
0.0757820339826867
0.07654478088486939
0.07671009529847651
0.07646865285001696
0.0768121509696357
0.07697383174672723
0.07657644570805132
0.07621900704223662
0.07628743609879166
0.07572440625866875
0.07536481159273535
0.07605058750603348
0.07647614820860327
0.07698760647093877
0.07783317403867841
0.0787010034150444
0.07935363185824826
0.07913800504524261
0.07776843355270102
0.07673451169161126
0.0768275622674264
0.07710394352907315
0.07780053116148337
0.07898733988869935
0.07921570352511481
0.0783461382240057
0.07824251962825655
0.07863666072953493
0.07823577105300501
0.07822344668442384
0.07899804290384055
0.08022566601866857
0.08045562364393845
0.07961537105729803
0.0803163820807822
0.08234625438693911
0.08484809124143794
0.08652955670841038
0.08665108843939379
0.08816404636017978
0.08945603734115139
0.0896961972443387
0.08951189981540665
0.08953190070809797
0.08937524431617931
0.08963429328752681
0.09049532801378518
0.09136483069276437
0.09139846713049338
0.09075253824004903
0.09116620688699185
0.0938513413327746
0.09657302099745721
0.09554285312769935
0.09728084192844108
0.10088963670190423
0.10458012357121334
0.10618557058973238
0.10637713373173029
0.10655760343652218
0.10685550720663742
0.1063415995403193
0.10575687074568123
0.10642511883052067
0.10604667743202299
0.10535991510143504
0.10565066484035925
0.10586281456286088
0.10584291052771733
0.10595007987692952
0.10569256078451872
0.10564622912090271
0.10590269316686317
0.10599853644846008
0.10589221562258899
0.10551217529224231
0.10552213085349649
0.10554421500535682
0.10476788631407544
0.10332673007855192
0.10235223638825118
0.10250109577551485
0.10225056754425169
0.10267512563848868
0.10240668748505413
0.10181717009749264
0.10217557290336117
0.10257880952907726
0.10200008304324001
0.10099919613450765
0.10140136332716793
0.10317623443203047
0.10437513440148904
0.10312067528255284
0.1009948738780804
0.09929472297197207
0.09763415008783341
0.0991368241677992
0.09950329922372475
0.09934516010340304
0.09986174765974283
0.09901504912180827
0.09746081799734384
0.09842414658283814
0.09920448465505614
0.09860807224875316
0.09833940683398396
0.09862170407781377
0.0992717449972406
0.10024349339772015
0.10040232793428004
0.09955775974784047
0.09910371942678467
0.09916136752348394
0.09919629875104874
0.09952089509461075
0.09957885672105476
0.09909218333894387
0.0997463783598505
0.09977523024426774
0.0997648337809369
0.0999073426425457
0.09924717389047145
0.09785687394440173
0.09702033770736307
0.09678083209786564
0.09569521989673375
0.09499482145300135
0.09505029684398324
0.09427898382768035
0.0933802912128158
0.09215368190314621
0.09136281034443527
0.09200463108019903
0.09176794842351228
0.09036808801582083
0.08865659426199272
0.09014229713473469
0.0933522116811946
0.09258913405938074
0.09148868387797847
0.0910669338866137
0.09139765376690775
0.09240448537049815
0.09463898758869618
0.09568501746514813
0.09509502018103376
0.09421709221089258
0.09371295933844521
0.09426086903549731
0.09343481780961156
0.09058993436396122
0.08741347264265642
0.0888038429734297
0.08714114118134603
0.08257799120619894
0.07962214960483834
0.07748476013541222
0.07746177363442257
0.07706256254808977
0.07569023984484374
0.07489352846750989
0.07483065633336082
0.07464721022872255
0.07429533721413463
0.07421162335202097
0.0736619390710257
0.07341314361197875
0.07344972409075126
0.07380040565505624
0.07408287358935922
0.07388542695902288
0.07349683717126027
0.07352174890460446
0.07296192356850952
0.07282969681778922
0.07273178884992376
0.07453580298228189
0.07762292503844946
0.0794322566012852
0.07965009079314768
0.08015446293633431
0.0800404857005924
0.07978109064279124
0.07970592525787651
0.07923575759399683
0.07831007552566006
0.07730037950212136
0.07670097967609762
0.07702294214628637
0.07642277753213421
0.07450660235714167
0.07315760069759562
0.07323471622075886
0.073060037586838
0.07227773728780448
0.07234790650196374
0.07071985775139183
0.0700748085253872
0.06935451001161709
0.06704465004615486
0.06596397583838552
0.06692643148824573
0.06599339281674474
0.0659900262625888
0.06791971356840804
0.06869159003952519
0.06814588553039357
0.06705035983351991
0.06694279442774131
0.06700774041470141
0.06713760333135724
0.06754557339241728
0.06704016167204827
0.06585193275241182
0.06462040229002014
0.06432838780572638
0.06510603923350572
0.0647301805159077
0.0653741407697089
0.06687285699648783
0.06704989020014182
0.06711123212939128
0.06811328213429078
0.06841464296448976
0.06879108619410544
0.0700418470846489
0.07213685481343418
0.07401947653619573
0.07456116742221638
0.07556249715620651
0.07768860411364585
0.07962980984942987
0.07982809458859265
0.07889749977970496
0.07880658945301548
0.07877217529341579
0.0758021567040123
0.07278809368610382
0.07206973813008517
0.07161694277776405
0.07155151711311192
0.07135090277064592
0.07053400051780045
0.06897002229001373
0.06764790245098994
0.06679909873753787
0.06640740050701424
0.06675941218156367
0.0662809874350205
0.06626175598241389
0.0663783622556366
0.066467818133533
0.06520039694616571
0.06427539982367307
0.0650476770172827
0.06448300777003169
0.0655002774996683
0.06632225582608953
0.06595943470718339
0.06776911493157968
0.0690982081159018
0.0684740645904094
0.06902204934507608
0.06983618444064632
0.07045761117711663
0.0709332081489265
0.07102435495471582
0.07206611977424472
0.07265147493220865
0.07199580320855603
0.07184623757377268
0.07114877857733518
0.07174957293085754
0.07274999652989209
0.07321927195414901
0.07418374998029321
0.07370265680830926
0.07092537026619539
0.0705313835781999
0.07272051142062992
0.07429125816794112
0.07644323671003804
0.07785230458714068
0.07776589653687552
0.08052044572774321
0.08366054001729935
0.08499220182187855
0.08497278791852296
0.08479335481766612
0.08429556927643717
0.08417028127470985
0.08410622490104287
0.08402720947284252
0.0841373105556704
0.08419245111523196
0.08408820252399891
0.08445322494255379
0.08499071846017614
0.085685576912947
0.08591656254604459
0.08512127150548622
0.08392376177711412
0.08344195423414931
0.08282646312611178
0.08195177256129682
0.08119377564406022
0.08217189888702706
0.08263507481431588
0.08142387510277331
0.08090481064980849
0.08070866789203138
0.08051629425259307
0.08066697605419904
0.08100992646533996
0.0811651984252967
0.08073757482226938
0.0802106986544095
0.08059436763869599
0.08108072854578495
0.0799512362293899
0.0790070130629465
0.07866103809326887
0.07757100630551576
0.07734589701984078
0.0771432957192883
0.07607114341342822
0.07387475217692555
0.07202361267060041
0.07187086068093777
0.0710645952494815
0.06896540129324422
0.06699676217744127
0.06653411988867447
0.06697100386489183
0.06712966495426372
0.06745522666024044
0.06758281437912955
0.0681071319943294
0.06885326644405723
0.06879127088701352
0.06872524063568562
0.07015527676325291
0.07215211341390386
0.07217236497905105
0.07184849372133613
0.07149260643869638
0.07153172723017633
0.07146799419540911
0.07279278733301908
0.07392074939096346
0.07440774276619777
0.07471957410220056
0.07482546466868371
0.07568152326857672
0.07666480649961159
0.07725892944727093
0.07627081590471789
0.07484504603780806
0.07488235373748467
0.07339618018362672
0.07205182104604319
0.07204858402255923
0.07119658710202202
0.07024068013066426
0.06944524547085167
0.06888376316754147
0.06880314484937117
0.06791278364835307
0.06685942520853132
0.06721316137351095
0.0673620326211676
0.06812191147590056
0.0678307049931027
0.06715816681040451
0.06660652241902426
0.06588817606214434
0.06545236498815939
0.0653682923829183
0.06552026690682396
0.06523026177193969
0.0633507591066882
0.06219436340499669
0.061268054987303915
0.061465103183873
0.058738002073951065
0.055413706263061614
0.05435219687409699
0.05440596165135503
0.05402522374410182
0.054158559297211466
0.05416193297831342
0.05436027580406517
0.05404925758717582
0.05386363245081156
0.053527133371680975
0.05361918806331232
0.053284278879873456
0.0528093945235014
0.052220326757524166
0.05138918312964961
0.05206412997795269
0.05285859600408003
0.052894868256989865
0.05307309675728902
0.052099438970908525
0.05216963995015249
0.05126303970813751
0.050890478556975725
0.05109308213926852
0.05183816987322643
0.052203257924411446
0.05258958283113316
0.0536778035108
0.05425788002088666
0.05393708749208599
0.054325725312810394
0.055174106617923824
0.05559529455145821
0.05453874116064981
0.0543966684024781
0.05574428111780435
0.05641923345858231
0.05652383758686483
0.05718407850246877
0.05717382312752307
0.058416361007839444
0.059389624055474995
0.059332737349905074
0.058946631604339925
0.059070908008143304
0.058820633490104225
0.05993237987859175
0.06087584717432037
0.06021497802110389
0.060592863229103386
0.0606193595379591
0.06044419888406992
0.059622113001532855
0.05906171894166619
0.05954151616664603
0.05953393808333203
0.05833912116475403
0.056466955898795274
0.05588469967478886
0.05557862012879923
0.056169308433309195
0.05628809787565842
0.05610171511536464
0.055241089658811686
0.054029853574465964
0.053438771474175153
0.05334122597239912
0.05304766903165728
0.051507475131656974
0.050038230235222726
0.0499445397942327
0.0503319613984786
0.05034036971628666
0.05048948042560369
0.05015992988133803
0.049732255106791856
0.04993387270485982
0.050217401881236585
0.05092708070995286
0.051305898404680195
0.05164161170599982
0.052300161535386
0.05218230505939573
0.05241766542196274
0.052181378945242614
0.051610376082826405
0.05116126405075192
0.05141021508490667
0.05210149365244433
0.05238914960063994
0.054435385840479286
0.054996973837260155
0.05589169569080696
0.05634057007730007
0.05448449043557048
0.05588357612257824
0.05696284337900579
0.05705055787228048
0.05677164970431477
0.057092852832283825
0.057442767287138846
0.057327945923898366
0.05723445030162111
0.05775003738002851
0.058221209212206304
0.058240505466237665
0.05861233110772446
0.05956428706878796
0.059958484089002013
0.060295588050503286
0.06027348374249414
0.06085953418398276
0.06089216648368165
0.06069979356136173
0.06205763755366206
0.06176431017694995
0.06187635957961902
0.06228946315590292
0.06240808756789193
0.06333516927668825
0.06342673449311405
0.06326065744506196
0.06322939955396578
0.06344162479275837
0.06258003815542906
0.06253463785862551
0.06204284365056083
0.060803577513433994
0.05996281039668247
0.05997704751091078
0.05932859288761392
0.05842278546188027
0.05734446360729635
0.05782943612663075
0.057680138936266306
0.057428367661777883
0.05899460596498102
0.06072195031214506
0.060327264808584004
0.06234139729291201
0.0625714002829045
0.06181497393641621
0.0625232794159092
0.06268988038413227
0.06311195496702567
0.06374196686083451
0.06258799663977697
0.06149871878325939
0.06171049351803958
0.06078740181634203
0.060294708195142446
0.06027675175108015
0.06124730182811618
0.06275871601887047
0.0636843046778813
0.06368356743128971
0.06381298335734754
0.06344304910395294
0.06352543168002739
0.06337317767553032
0.0630038386513479
0.0625871477741748
0.06253165559144691
0.06206223737448454
0.06210157229797915
0.06239157464588061
0.0625224573421292
0.06250885554822162
0.06258524942910298
0.06275729552842677
0.06250943314982578
0.06217926745302975
0.06260909114265814
0.06304294999921695
0.06344144274247811
0.06355700393207371
0.0636629129643552
0.06358983285259455
0.06304488593013957
0.06413040044251829
0.06555435963673517
0.06496299618622288
0.06753147383918985
0.06993248228449374
0.07027022526133805
0.07083162311464548
0.07052613808074966
0.07039124127011746
0.07003805574728177
0.07002088667592034
0.06787842773832381
0.0666162044252269
0.06583219221327453
0.06423945015762002
0.06452434785664081
0.06320461275987327
0.06121855227043852
0.06041685256641358
0.0605925061670132
0.0601728622126393
0.06031383437570184
0.060321341105736795
0.060536264476832004
0.060581454238854346
0.06009203323395923
0.060198459511157126
0.06020397172542289
0.0595354139409028
0.0592117979330942
0.0595496690319851
0.05946263181278482
0.05929837352829054
0.059127758191898465
0.058574594683013854
0.057439143862575294
0.05734708495205268
0.05686162462690845
0.05641750310314819
0.05635584410978481
0.05643974304432049
0.056451261322945354
0.05698342623654753
0.05708244952140376
0.056695117349736396
0.05697021187515929
0.057222810797393324
0.05767980370670557
0.05795579474652186
0.05791111149592325
0.05783825585152954
0.057893164758570495
0.05769317975034937
0.05770677929278463
0.056976230051368475
0.05678286632522941
0.055806079441681505
0.05337656104005873
0.05184971518581733
0.051920508972834796
0.04968890651129186
0.0490110086533241
0.05051204585935921
0.05081001969520003
0.05129008684074506
0.05285384305519983
0.05491039925487712
0.055471948543563486
0.05620799229480326
0.05689418934751302
0.056961315686348823
0.05723983655683696
0.057050804574973885
0.05687293916242197
0.05550531761720776
0.05415401898091659
0.054391610007733106
0.054238430513069036
0.05460362860467285
0.05424633079441264
0.054472311122808606
0.05449866305338219
0.05520491627743468
0.055308410888537766
0.05540136542636901
0.055212184293195604
0.054566025957465174
0.05473968025064096
0.05522552865324542
0.055075718997977675
0.05456428677076474
0.054455704728607085
0.05437612436944619
0.054636528003029525
0.054789463060442356
0.05458127595949918
0.05455129768000916
0.05416581643046811
0.05398621346568689
0.05454365306068212
0.053617491889744996
0.05227571208029985
0.05329525417648256
0.05118313651997596
0.04874873332679272
0.04873669914901257
0.04836238301126286
0.04949847247917205
0.04957613384583965
0.04932820928050205
0.04993246648693457
0.050117005829233674
0.050544870377052575
0.05078296212712303
0.05037975077051669
0.05027456056792289
0.049927583960816264
0.050695580521132794
0.05143769172951579
0.051572915508877486
0.051600436063017695
0.05115122342016548
0.051366353745106605
0.051678540606517345
0.051898629476781935
0.05211399459512904
0.05214514582650736
0.052395072600338606
0.053063340634107586
0.05349375420017168
0.05331038991687819
0.05330531035549939
0.052990728535223755
0.05286537559935823
0.05287415608530864
0.052691975987982004
0.05269963839789853
0.0524428190337494
0.05231114116264507
0.051750363062601536
0.0509997199755162
0.050876894674729556
0.050600645365193486
0.050437927744351324
0.050498304604552686
0.050579133848659696
0.05006725916871801
0.04948942447314039
0.049245874828193335
0.04955546931363642
0.04980564683908597
0.049908386326860635
0.05062800482613966
0.05147299453616142
0.051501423586159945
0.05198489083908498
0.05260835728375241
0.05292732081376016
0.05416286918800324
0.054614323016721755
0.05552590251900256
0.05636825796915218
0.05540524627547711
0.05513012196868658
0.055334761303383856
0.05353307096520439
0.05264544035308063
0.05293512236094102
0.051923713041469456
0.051408462836407126
0.05169241620227694
0.05083033859962598
0.052290935234632345
0.05296129903290421
0.0525279130320996
0.053863960672169926
0.05435485326452181
0.0547589015471749
0.05517868630820885
0.055799329024739566
0.0569977973238565
0.05747295338427648
0.05728691316908226
0.05863378182519227
0.06004270013654604
0.05999732383759692
0.06146458339877427
0.06215386749478057
0.06282306324224919
0.0646507941535674
0.06647436197148636
0.06685139081440866
0.06723114667925983
0.06705813459586352
0.06664799061138182
0.06678951998241246
0.0673710142984055
0.06783277958165854
0.06754289980279282
0.06700657182838768
0.06660083287162706
0.06652303741546348
0.06557883010013028
0.06532566860085354
0.06599987907800824
0.06738193542929366
0.06789759396808222
0.06701580949127674
0.06646453084424138
0.06631362238433212
0.06567727706860751
0.0654554550605826
0.06508028547978029
0.06508132386021316
0.06582427394809201
0.06553485909942537
0.06674753786530346
0.06796011260943487
0.06814962329808623
0.06798574818763882
0.06852758639026434
0.06898595708422363
0.06933848184533417
0.06948085986077786
0.0687481947010383
0.06956172669539228
0.0708011208078824
0.07044909759424627
0.06982219916535541
0.06971549784764647
0.06947093362221494
0.06983150974847377
0.06999004306038842
0.06980313029838726
0.0701707916916348
0.07014089719159529
0.07009358866605908
0.0703925966261886
0.07047890322515742
0.07061028748983517
0.07037494799820707
0.07066989616723732
0.07058397536166013
0.07127327510621399
0.07225595454918221
0.0722229181136936
0.07227792379446328
0.07255451679928228
0.07288443942554296
0.07348922424716875
0.07447933533461765
0.07518985653296113
0.07495828143786638
0.07471288843778894
0.07490208118688316
0.07463931479724124
0.07510976389516145
0.0758829065435566
0.07485598841914907
0.07419544670032337
0.07431919960770755
0.0737994283088483
0.0739230881840922
0.07309669417794794
0.0724385031638667
0.07164206898771226
0.0700602601072751
0.06927285497775301
0.06939661056734621
0.06918217625003308
0.06842014418914914
0.06836432363372297
0.06703625082969665
0.06591383855091408
0.06608601498650386
0.06489255695370957
0.06457847829442472
0.06449434000300243
0.06417328835232183
0.06374077016254887
0.06241167260101065
0.06160486223176122
0.06183676437707618
0.06161247475771234
0.060623451594728976
0.06063323911977932
0.05956616582116112
0.05936677038203925
0.058949320763349536
0.057272248070221396
0.056221962701529266
0.056158798111137005
0.05609244961757213
0.05607022098731249
0.05656219336669892
0.05695610676892102
0.05731277412734926
0.058094669179990885
0.0588031376269646
0.05870917786611244
0.05918508204165846
0.05984130076598376
0.0611645584506914
0.06209386344766244
0.061558265516068786
0.05986191596835852
0.059369689610321075
0.059515256725717336
0.05953107340727001
0.05948019377421588
0.05986663667950779
0.061082232736516744
0.06181107502197847
0.06124119725311175
0.06088718412211165
0.06109301578020677
0.05979055141797289
0.057681089993566276
0.056551453883294016
0.05672646175371483
0.0568003891245462
0.05672772873891518
0.05608638006728142
0.05535671770805493
0.05550566614139825
0.0542845699051395
0.05287349923280999
0.05232686751522124
0.0520388504723087
0.051644178139977154
0.05163463254924863
0.051440028611104936
0.05180615052580834
0.05296088919974864
0.053820464692544194
0.05428087452426553
0.05453255805652588
0.05563938510604203
0.05694540256168693
0.057173258373513815
0.057162987750489266
0.05695348968962208
0.05700859366450459
0.05591443168465048
0.05530787382274866
0.05567490596324205
0.05591521844267845
0.055639734040014446
0.05588261654833332
0.055827297975774855
0.05492535984143615
0.05686577522894368
0.05950124063063413
0.059778438000939786
0.06010876202955842
0.05993806268554181
0.05887346288189292
0.05779579265508801
0.05727481867652386
0.05751052334206179
0.05719495479715988
0.05656713149510324
0.05597016458399594
0.0559295221650973
0.05616531430045143
0.0568131487746723
0.05662445516558364
0.05696939176414162
0.05739626500988379
0.05794413208728656
0.05866417879238725
0.05881850572302937
0.058913355378899725
0.058567571870516984
0.058760458549950274
0.058856049582827835
0.05918250691145659
0.06008415922056884
0.06028658305061981
0.06124151398893446
0.06298891581827774
0.06404632987454534
0.06360406763851642
0.06280141367577016
0.06272807350149379
0.06268838981166482
0.06294075476238505
0.06237740870332345
0.06176175671396777
0.06183007636340335
0.061804419388063254
0.06213684532092884
0.06204792078817263
0.062255677424836904
0.06248735612491146
0.06232007675105706
0.06144364056410268
0.060357364248484376
0.060106023265980184
0.06076261564856395
0.060608556754887105
0.060062882555648685
0.05970596962142736
0.059391666101291776
0.05950754859251901
0.05982931568985805
0.060123848579823974
0.06040539009030908
0.06040285157971084
0.06079028160078451
0.06120630454039201
0.06065664620371535
0.05991728947265074
0.06073115921812132
0.06085117582464591
0.060858287787996235
0.06178735142340883
0.06213243713602424
0.06271185150370001
0.0632244516722858
0.0634232830372639
0.06362191264517605
0.06355377756757662
0.06395225080661476
0.06428398748161271
0.06473375064786524
0.06515162972500547
0.06508866612100973
0.06600421980023384
0.0664086096920073
0.06698188903275877
0.06795734232990071
0.0679026570962742
0.0687866934388876
0.06860000557033345
0.06842133912723511
0.06837651196634396
0.06729623111430555
0.066922101106029
0.06636314143892377
0.06762450388399883
0.06869109883438795
0.06871968457708136
0.0701986377616413
0.07071780557511374
0.07005549124674872
0.0697371927392669
0.0697804225841537
0.06913101800251752
0.06846399457426741
0.06848896806361154
0.06566180326510221
0.06315403332700953
0.06282052831957116
0.062227655497845265
0.06218413850059733
0.06214730087667704
0.06253585679456591
0.06264893829124048
0.062304176471661775
0.06178709397558123
0.06147831945912913
0.06192789708962664
0.06257022179663181
0.06227735282154754
0.061786516094580295
0.06213100093184039
0.06253387114498764
0.06245043312432244
0.06174654189730063
0.06119833749020472
0.06134453305741772
0.06117306709988043
0.06146377927623689
0.06113248805748299
0.06101250597741455
0.060743431586306545
0.059800931352656336
0.059457695952150974
0.05847537661669776
0.057413783301599325
0.05729533225065097
0.05696075373096392
0.057562243898864836
0.05815362513996661
0.058284042694140226
0.05862859843997285
0.05839285296620801
0.058532540346495805
0.05843606415437534
0.05787993582198396
0.057331565644126385
0.05763269822811708
0.05754695637151599
0.05703662345185876
0.05676155913621187
0.056872826109174636
0.05670769294956699
0.056316300889011475
0.05584516021655873
0.05597593723563477
0.05551522404886782
0.055096014228183776
0.05510917507344857
0.05503720006672665
0.05479682698380202
0.0544512228644453
0.05387271825922653
0.0536638928251341
0.05400092702591792
0.05389022773131728
0.053265091050416234
0.053438414519187065
0.052579723328817635
0.05236284440383315
0.052270138759631664
0.05149354701861739
0.051566254920326175
0.0514589315908961
0.05057438268791884
0.050297855068929496
0.05019792498089373
0.050267133328597995
0.04974331715609878
0.04960299886530265
0.04989014969207346
0.04993594500934705
0.05031643588561565
0.049701648179907354
0.04935956326080486
0.048544940243009475
0.048515242824796585
0.050008237783331425
0.04968952744500712
0.04937314137583598
0.052061921425629404
0.05340789281995967
0.05368221380282193
0.053934900676831606
0.05399916178779676
0.052864338760264216
0.05156290757702663
0.05145717026200145
0.05062982419040054
0.05030653543304652
0.05046795242233202
0.05065095911733806
0.051466557928360995
0.052137310756370424
0.05264343714341521
0.05409140700707212
0.0551765021472238
0.05510663107968867
0.05575908182421699
0.05590436992002651
0.05658700891304761
0.0571702857548371
0.05720571031793952
0.05830761223565787
0.05891578815877438
0.05878405775176361
0.05932245265692473
0.06001037576701492
0.06035370633238926
0.06030421078205109
0.06060270196991041
0.06048873935360462
0.059827664399053904
0.0598138540959917
0.05981055271811783
0.06039477200945839
0.060719410302117464
0.06111707895528525
0.0620552589581348
0.06244511024095118
0.06289275517687201
0.06302260532975197
0.06254049157723784
0.06253778080455959
0.06254845191724598
0.06203069534152746
0.061365226141642776
0.06142801369307563
0.060606812131591144
0.0596635466394946
0.059634691164828835
0.059411256890743974
0.05987424806691706
0.06018714874982834
0.06190937775652856
0.06270097198197618
0.06276305707171559
0.06260698919882998
0.06258961092215032
0.06251309382962063
0.062346600405871866
0.0624737940938212
0.0626122754602693
0.06281813357956707
0.06293810470495373
0.06234024490229786
0.06263277542311699
0.06191397401737049
0.061053755951579664
0.06097224164986983
0.06168474076781422
0.06197739165043458
0.061868312812875956
0.06199480528244749
0.061039743081200866
0.06008726653875783
0.06029988621594384
0.060276672046165915
0.06026290731038898
0.06016395065234974
0.059976828768849376
0.059980097997467965
0.0597016278328374
0.059953791643492876
0.06043265796732158
0.060200143633410336
0.060739755961112675
0.06150012221187353
0.06165412314003334
0.0616908368607983
0.06168771293247119
0.06148472811328247
0.06111685170093551
0.06089568660827353
0.0610816808626987
0.06208009296562523
0.061508714107330886
0.06010655565652996
0.060087887849658725
0.05976822018623352
0.05886265049688518
0.05963413827586919
0.0590649156505242
0.060045351807493715
0.06093457285081968
0.06124655063031241
0.061746539641171695
0.061920043609570714
0.06221981388051063
0.06254550190409645
0.06241197417955845
0.06296710863476619
0.0632574960659258
0.06260907597839832
0.06374811818124726
0.06402466444764286
0.06324314895318821
0.06351815049769356
0.06261511337710544
0.06244816686259583
0.06222331318305805
0.06245949251577258
0.06207289500627667
0.060994605503510685
0.06044619034975767
0.06060942833311856
0.060267975500319156
0.059380681798793376
0.05835492049343884
0.058412512941285966
0.0582323255459778
0.058394452081993224
0.05838470129296183
0.0589153368701227
0.06000454820692539
0.05972543285228312
0.05960262891370803
0.06060692010680214
0.06077924738405272
0.06082242656731978
0.06021412278292701
0.05966458471259102
0.05950269809458405
0.059170206792186944
0.05931260139681399
0.05959401756990701
0.05960940848570317
0.05944110279437154
0.05912987135816365
0.05911735265282914
0.05945130599197
0.058797808699309825
0.059147654892876746
0.05931285125203431
0.058377387032378464
0.05933720101136714
0.059842526563443244
0.059795905097853395
0.05942811504704878
0.059175847903825345
0.059016664414666596
0.05966378889046609
0.06067157134413719
0.06073414474260062
0.060445822151377795
0.060451016870792955
0.06024597297189757
0.060451424047350884
0.06088775553042069
0.06070299400947988
0.06028006447246298
0.060607110566925256
0.0611853635404259
0.06112304959213361
0.06149735091021284
0.061494230553507806
0.06137552381725982
0.06167536661028862
0.062089017725083975
0.06259758270578458
0.06419330773409455
0.06528478253399954
0.06569323820061981
0.06555227565811947
0.06557330921757966
0.06552920720074326
0.0658604852645658
0.06628438063664362
0.06645587034989148
0.0661253070179373
0.06537244160892441
0.06500548440730199
0.06554476843215525
0.06645064200740308
0.06652207097038626
0.06574263544753194
0.06566821624757722
0.06511593322502449
0.06426189231686294
0.0644681885978207
0.0622778941062279
0.060758507635910064
0.06275245048105717
0.06229606423992664
0.061848307002801445
0.06351307039847598
0.06440751751651988
0.0644155308767222
0.06410853373352438
0.06370905203744769
0.06500923104584216
0.0650326935457997
0.06379858839325607
0.06402700705686584
0.062409354171250014
0.060713814729824664
0.06042580903507769
0.06045496615581215
0.06078367241891101
0.06110038972459733
0.060682823166716846
0.06023374736309051
0.06079138277564198
0.060865851156413554
0.06101154711795971
0.06093819505069405
0.060643332286272195
0.061043879077769814
0.06202990154037252
0.06265099461656064
0.0624057889636606
0.06317179646342992
0.06428278288105503
0.06378602440003306
0.06282304511405527
0.06267859767423943
0.06273344823392107
0.06216223602415994
0.061336653102189304
0.06079120312584564
0.06101387370610609
0.061123651119414715
0.06136941899545491
0.06154554794775322
0.06121838143095374
0.060654440727084875
0.06051923279184848
0.060807558556552975
0.061313289450481534
0.06248299538390711
0.06378315571462735
0.0644416609685868
0.06408023581840099
0.06497339020250364
0.06526891311397776
0.06363708491437137
0.0643632809794508
0.06534459450747818
0.06519279224798083
0.0651610746094957
0.06507453721016646
0.06427439359016716
0.06360618281876668
0.06365961808012799
0.0639837520639412
0.065304296950344
0.06609051474602894
0.06598714662715793
0.06615706541342661
0.06674615069292486
0.06682059511542321
0.06600761752342806
0.06574807264842093
0.06594706251751631
0.06564120100578293
0.06561075629433617
0.06640102174598723
0.06692618972156197
0.06659094263100997
0.06670718524605036
0.0659342885389924
0.06528966144891456
0.06531167960725724
0.0651961395307444
0.064993658317253
0.06492192175937817
0.06378820902435109
0.06328134077601134
0.06292020587250591
0.0638489216286689
0.06423002657946199
0.06525430887471885
0.06509155415231362
0.06562834507087245
0.066960369348526
0.06723106283228844
0.06741736417636275
0.06820104220649227
0.0682113684923388
0.06770891950465739
0.06829988117329776
0.06761580847436562
0.06588438743026927
0.06483862932072952
0.06437424680683762
0.062478249708656224
0.06149731029290706
0.06170995358610526
0.061606844852212815
0.060984610083978624
0.05986524677602574
0.05895226933062077
0.059480750737711786
0.059779882468283176
0.059940616607200355
0.060030171002727
0.060544150194618854
0.05990488515701145
0.059272685863543305
0.05895664845826104
0.058891914640553295
0.05850012170150876
0.05799416670110077
0.05778228614246473
0.05865425414405763
0.060461055235937235
0.061051442241296175
0.06039161743363366
0.05956107888370752
0.05895849113818258
0.06025232781656086
0.060688101332634685
0.05984520314261317
0.05936501302290708
0.0596864666743204
0.059504571093712
0.059584435713477435
0.059527610305231064
0.05935164689086378
0.05947934416355565
0.05936972697032616
0.06001621409552172
0.06103150709997863
0.061767041066195814
0.06222887752112001
0.06242993841180578
0.06233704063342884
0.06214914596173912
0.06214301734697074
0.06177135192789138
0.06091206926619634
0.06055704685393721
0.06200492006260902
0.0627906363690272
0.062372949842829255
0.0625892518647015
0.0616717492043972
0.061051452497486024
0.061659077368676665
0.061991842419374735
0.06256322127999737
0.06323406080016866
0.06328370836330578
0.06342655685264617
0.06393618857720867
0.06307197882793844
0.062173023116774855
0.0622941087000072
0.06201691555092111
0.06135871938895434
0.06174570544157177
0.06345823200885206
0.06427366484189406
0.06429019466973841
0.06502013513818383
0.06494683768833057
0.0641981168743223
0.06356688489904627
0.06460304720327258
0.06383912127232179
0.06374659963184967
0.06367529744049534
0.06329552330542355
0.06343563365517184
0.06401054543443024
0.064164732855279
0.0640718384552747
0.06330218991264701
0.06382917473791166
0.06296601930866018
0.06329861422535032
0.0629835392627865
0.06271772095235065
0.06181483349762857
0.060417619808577
0.06005970738828182
0.059726897284854204
0.05955748842330649
0.0594784793513827
0.05937065441859886
0.059342060736380514
0.05946066270116716
0.05914220286766067
0.05878924339311197
0.06014773662667722
0.06166812473908067
0.06224093886092305
0.062079652457032355
0.0627780975564383
0.06385913820471614
0.06410714826080949
0.06431414673337713
0.06385074835969134
0.06344416260719299
0.0632219145190902
0.06267357642529532
0.06220063341083005
0.062373513234779236
0.06310751345939934
0.06318291160976514
0.06373090750770644
0.06510041625937447
0.06627079286845401
0.06670585190644487
0.06561611423036083
0.06354219547705725
0.06258930182317272
0.06293393732048572
0.06405753272818401
0.06459961872315034
0.06424746529199182
0.06495065935188904
0.06618917528307065
0.0661628131265752
0.06653951080748811
0.06681009993888437
0.06625806280411779
0.06543641842203214
0.06528128649340942
0.06511655223788694
0.0654463223204948
0.06476840780116618
0.06429039596347139
0.0644785145483911
0.06442923084832727
0.06489275024970993
0.06605644045397639
0.06691645195009187
0.06652557301567867
0.06600686013698578
0.06548047656659037
0.06512704638531432
0.06299539147177712
0.060788585413247345
0.06019621687941253
0.06011460168054327
0.05984180411556736
0.05947159567615017
0.05911426735110581
0.05882324259029701
0.05839336168253794
0.05784712736029178
0.057566051217727364
0.057903190101496874
0.058757922989316286
0.05951061573810876
0.05991765708662569
0.06075293840607628
0.060439638304524125
0.06117201146669686
0.060971044935286045
0.05917411379283294
0.05843745151069015
0.05813563133357093
0.05788799322908744
0.05837649688823149
0.058236535638570786
0.057780317040160296
0.05684965444961563
0.05671196793671698
0.05621900834143162
0.05577114015817642
0.056280192211270334
0.05663898566737771
0.05591146890772507
0.05608023850014433
0.05664018234470859
0.05704163553426042
0.056656534962821754
0.05653696110472083
0.05612418665550649
0.05560575120383873
0.05561272415565327
0.05503823106875643
0.05446953351376578
0.054585141381248835
0.05466981359757483
0.053970874762162564
0.05334814324509352
0.05389620163710788
0.05370812035864219
0.05325586647959426
0.05333223218563944
0.05320479473099113
0.052484179839957505
0.05093606718117371
0.05052179177524522
0.05097768584964797
0.05043848117114976
0.05059925162233412
0.05155782264890149
0.05144521252252161
0.05301358194788918
0.05414138186955825
0.05405121540883556
0.054309266761410985
0.05481754468055442
0.054724816652014854
0.05450748696457595
0.05508776259375736
0.054265834130346774
0.052951729053165766
0.05152228605002165
0.05165780966402963
0.05325936305103823
0.05511534908087924
0.05581583979306742
0.055601152083836494
0.055116368245799095
0.05510735776508227
0.054879127452149984
0.05357709453906864
0.05282069220440462
0.05306682327995077
0.05264947684714571
0.05243574298685417
0.05275500164367258
0.05317362535512075
0.05331467140465975
0.05456534323049709
0.05537078231805936
0.05582165331346914
0.055169752547517416
0.054182836483232674
0.05395717061823234
0.053434397622477266
0.052839080730918794
0.0526704433048144
0.05285430602263659
0.05291188177885488
0.053594399399589744
0.0543762400560081
0.0544816607888788
0.054149437532760206
0.053970271367579696
0.053568946528248486
0.05310863269725814
0.05296195391332731
0.052978869213256986
0.05290202367119491
0.05339344532461837
0.054712897310964764
0.05563305678544566
0.05593446654034778
0.05675255506997928
0.05701540408656001
0.056813106175977734
0.05614106396911666
0.05602485494920984
0.055174832281190904
0.054705739852506666
0.054663968842942265
0.05484251209069044
0.055438187529798594
0.055059738259296866
0.05466157042887062
0.05496157709276304
0.05566687879385426
0.05598324036691338
0.05660125769674778
0.05750071228016168
0.05783016704954207
0.05788420330965891
0.057955554344225675
0.05816255941987038
0.05789028361439705
0.057920958972536025
0.05826150146313012
0.058609444838948546
0.058832027646712956
0.058735071991104636
0.058578993040136994
0.059104475162457676
0.05984527200227603
0.060371298380196094
0.06013622755650431
0.06061172643210739
0.061718438083771615
0.061943558868952094
0.061725343989674004
0.06129874859470874
0.062239830621983856
0.06281589542748406
0.06288816187530756
0.06303197929868475
0.06334545432589948
0.0631920290295966
0.06229330074274912
0.06233692431822419
0.06210186409996823
0.06107168329181149
0.06098819520091638
0.0594411874236539
0.058231635140255096
0.05837646777741611
0.05836965957423672
0.05809186376864091
0.05844855000032112
0.05836767260683701
0.05768203073879704
0.057798699988052246
0.05779296838212758
0.05774678744142875
0.05753605835372582
0.05641508084256202
0.054644922697916626
0.054342791691888125
0.054434122971724716
0.05396095243282616
0.053500420285854486
0.05290066783782095
0.05307530049234629
0.05374756636330858
0.054115909016691145
0.05441177339293063
