9.572618808746338
9.61273764848709
9.706807200908662
9.81724812746048
9.894985752105713
9.91225159406662
9.917494423389435
10.011962714195251
10.16162154197693
10.207183163166047
10.122539114952087
10.077604377269745
10.179754221439362
10.266461293697358
10.15463094472885
9.980018951892852
9.964555349349975
10.047776918411255
10.054172501564025
9.972899072170257
9.887764472961425
9.826712515354156
9.766504855155945
9.72560941696167
9.774129400253296
9.909318959712982
10.032430484294892
10.068944683074951
10.02057410955429
9.940496680736542
9.887017195224763
9.885378654003143
9.914392368793488
9.904771213531495
9.83053410768509
9.765554547309875
9.768687558174133
9.837831735610962
9.96236035346985
10.12981897354126
10.306206712722778
10.404549012184143
10.36890007019043
10.299622669219971
10.296579625606537
10.271238145828248
10.157928714752197
10.084215998649597
10.137777545452117
10.24451988697052
10.308933491706847
10.272983248233794
10.119194049835205
9.888833310604095
9.672785134315491
9.575044560432435
9.583643033504487
9.579587647914886
9.56573884010315
9.638097603321075
9.77006362915039
9.830672698020935
9.747416646480561
9.622358801364898
9.608323338031768
9.659794228076935
9.642735769748688
9.590979940891266
9.612816927433014
9.69703103542328
9.765375874042512
9.83395693540573
9.960835130214692
10.074544022083282
10.101460103988648
10.132067186832428
10.20411414861679
10.17120790719986
9.981301817893982
9.839188647270202
9.767547154426575
9.717667300701141
9.648077492713929
9.656376702785492
9.772572309970856
9.912958433628082
10.02678435564041
10.062724084854127
9.954512877464294
9.775216522216796
9.67412470817566
9.689070010185242
9.768155739307403
9.82910413980484
9.802438673973084
9.771375195980072
9.886402425765992
10.091625428199768
10.19403386592865
10.12378851890564
9.999838652610778
10.000588099956513
10.146023080348968
10.287403349876405
10.330866584777832
10.30650039434433
10.273977818489074
10.278819320201874
10.306579759120941
10.281871600151062
10.207668204307556
10.22729597568512
10.4272301363945
10.639050099849701
10.650420072078704
10.56636794090271
10.624018676280976
10.77595086812973
10.831487309932708
10.791970686912537
10.767355654239655
10.741367366313934
10.640444190502167
10.539396874904632
10.516789290904999
10.449917967319488
10.288782367706299
10.238130888938905
10.369442586898804
10.44438242673874
10.451484501361847
10.439063110351562
10.431938686370849
10.373632073402405
10.269743225574494
10.193990397453309
10.14236174106598
10.072982566356659
10.034546320438386
10.04010198354721
10.041543114185334
10.063827946186066
10.096362800598145
10.069723761081695
10.035148849487305
10.045722167491913
10.00579592704773
9.863093135356904
9.736452791690827
9.763093843460084
9.890846235752106
9.925927760601043
9.817922511100768
9.699629192352296
9.662591917514801
9.687071495056152
9.712919554710389
9.67553941488266
9.573735158443451
9.526478114128112
9.60972562789917
9.669310030937195
9.5328298330307
9.342876176834107
9.359037945270538
9.505668501853943
9.523251659870148
9.408117179870606
9.316683752536774
9.285891425609588
9.248106315135956
9.177124581336976
9.1424929022789
9.159602460861207
9.136130585670472
9.095562245845795
9.152966361045838
9.235675139427185
9.215355846881867
9.179585707187652
9.267273228168488
9.433623456954956
9.541516664028167
9.581065437793733
9.636036038398743
9.702843537330628
9.747007215023041
9.791351964473725
9.830651445388794
9.838203246593475
9.810726697444915
9.726551487445832
9.615006244182586
9.579273681640625
9.636618571281433
9.717419843673706
9.787195913791656
9.830848286151886
9.806217453479768
9.694771139621734
9.57932645559311
9.555205597877503
9.599827077388763
9.672110345363617
9.765311057567596
9.80872212409973
9.758818702697754
9.715162863731384
9.779328253269195
9.912097423076629
10.006220664978027
10.03797800540924
10.079450335502624
10.129637546539307
10.078897216320037
9.93653710603714
9.84932596206665
9.879907886981965
9.979544441699982
10.078996531963348
10.154197819232941
10.21829622745514
10.24893589735031
10.262345111370086
10.336668672561645
10.420623006820678
10.380029733180999
10.281212997436523
10.300280005931855
10.378408749103546
10.298343214988709
10.068657827377319
9.90715458393097
9.879858086109161
9.87428120136261
9.838053443431853
9.809708106517792
9.815996754169465
9.852940137386321
9.912881281375885
9.985584948062897
10.063144378662109
10.132719478607179
10.175835826396941
10.19562192440033
10.170695238113403
10.067932994365693
9.973999617099762
10.017737419605256
10.143182711601257
10.175608217716217
10.094035422801971
10.03051430463791
10.025345981121063
10.016604516506195
10.030564744472503
10.11125288248062
10.169896416664123
10.124880073070527
10.014294378757477
9.914822912216186
9.872845921516419
9.856251499652863
9.823962595462799
9.830003011226655
9.898518512248993
9.96124078989029
9.982890603542328
9.974964654445648
9.97157851934433
10.009165596961974
10.101234874725343
10.270745391845702
10.443588018417358
10.447392654418945
10.311253507137298
10.244418828487396
10.290316264629364
10.332562117576598
10.337684829235076
10.368728423118592
10.422310440540313
10.400069208145142
10.286902055740356
10.19319931268692
10.162473757266998
10.13515408039093
10.106012859344482
10.13332611322403
10.204286770820618
10.237927544116975
10.234404418468475
10.284387834072113
10.382895450592041
10.412186768054962
10.35089426279068
10.282073447704315
10.225752279758453
10.148062918186188
10.072970201969147
10.080566804409028
10.181002957820892
10.277411515712737
10.333803358078002
10.382478172779082
10.362430889606475
10.249971842765808
10.155690484046936
10.117812101840974
10.090817801952362
10.047564189434052
9.983001477718354
9.977975952625275
10.070298929214477
10.126341698169709
10.097011423110962
10.072192583084107
10.045881464481354
9.962793872356414
9.854120948314666
9.800250515937805
9.79761860370636
9.715453646183015
9.561943807601928
9.552728972434998
9.71245475769043
9.841345438957214
9.886589272022247
9.923060920238495
9.932810447216035
9.8748357462883
9.842230384349824
9.981531567573548
10.22502104282379
10.333906497955322
10.258495569229126
10.139426207542419
10.044866569042206
9.948079640865325
9.8237606549263
9.699350209236146
9.626776266098023
9.603973274230958
9.630334346294402
9.726718623638153
9.839188854694367
9.934031343460083
10.063143310546875
10.213463923931123
10.308037950992585
10.315730874538422
10.261609649658203
10.206749839782715
10.171709563732147
10.131614081859588
10.11738914012909
10.149657814502715
10.202186534404754
10.277968039512634
10.343983063697815
10.383851132392884
10.445892767906189
10.457885704040528
10.382232944965363
10.403600304126739
10.526039052009583
10.510633175373078
10.363886222839355
10.298508634567261
10.33432008266449
10.310516209602357
10.220675339698792
10.222474136352538
10.257909586429596
10.166013860702515
10.077064304351806
10.112116115093231
10.079885449409485
9.888370909690856
9.772437982559204
9.891297698020935
10.04559016942978
9.984518432617188
9.804156064987183
9.745450639724732
9.787075281143188
9.8011412191391
9.828321495056151
9.935555527210235
10.076491463184357
10.166322669982911
10.177738642692566
10.136604766845704
10.007088360786438
9.796847205162049
9.711054739952088
9.807867555618285
9.839031999111176
9.719148125648498
9.612107424736022
9.57841774702072
9.589401481151581
9.628922679424285
9.645445473194123
9.643489918708802
9.689953780174255
9.778096868991852
9.840384449958801
9.854968359470368
9.857606611251832
9.844654252529145
9.784652292728424
9.745876924991608
9.770245320796967
9.72861836194992
9.619728455543518
9.662079627513885
9.869951224327087
9.990069708824159
9.915460760593414
9.832559535503387
9.859190044403077
9.854578635692597
9.806974461078644
9.863449261188507
9.912180047035218
9.826466019153594
9.799816000461579
9.944258508682251
10.081317336559296
10.068704266548156
9.977902736663818
9.941891827583312
9.925931482315063
9.825517556667329
9.75789724111557
9.874006989002227
10.019989178180694
9.960159857273101
9.72592999458313
9.550094220638275
9.528840355873108
9.508883213996887
9.444962701797486
9.479459853172303
9.555091955661773
9.538573536872864
9.556238229274749
9.713356370925903
9.891334793567658
9.983603746891022
9.985872473716736
9.936786179542542
9.861458921432495
9.762697818279266
9.70937889099121
9.737671241760253
9.727211318016053
9.611647703647613
9.490029845237732
9.432570052146911
9.410773575305939
9.355072486400605
9.22616211414337
9.121153876781463
9.127093539237976
9.129898602962493
9.038250150680541
9.003503544330597
9.173755350112915
9.396376922130585
9.441860535144805
9.370172452926635
9.319734869003296
9.23957570552826
9.139808139801026
9.126682968139649
9.145624883174897
9.100846774578095
9.013096690177917
8.931687586307525
8.907544145584106
9.009501116275787
9.275487246513366
9.614079043865203
9.798727502822876
9.74988644361496
9.700141525268554
9.865130288600922
10.16182270526886
10.332458741664887
10.266824736595154
10.150301008224487
10.137971487045288
10.121986708641053
10.03076690673828
9.966709258556365
9.941192483901977
9.852607207298279
9.723215854167938
9.684032464027405
9.759751749038696
9.851556029319763
9.925572235584259
10.00065712928772
10.000859241485596
9.914319667816162
9.896454758644104
9.988289155960082
10.05730443239212
10.051447560787201
10.029864637851714
10.063532638549805
10.174008989334107
10.27495727300644
10.288830580711364
10.245513980388642
10.180438148975373
10.074889738559722
9.916485238075257
9.794765875339507
9.822179234027862
9.934707038402557
10.01129601240158
10.05371133327484
10.042143759727479
9.95182611465454
9.91073024749756
10.004910323619843
10.111853411197663
10.13026572227478
10.152509789466858
10.219885926246643
10.160927798748016
9.933573036193847
9.780143563747407
9.775762360095978
9.669934823513032
9.352614123821258
9.054933636188506
8.960137925148011
9.031631968021394
9.085237085819244
9.095619580745698
9.164459261894226
9.278321096897125
9.350093772411347
9.381092553138734
9.393716945648194
9.358799653053284
9.277877118587494
9.220454471111298
9.219606027603149
9.176955654621125
9.039948322772979
8.951176681518554
8.972209007740021
8.971071560382843
8.917736947536469
8.913507361412048
8.987392206192016
9.084485471248627
9.136099708080291
9.15627100944519
9.22586722612381
9.301975395679474
9.321741805076599
9.37576717376709
9.5035981798172
9.622656474113464
9.688462615013123
9.712485589981078
9.728609263896942
9.736048300266265
9.717741062641144
9.777755033969878
9.95837218284607
10.030109624862671
9.856908786296845
9.66845223903656
9.652327630519867
9.697576882839202
9.642837898731232
9.598877193927764
9.70436208486557
9.814749104976654
9.788209698200227
9.752577619552612
9.837786929607391
9.95353523492813
9.987052090168
9.938040218353272
9.944792430400849
9.972853736877441
9.892421350479125
9.807318229675293
9.830828595161439
9.85158855199814
9.84437290430069
9.9178000497818
10.056845405101775
10.157946507930756
10.168820102214813
10.166006696224212
10.25962102651596
10.372433640956878
10.401800410747528
10.445634257793426
10.563035156726837
10.642268815040588
10.635486361980439
10.63259797334671
10.681409218311309
10.67208379983902
10.507644810676574
10.328959131240845
10.293373744487763
10.309994711875916
10.270257611274719
10.198003284931183
10.11779846906662
10.031184186935425
9.936361439228058
9.863242926597595
9.859530501365661
9.886954932212829
9.925159411430359
10.064268844127655
10.307175455093384
10.506919584274293
10.576528310775757
10.524690778255463
10.446690828800202
10.387964005470275
10.2976043343544
10.217561540603638
10.275870380401612
10.435582287311554
10.528850317001343
10.497817044258118
10.452542498111725
10.477222299575805
10.498656077384949
10.48553806066513
10.514869155883789
10.538172564506532
10.44756385087967
10.278402819633484
10.113743991851807
10.011940624713898
9.983299748897553
9.961936945915221
9.970122988224029
10.06714555978775
10.126859140396117
10.043876280784607
9.913600783348084
9.804507377147674
9.68209289073944
9.57482987165451
9.57506864309311
9.653810803890229
9.673051183223725
9.649085354804992
9.703244400024413
9.761713848114013
9.728191418647766
9.735097825527191
9.853266954421997
9.945418553352356
9.9419055891037
9.934710106849671
10.013333575725555
10.129472019672393
10.172494673728943
10.123678307533265
10.017954490184785
9.895995626449585
9.818997583389283
9.798138806819916
9.82017341375351
9.89130884885788
9.95837329864502
9.978834056854248
10.001519074440003
10.021689653396606
9.975530939102173
9.902286486625671
9.898774483203887
9.971698877811432
10.047854261398316
10.100043697357178
10.167813549041748
10.22776022195816
10.206716213226319
10.135805559158324
10.116090664863586
10.213151161670686
10.416312940120697
10.581892364025116
10.600356991291045
10.568684504032134
10.572534811496734
10.599119675159454
10.690386173725129
10.847834274768829
10.956514859199524
10.950773670673371
10.899711935520171
10.87081521987915
10.787128641605378
10.600261545181274
10.443325250148773
10.371617178916932
10.316393122673034
10.355752809047699
10.538379302024842
10.656838891506196
10.594306616783141
10.51479650259018
10.54603640317917
10.621337144374847
10.65304117679596
10.659070279598236
10.68829443693161
10.700817892551422
10.630950074195862
10.538826446533204
10.545165448188781
10.625511140823365
10.630464594364167
10.525882976055145
10.422013845443725
10.366521859169007
10.326228785514832
10.301024310588836
10.295643267631531
10.287045705318452
10.242966907024384
10.147488813400269
10.065508484840393
10.062185757160186
10.096847269535065
10.167483832836151
10.317288110256195
10.456129522323609
10.510027525424958
10.512484064102173
10.433927969932556
10.322972071170806
10.337241451740265
10.416553785800934
10.369500982761384
10.180940952301025
9.978046867847443
9.88486254453659
9.914579648971557
9.974651563167573
10.01487425327301
10.03677339553833
10.01672291278839
9.971858987808227
10.004434142112732
10.167912967205048
10.327794926166534
10.290032811164856
10.10536749124527
9.989912033081055
9.953480579853057
9.898737967014313
9.884708886146546
9.940289127826691
9.959442634582519
9.907222290039062
9.869773161411285
9.942689645290375
10.104167115688323
10.188542759418487
10.09148610830307
9.922232842445373
9.845540220737456
9.874116065502166
9.922924892902374
9.960088005065918
9.983514337539672
9.97191034078598
9.94151832818985
9.938071672916413
9.974606051445008
10.027548801898956
10.056385507583618
10.068215651512146
10.103026492595673
10.077831802368165
9.910636789798737
9.77487607717514
9.8252112698555
9.937272133827209
9.977226467132569
9.94026649236679
9.885297729969025
9.899459898471832
9.96484337568283
10.029751558303833
10.145353407859803
10.280133571624756
10.336657547950745
10.370183970928192
10.444181931018829
10.49998126745224
10.507480673789978
10.487807195186615
10.408565647602082
10.238681354522704
10.07704206943512
10.071019904613495
10.171905446052552
10.191317670345306
10.142644264698028
10.190317904949188
10.312381432056426
10.345151672363281
10.2521985578537
10.173739287853241
10.200232694149017
10.186285238265992
10.01100816488266
9.843790254592896
9.861944825649262
9.960186376571656
9.948304295539856
9.846170139312743
9.792922744750976
9.780044221878052
9.730311317443848
9.707596883773803
9.769754045009613
9.831898872852326
9.876936361789703
9.985840587615966
10.10001096010208
10.08079416036606
9.951012151241303
9.866612551212311
9.907622373104095
9.98167418718338
9.968605737686158
9.902301652431488
9.910470745563508
10.00628642320633
10.042146933078765
9.956923973560333
9.894425349235535
9.907677221298218
9.869269924163818
9.777683384418488
9.740671989917756
9.719312446117401
9.636360211372375
9.553871343135834
9.559837307929993
9.64582620382309
9.759505772590638
9.891226391792298
10.041455183029175
10.144425711631776
10.177805166244507
10.229599230289459
10.290465214252471
10.232195770740509
10.038847870826721
9.845782530307769
9.764547989368438
9.736298134326935
9.679700720310212
9.701779608726502
9.88081889152527
10.060719721317291
10.090108745098114
10.03519191980362
10.048779528141022
10.110796916484833
10.094349179267883
10.066507349014282
10.143463087081908
10.190420804023743
10.075077736377716
9.934188687801361
9.90296921491623
9.917619569301605
9.902309589385986
9.881643469333648
9.91144700050354
9.991901688575744
10.033620021343232
9.975294592380523
9.8856880402565
9.850479097366334
9.841754333972931
9.802315726280213
9.77862376689911
9.816459295749665
9.868903563022613
9.902600457668305
9.887638168334961
9.784431211948394
9.677858879566193
9.69558480501175
9.800811972618103
9.876991863250732
9.902050280570984
9.906405839920044
9.895636565685273
9.849971597194672
9.74929494380951
9.615321455001832
9.478399188518525
9.370277199745178
9.35040292263031
9.390639386177064
9.410106537342072
9.432111220359802
9.479800097942352
9.527557265758514
9.587201116085053
9.63078931093216
9.61479782819748
9.579618544578553
9.557595021724701
9.53107497215271
9.510782923698425
9.563611302375794
9.703963561058044
9.79046050786972
9.760632343292237
9.810401890277863
10.02322285413742
10.168777172565461
10.077998445034027
9.85077356338501
9.672181332111359
9.609832663536071
9.605021829605102
9.64369917154312
9.743604154586793
9.81085853099823
9.788895485401154
9.76563090801239
9.770779237747192
9.725118727684022
9.604328763484954
9.4925124335289
9.469075834751129
9.481841824054719
9.467232432365417
9.521386497020721
9.70397679567337
9.886548068523407
9.962344613075256
9.946677196025849
9.886953105926514
9.824382286071778
9.797925112247468
9.847775602340699
9.972860307693482
10.12648586988449
10.268321039676666
10.34879747390747
10.380353591442109
10.496333768367768
10.687933504581451
10.734473659992219
10.605020396709442
10.48324409008026
10.413785734176635
10.350958929061889
10.29720621585846
10.237545578479766
10.187287592887879
10.194146585464477
10.225162854194641
10.21161351442337
10.174819231033325
10.216450653076173
10.33178953409195
10.333550317287445
10.165191760063172
10.03310260772705
10.06084039926529
10.171108331680298
10.283869564533234
10.392163803577423
10.47596244096756
10.436385509967804
10.274346046447754
10.183945899009705
10.230922861099243
10.240791442394256
10.138917984962463
10.074529275894164
10.152556750774384
10.25931789636612
10.26773856639862
10.284191212654115
10.429963393211365
10.528784070014954
10.398102934360503
10.192476623058319
10.126469099521637
10.182513506412507
10.23747695684433
10.24384090423584
10.222179117202758
10.162825937271117
10.041678359508515
9.911652717590332
9.880133175849915
9.977969131469727
10.042969722747802
9.882067270278931
9.638007318973541
9.635279145240784
9.847235896587371
10.00296629190445
10.010312685966491
9.918396530151368
9.829217128753662
9.87962363243103
10.053661851882934
10.166676995754242
10.112676124572754
10.00021363735199
9.964334120750427
9.942735261917115
9.847395226955413
9.806708261966705
9.920832312107086
10.02341296672821
9.971642944812775
9.872391347885133
9.842827258110047
9.795391430854798
9.633708169460297
9.482929499149323
9.4903422164917
9.573791592121124
9.588857796192169
9.555220606327056
9.586147842407227
9.700085918903351
9.780447900295258
9.755179502964019
9.679063847064972
9.586868665218354
9.475670924186707
9.413080880641937
9.450847561359405
9.510419116020202
9.537929046154023
9.607961142063141
9.729417910575867
9.769555776119232
9.689914720058441
9.65755791425705
9.773075699806213
9.881477904319762
9.811226589679718
9.61598833322525
9.505694031715393
9.604401180744171
9.779285316467286
9.825960862636567
9.751247916221619
9.671449232101441
9.62840726852417
9.620775878429413
9.613214747905731
9.548550605773926
9.432945301532746
9.346736330986023
9.367990970611572
9.46183266401291
9.520486469268798
9.54960214614868
9.609106822013855
9.646075239181519
9.646354534626006
9.735202331542968
9.92215367078781
10.050245668888092
10.081665472984314
10.119405000209808
10.164737465381622
10.122471780776978
10.013264598846435
9.97147512435913
10.040570044517517
10.138452944755555
10.185437734127044
10.156623816490173
10.09920786857605
10.094608466625214
10.154892001152039
10.227193377017976
10.259332838058471
10.229844641685485
10.162377960681916
10.085410799980163
10.004394481182098
9.918857204914094
9.809047079086303
9.704755892753601
9.696930756568909
9.745843026638031
9.733129150867462
9.706533601284027
9.764473104476929
9.851580016613006
9.876478989124298
9.82589523792267
9.719371597766877
9.624736852645874
9.635229172706604
9.738031051158906
9.82117376089096
9.834250588417053
9.849150817394257
9.926848211288451
10.023443179130554
10.086096050739288
10.092745447158814
10.00780457019806
9.830069081783295
9.593781690597535
9.35097729921341
9.199473986625671
9.142493250370025
9.047002520561218
8.89767284154892
8.827746543884277
8.895909485816956
9.02132241010666
9.096232831478119
9.158536479473113
9.310608792304993
9.455359337329865
9.461635677814483
9.420950059890748
9.452058742046356
9.522264966964721
9.537014973163604
9.4646590924263
9.370286483764648
9.321814823150635
9.334318218231202
9.40504653930664
9.49381756067276
9.516487331390381
9.418518090248108
9.29048754453659
9.333502626419067
9.519137902259827
9.57761941432953
9.484591550827027
9.450654494762421
9.483233950138093
9.459824285507203
9.44698357105255
9.573647332191467
9.778247730731964
9.93024615764618
9.993429067134857
9.954066016674041
9.821407701969147
9.703763253688813
9.713201427459717
9.812386260032653
9.845347197055817
9.715121717453004
9.52117546081543
9.40756936788559
9.492591633796692
9.63012715101242
9.709766385555268
9.824368486404419
9.974087042808533
10.028490839004517
10.019588520526886
10.082884950637817
10.183332901000977
10.135455169677734
9.946346132755279
9.883172192573547
9.980376958847046
9.971949009895324
9.84670895576477
9.81486758708954
9.854097256660461
9.821496872901916
9.742014071941377
9.723138153553009
9.779727027416229
9.826267013549804
9.801278069019318
9.739889557361602
9.663830573558807
9.553226039409637
9.48233202457428
9.537427582740783
9.632112596035004
9.63942347764969
9.61106213092804
9.658440370559692
9.722705626487732
9.715221407413482
9.731571605205536
9.824800026416778
9.833445897102356
9.679671068191528
9.508161702156066
9.426551835536957
9.410700287818909
9.467500262260437
9.630551233291627
9.797491784095763
9.798292655944824
9.660752081871033
9.5995965385437
9.718046343326568
9.887581984996796
10.0258393907547
10.091399145126342
10.161222767829894
10.236983938217163
10.240348191261292
10.182841877937317
10.10247133255005
9.961411838531495
9.782388534545898
9.615679788589478
9.588177046775819
9.681478281021118
9.722333798408508
9.694659087657929
9.745410931110381
9.80719096660614
9.717117073535919
9.563557696342468
9.538706130981446
9.651809227466583
9.749218287467956
9.7592582654953
9.782925899028777
9.838320796489716
9.819396939277649
9.78519572019577
9.845706021785736
9.919365518093109
9.952767932415009
10.009865803718567
10.084915513992309
10.12353030204773
10.108667483329773
10.092309579849243
10.11785451889038
10.07463427066803
9.913797626495361
9.81858784198761
9.882422211170196
9.984122023582458
10.020166358947755
9.989942569732666
9.913971519470214
9.78543963432312
9.66700252532959
9.707273979187011
9.871966218948364
9.93034283876419
9.835301442146301
9.748985588550568
9.732703304290771
9.719703459739685
9.721906964778901
9.853813190460205
10.072666339874267
10.145950570106507
10.075936412811279
10.125071766376495
10.327119312286378
10.534075038433075
10.589504094123841
10.533736724853515
10.504508831501006
10.484690606594086
10.383372004032134
10.33201183795929
10.463216202259064
10.630847940444946
10.64416907787323
10.483399059772491
10.263642342090607
10.148358330726623
10.201245107650756
10.345902526378632
10.468214285373687
10.488900692462922
10.436818752288819
10.398109378814697
10.366511206626893
10.295031566619873
10.187283797264099
10.102971587181091
10.126470725536347
10.197166004180907
10.19230672121048
10.220292220115661
10.404426469802857
10.591893527507782
10.607100274562836
10.502237856388092
10.423209850788117
10.380773499011994
10.299739592075348
10.236336100101472
10.259983398914336
10.25241063594818
10.142767217159271
10.045844073295592
10.019026761054993
10.027623512744903
10.052600255012512
10.050055916309356
9.977592077255249
9.845861630439758
9.719260544776917
9.70873300075531
9.815581891536713
9.883344624042511
9.825546791553498
9.716571145057678
9.694815847873688
9.79294312953949
9.875491619110107
9.897066102027892
9.927178554534912
9.897247745990754
9.7583838057518
9.645887086391449
9.64388664007187
9.732440481185913
9.88070566892624
9.963235759735108
9.864061784744262
9.685362994670868
9.59587851524353
9.60146638393402
9.635382916927338
9.694039049148559
9.747312309741973
9.735619807243348
9.739228563308716
9.854861149787903
9.976934587955474
10.00443571805954
9.979646198749542
9.88797443628311
9.709064152240753
9.561384010314942
9.53878933429718
9.590816173553467
9.640032062530517
9.715142297744752
9.86322611093521
9.973865268230439
9.935536088943481
9.83746621131897
9.773860104084015
9.735712828636169
9.756243875026703
9.833724429607392
9.847002122402191
9.748056542873382
9.643686239719392
9.634038031101227
9.70105634212494
9.748357276916504
9.703027951717377
9.573401539325713
9.444186508655548
9.411974031925201
9.43884801864624
9.397603805065154
9.29740294456482
9.225217957496643
9.207182841300964
9.269373290538788
9.400969729423522
9.504450032711029
9.511669547557831
9.456706080436707
9.436189448833465
9.496690390110016
9.572994656562805
9.61177540063858
9.620278153419495
9.559236912727355
9.401249651908875
9.242067120075227
9.224594984054566
9.388643839359283
9.595094633102416
9.673623745441438
9.627340223789215
9.558909504413604
9.529342610836029
9.566796588897706
9.621635706424714
9.575838055610657
9.434581468105316
9.330727126598358
9.31950588464737
9.333234868049622
9.322772405147553
9.333659045696258
9.399061114788056
9.480116617679595
9.559936213493348
9.637106482982636
9.650796539783478
9.564023492336274
9.448354403972626
9.38186198949814
9.332319948673248
9.214433393478394
9.040339069366455
8.948402652740478
9.052705917358399
9.31140712738037
9.568123714923859
9.705039978027344
9.738594117164611
9.7407927775383
9.744104540348053
9.749328153133392
9.723075122833253
9.650100820064544
9.581787021160126
9.517276396751404
9.41572646856308
9.354797074794769
9.424336183071137
9.549315085411072
9.603161363601684
9.560120968818664
9.491317777633666
9.51171148777008
9.633998465538024
9.71916481733322
9.659402136802674
9.473768341541291
9.262568180561066
9.118124408721924
9.055160820484161
9.059428672790528
9.095794374942779
9.091540021896362
9.065823295116424
9.128977966308593
9.275106377601624
9.367509145736694
9.309573800563813
9.154150309562683
9.062452290058136
9.09508061170578
9.142727606296539
9.140892386436462
9.160977144241333
9.258252024650574
9.410790009498596
9.594793570041656
9.795192492008209
9.981305694580078
10.127276072502136
10.231053643226623
10.303827860355376
10.342874238491058
10.330693674087524
10.241728539466857
10.09223865032196
9.989332587718964
9.989243535995483
10.020227439403534
10.034931972026826
10.049923059940339
10.088297317028045
10.143337540626526
10.143345165252686
10.096132419109345
10.130005445480347
10.213006336688995
10.16247554063797
9.98925799369812
9.892505595684051
9.960497665405274
10.081015453338622
10.103234403133392
10.050406322479247
10.071098687648773
10.163165678977967
10.203463761806487
10.181116392612457
10.176022665500641
10.200742385387422
10.178382947444916
10.100107567310333
10.074339923858643
10.123500072956086
10.159716792106629
10.161883282661439
10.176651899814606
10.253835310935974
10.374339470863342
10.408102030754089
10.322711596488952
10.257449634075165
10.250383858680726
10.210251846313476
10.135402264595031
10.07963935136795
10.027687616348267
9.967063381671906
9.95123185634613
10.0029989862442
10.067515876293182
10.096974391937255
10.055600609779358
9.917839467525482
9.792615385055543
9.785647106170654
9.77245032787323
9.663026185035706
9.588788132667542
9.61824437379837
9.688002064228058
9.76756468296051
9.82363261461258
9.845100162029267
9.921731474399566
10.08988041162491
10.258410997390747
10.357270879745483
10.4166002368927
10.459151222705842
10.42172843694687
10.331795825958253
10.367125654220581
10.528890280723571
10.599663407802582
10.527689802646638
10.449959061145783
10.433502287864686
10.460993204116821
10.506871514320373
10.55328512430191
10.557847764492035
10.450173892974853
10.278059470653535
10.194878449440003
10.237366290092469
10.320504825115204
10.375475301742554
10.383846609592437
10.359308500289917
10.335568642616272
10.350346093177796
10.415652465820312
10.499480295181275
10.517555656433105
10.412415838241577
10.291024861335755
10.290031025409698
10.31143142938614
10.203553035259247
10.059624950885773
10.012277519702911
10.033624544143677
10.080388209819795
10.119755613803864
10.138584134578705
10.196319122314453
10.277884514331818
10.303295266628265
10.294291474819182
10.286251065731049
10.249670557975769
10.220819342136384
10.23022178888321
10.15019796848297
9.91769341468811
9.720854978561402
9.739844851493835
9.871427512168884
9.889359951019287
9.790494103431701
9.724422130584717
9.700545654296874
9.649679327011109
9.569185659885406
9.509304800033568
9.55481325149536
9.686904320716858
9.757945427894592
9.730294308662415
9.691251034736633
9.722854914665222
9.90581221818924
10.196275978088378
10.386412699222564
10.35507832288742
10.180799424648285
10.025042350292205
9.991254591941834
10.069323813915252
10.165089056491851
10.169733624458313
10.065763905048371
9.931964197158813
9.862325155735016
9.9035657787323
9.977264380455017
9.96959774017334
9.947681059837342
10.031427142620087
10.120347616672516
10.086284973621368
10.029195981025696
10.061940312385559
10.132586002349854
10.159373319149017
10.146218705177308
10.163307602405547
10.21986956357956
10.238727345466614
10.212783851623534
10.19261212348938
10.148091185092927
10.093211023807525
10.175291442871094
10.39465533733368
10.508110268115997
10.3716872048378
10.155077540874482
10.12614678621292
10.301314470767975
10.432684564590454
10.371422851085663
10.251610591411591
10.25877249956131
10.360488579273223
10.354565093517303
10.194055778980255
10.066602628231049
10.090939803123474
10.210390808582305
10.305805442333222
10.239342558383942
10.023922502994537
9.866820340156556
9.863337204456329
9.905351569652558
9.910212600231171
9.928911399841308
10.01444181919098
10.094106824398041
10.102143971920013
10.122053298950195
10.211845335960389
10.270416243076324
10.223853490352631
10.137140221595764
10.072899811267852
10.01398639202118
9.940086936950683
9.880714132785798
9.87117308139801
9.885910279750824
9.873319928646088
9.828031775951386
9.809916918277741
9.879230442047119
9.972057182788848
9.99053424358368
9.967513422966004
9.957666101455688
9.9528244805336
9.95262552022934
9.937013289928437
9.860254950523377
9.748982758522034
9.685914406776428
9.696104087829589
9.719831550121308
9.708277690410615
9.713076286315918
9.790449740886688
9.866892540454865
9.851289396286012
9.77266812324524
9.714729747772218
9.72607801437378
9.768257997035981
9.769680407047272
9.741873626708985
9.709043083190918
9.676453204154969
9.6973428606987
9.729986865520477
9.648272252082824
9.51572886943817
9.504345777034759
9.596145300865173
9.633739292621613
9.564966235160828
9.49823914527893
9.518512451648713
9.540991015434265
9.48477456331253
9.454054670333862
9.556231186389923
9.69314517736435
9.727479841709137
9.73842131614685
9.863932254314422
10.031514070034028
10.119003512859344
10.16537002325058
10.231357200145721
10.294709329605103
10.308457252979279
10.238136479854584
10.125815174579621
10.045309550762177
10.008731677532197
10.02977558374405
10.104103305339812
10.137022194862366
10.06009357690811
9.93445000886917
9.862520673274993
9.872230896949768
9.941368236541749
10.046948380470276
10.102044517993926
10.006715002059936
9.869948318004608
9.92459189414978
10.162935917377473
10.373080279827118
10.472266430854797
10.520583608150481
10.547229475975037
10.512692489624023
10.3949321103096
10.264974977970123
10.178683030605317
10.122057902812958
10.129077475070954
10.182455959320068
10.141460764408112
10.005290758609771
9.91723135948181
9.9473899269104
10.023965170383454
10.048384597301483
10.028900773525239
10.109156329631805
10.29009890317917
10.35794775724411
10.249553537368774
10.142530283927918
10.131728703975677
10.077848155498504
9.878963203430176
9.691438417434693
9.646338980197907
9.630711407661439
9.57473047733307
9.564580109119415
9.601151304244995
9.598852560520172
9.558172309398651
9.555308377742767
9.605383493900298
9.61169290304184
9.539215857982635
9.54652319431305
9.757124445438386
10.035908043384552
10.161800606250763
10.091489713191987
9.961601202487946
9.892525970935822
9.869880011081696
9.852730236053468
9.842725036144257
9.787530245780944
9.653240427970886
9.547756311893464
9.545768864154816
9.585212385654449
9.64376100063324
9.75154492855072
9.84628480195999
9.854393923282624
9.849407114982604
9.936010525226592
10.081046943664552
10.256619515419006
10.498469302654266
10.68045779466629
10.663836960792542
10.505852208137512
10.328310594558715
10.193473079204558
10.093425629138947
9.926911938190461
9.727123312950134
9.655930924415589
9.65581332206726
9.602336730957031
9.624383418560027
9.831380348205567
10.044345397949218
10.067709193229675
9.989625887870789
10.02577079296112
10.16889021396637
10.251732699871063
10.26678248167038
10.287995555400848
10.269430170059204
10.175319712162018
10.102807977199554
10.155144095420837
10.259333062171937
10.243537650108337
10.11157927274704
10.00616632938385
9.987041640281678
10.04127304315567
10.109011099338531
10.116989645957947
10.109372081756591
10.123949511051178
10.078933701515197
10.001854429244995
9.987635197639465
9.949649095535278
9.82412662267685
9.746467859745026
9.784143824577331
9.834250302314759
9.853191294670104
9.903367977142334
9.946348662376403
9.856026730537415
9.683212375640869
9.56620244026184
9.452941491603852
9.298659844398498
9.222205440998078
9.263899095058441
9.362200267314911
9.49404301404953
9.661654305458068
9.838420822620392
9.949690470695495
9.99860895872116
10.076150939464569
10.118822891712188
9.995204312801361
9.794303493499756
9.708895287513734
9.775714416503906
9.865930101871491
9.83995246887207
9.706077010631562
9.581999876499175
9.515947494506836
9.514592320919038
9.624205813407897
9.817835412025453
9.93508183002472
9.849598553180694
9.682547552585602
9.64512173652649
9.67412699699402
9.60882337808609
9.550048294067382
9.632589216232299
9.75639081478119
9.767421731948852
9.672313051223755
9.626221005916596
9.698464307785034
9.73118068933487
9.628988783359528
9.546683866977691
9.594707007408141
9.636539211273194
9.535666856765747
9.41646619796753
9.422614028453827
9.444512178897858
9.420222105979919
9.487655889987945
9.631922585964203
9.726769597530366
9.835486710071564
10.00030029296875
10.103477594852448
10.113071660995484
10.080864000320435
10.016364912986756
9.930501811504364
9.856354928016662
9.78392750263214
9.652596743106843
9.525417127609252
9.56996984243393
9.752219336032868
9.921371726989745
10.076225717067718
10.19937748193741
10.177794916629791
10.049615173339843
9.977280559539794
10.031008977890014
10.155208451747894
10.205151221752168
10.071665534973144
9.836616523265839
9.701002733707428
9.760479717254638
9.911635236740112
9.986738231182098
9.92958633184433
9.795008733272553
9.708540053367615
9.609718492031098
9.575262668132781
9.576814482212066
9.602914192676543
9.653379209041596
9.746660532951354
9.934796373844147
10.17313268661499
10.311482493877412
10.292222003936768
10.24581870317459
10.316685872077942
10.438245809078216
10.490915908813477
10.53185774564743
10.577024290561676
10.51986554145813
10.404184622764587
10.321476662158966
10.223286883831024
10.133182733058929
10.151313693523408
10.246236305236817
10.317704448699951
10.323721780776978
10.306057612895966
10.34490686893463
10.467661800384521
10.618577227592468
10.687649788856506
10.635227100849152
10.578279449939728
10.573837437629699
10.500314056873322
10.362352550029755
10.333271043300629
10.41346432685852
10.45034206390381
10.357824487686157
10.158638017177582
10.01644413948059
10.117284271717072
10.406726853847504
10.594968502521516
10.501726369857789
10.280400629043578
10.205996143817902
10.375424880981445
10.685311875343324
10.894401617050171
10.967274324893951
10.86242075920105
10.757269682884216
10.774205055236816
10.836141266822814
10.76104251384735
10.508309645652771
10.250650823116302
10.152649223804474
10.19748473405838
10.22864360332489
10.136694161891937
9.999638538360596
9.913733937740325
9.829929046630859
9.751978836059571
9.785063185691833
9.888231034278869
9.959361805915833
10.026197085380554
10.078370797634125
10.029784069061279
9.920384285449982
9.89243495464325
9.989066469669343
10.088362689018249
10.05716523885727
9.919396436214447
9.805396203994752
9.796360142230988
9.851924512386322
9.832519583702087
9.692167747020722
9.595820689201355
9.648357381820679
9.744447710514068
9.789879822731018
9.794914615154266
9.81685453414917
9.91977527141571
10.072054216861725
10.122415335178376
9.993626449108124
9.861200671195984
9.929445478916168
10.065616915225982
9.98580127954483
9.699030251502991
9.445762178897859
9.372420942783355
9.454771461486816
9.586339564323426
9.67417581796646
9.675538902282716
9.619692239761353
9.634320075511932
9.791954610347748
9.970038373470306
10.020071012973785
9.952433750629424
9.896049709320069
9.92973659992218
9.972382638454437
9.973754780292511
10.059116101264953
10.222904105186462
10.225202414989472
10.01875482559204
9.844396722316741
9.8409454703331
9.920756783485412
9.973833425045013
10.00242975950241
10.03009787082672
10.001176812648772
9.910663521289825
9.857480108737946
9.88608600616455
9.959582285881043
10.032402052879334
10.071852147579193
10.083625926971436
10.06763567686081
10.019244389533997
10.017931430339813
10.125676441192628
10.275906500816346
10.387075064182282
10.426950886249543
10.38071319103241
10.265676822662353
10.13474148273468
10.07566447019577
10.117844545841217
10.147268261909485
10.131774456501008
10.204986019134521
10.37340136051178
10.483262050151826
10.442674114704133
10.299799919128418
10.189722335338592
10.190321769714355
10.26769198179245
10.363018541336059
10.38747381925583
10.262457122802735
10.087941298484802
10.028860697746277
10.061492850780487
10.074419822692871
10.063505206108093
10.086844375133515
10.125556735992431
10.085850577354432
9.99723789215088
10.045676879882812
10.263515739440917
10.421845772266387
10.386294031143189
10.332814745903015
10.417297728061676
10.491224520206451
10.43355152606964
10.40129539012909
10.462369740009308
10.46325446844101
10.380223364830018
10.324544177055358
10.303361716270446
10.291599090099334
10.335945889949798
10.464042456150056
10.585981800556183
10.555421814918517
10.393069684505463
10.28833249092102
10.313884224891662
10.379042663574218
10.412135579586028
10.410651679039
10.40064629793167
10.38171725511551
10.36420661687851
10.425087087154388
10.525758726596832
10.52022301673889
10.445802891254425
10.404491016864776
10.354168062210084
10.279337711334229
10.229940073490143
10.20266331911087
10.163428945541382
10.104818577766418
10.08575431585312
10.161889672279358
10.280045359134673
10.362753641605376
10.397546861171723
10.430872571468353
10.52731034040451
10.647660953998566
10.69425270795822
10.686835808753967
10.691801269054412
10.678303871154785
10.597237153053284
10.485477621555328
10.389716701507568
10.30155125617981
10.245988528728486
10.284861307144165
10.34815194606781
10.291369881629944
10.188534893989562
10.247283458709717
10.439512631893159
10.560859558582306
10.544845657348633
10.470918605327606
10.419148006439208
10.382421357631683
10.298711552619935
10.201831376552581
10.140774941444397
10.052671809196472
9.955523347854614
9.956283326148986
10.027614364624023
10.06048760652542
10.024566051959992
9.964531605243684
9.884512116909027
9.74257968902588
9.620342268943787
9.66068480014801
9.815601072311402
9.953698279857635
10.060639109611511
10.126205558776855
10.101732110977172
10.001633203029632
9.899274973869323
9.860915858745575
9.867796187400819
9.865263671875
9.86855583190918
9.88853609085083
9.883615057468415
9.80953204870224
9.671047868728637
9.571773805618285
9.572601015567779
9.594408452510834
9.602773385047913
9.64784631729126
9.707992980480194
9.727380285263061
9.753538763523101
9.858527114391327
9.973792829513549
9.973026475906373
9.89918611049652
9.910867121219635
9.99764924287796
10.000379450321198
9.891434988975526
9.76925128698349
9.709939477443696
9.73307363986969
9.758098769187928
9.726214451789856
9.704707386493682
9.726942038536071
9.775061802864075
9.843333158493042
9.871326611042022
9.814684002399444
9.728344185352325
9.696575753688812
9.761485116481781
9.864920148849487
9.919013934135437
9.937043011188507
9.937704818248749
9.866383726596831
9.740920147895814
9.683508334159852
9.750867738723755
9.869287667274476
9.978331279754638
10.117750070095063
10.261779463291168
10.262214076519012
10.13121980905533
10.08901520729065
10.223839068412781
10.41074424982071
10.51267153263092
10.499012956619262
10.458469331264496
10.475794916152955
10.548156633377076
10.637689688205718
10.654969916343688
10.548787608146668
10.444227356910705
10.452235012054443
10.482844774723054
10.386931283473968
10.193723654747009
10.128878600597382
10.26953575849533
10.39195957660675
10.3955299949646
10.441163041591643
10.562811806201935
10.66106799840927
10.719925472736358
10.745094628334046
10.752306199073791
10.775094723701477
10.811677601337433
10.847071070671081
10.838495831489563
10.778214931488037
10.76537692785263
10.841949110031129
10.919564344882964
10.927439408302307
10.894086215496063
10.91266952753067
10.974524216651917
10.92680153131485
10.773169076442718
10.70676656961441
10.749580082893372
10.733870253562927
10.602163951396943
10.478990740776062
10.4458416557312
10.396214225292205
10.27510400056839
10.237029275894166
10.335220811367035
10.384627211093903
10.241138393878936
9.965377271175385
9.786840598583222
9.855030689239502
9.979587862491607
9.930792050361633
9.765425608158111
9.595850598812103
9.470239112377167
9.450519757270813
9.50609448671341
9.552078082561493
9.586439044475556
9.662701337337493
9.790612323284149
9.823264088630676
9.656404640674591
9.490281448364257
9.47544668674469
9.469005370140076
9.41968486070633
9.424560317993164
9.44698835849762
9.418949391841888
9.412651522159576
9.508310832977294
9.61390455722809
9.568104870319367
9.43232896089554
9.390926258563995
9.404374928474427
9.355825963020324
9.325939915180207
9.42593097448349
9.570372278690337
9.571262516975402
9.467181770801544
9.529549906253814
9.78093638896942
9.939635691642762
9.920856399536133
9.891898143291474
9.925877957344055
9.955744156837463
9.935898351669312
9.922853910923005
9.999079735279084
10.111160745620728
10.136284446716308
10.069826843738555
10.002952814102173
10.034171593189239
10.172084326744079
10.31288940668106
10.378593065738677
10.33208375453949
10.216996519565582
10.229323344230652
10.408228213787078
10.501972529888153
10.396660780906677
10.268133704662324
10.245269815921784
10.238310887813569
10.157440836429595
10.114001078605652
10.187142605781554
10.22888105392456
10.164373919963836
10.111451942920684
10.09384358882904
10.050589516162873
10.040372233390809
10.11091388463974
10.123444750308991
9.953555064201355
9.775961089134217
9.845127189159394
10.065252618789673
10.182902235984802
10.193617918491363
10.205724229812622
10.202718172073364
10.104205894470216
9.954349908828735
9.933518133163453
10.03062064409256
10.008973610401153
9.858797342777253
9.811309881210327
9.899805827140808
9.963685145378113
9.963000195026398
9.966549232006074
10.00148187160492
10.045828971862793
10.059095296859741
10.044247505664826
10.05430995464325
10.11389592409134
10.195994756221772
10.21080926179886
10.089695119857788
9.914994778633117
9.812237029075623
9.817953379154206
9.880126457214356
9.901361949443817
9.903677639961243
10.013948209285736
10.204483170509338
10.319010772705077
10.311654715538024
10.272630257606506
10.251863679885865
10.201326990127564
10.152488949298858
10.204489061832428
10.30621970653534
10.354454121589661
10.386294057369232
10.44413509607315
10.471850743293762
10.451718261241913
10.45738234758377
10.512842967510224
10.494658944606782
10.304528243541718
10.076296987533569
9.98577403306961
9.983847098350525
9.951398658752442
9.914177687168122
9.944832549095153
9.992077825069428
9.95574526309967
9.915567979812622
10.031989748477935
10.22465140581131
10.270213973522186
10.168250527381897
10.09800915002823
10.10135011434555
10.081871087551116
10.012799446582795
9.966488530635834
9.9661354470253
9.933830392360687
9.849137778282165
9.77561398267746
9.727945816516876
9.716683344841003
9.768305900096893
9.836748464107513
9.906281971931458
10.041288604736328
10.216806204319
10.298162055015563
10.198671102523804
10.001677587032319
9.896407854557037
9.92049088716507
9.926351156234741
9.841891803741454
9.746772866249085
9.715258839130401
9.711293618679047
9.65833527326584
9.58536027431488
9.585528531074523
9.64019273519516
9.635113601684571
9.541089012622834
9.47047464132309
9.501961500644684
9.568187108039856
9.65354264497757
9.850272555351257
10.067060708999634
10.09580445766449
10.013710825443267
10.018749146461486
10.028343732357024
9.908665058612824
9.782988274097443
9.786197650432587
9.829343922138214
9.786729934215545
9.697675502300262
9.67173067331314
9.713816962242127
9.74816403388977
9.729255855083466
9.679693689346314
9.684266953468322
9.775097742080689
9.877384352684022
9.947810153961182
9.990568981170654
10.005533747673034
10.032520496845246
10.089964938163757
10.130681867599487
10.113374292850494
10.01964872598648
9.871925418376923
9.712828965187073
9.55227072238922
9.449381568431853
9.479224059581757
9.546463918685912
9.512458415031434
9.435978832244873
9.454953587055206
9.565575428009033
9.648102917671203
9.67688111782074
9.751985409259795
9.85897200345993
9.840545153617859
9.680907330513001
9.573037986755372
9.61165549993515
9.643553335666656
9.598785643577576
9.673214654922486
9.901623356342316
10.015519287586212
9.975587158203124
10.006032967567444
10.073538310527802
10.015184307098389
9.946482741832734
10.018540182113647
10.135641112327576
10.15940989255905
10.10055144071579
10.046332440376283
10.021482145786285
9.991487612724304
9.962377903461457
9.977673037052154
10.082925553321838
10.255404052734375
10.33847543478012
10.252833716869354
10.118891124725343
10.029826474189758
10.00360389471054
10.057733504772186
10.129007463455201
10.12846242427826
10.055388989448547
9.984426188468934
9.990832071304322
10.044068160057067
10.106519267559051
10.227887039184571
10.320433478355408
10.21583333015442
10.041430249214173
10.069493770599365
10.304752657413482
10.547026951313018
10.65471494436264
10.638669362068176
10.584007411003112
10.524716143608094
10.476401495933533
10.483473358154297
10.524925825595856
10.5354975771904
10.544818975925445
10.604120035171508
10.616187663078309
10.451881666183471
10.206673212051392
10.077296078205109
10.019625895023346
9.901276528835297
9.828946731090547
9.899761545658112
9.974666483402252
9.953096842765808
9.896890621185303
9.894259309768676
9.952892434597015
9.968391695022582
9.891490950584412
9.816839873790741
9.810288665294648
9.835412981510162
9.80326523065567
9.667993574142455
9.53953919649124
9.527948741912843
9.579454085826875
9.633662338256835
9.686749274730682
9.710943539142608
9.704562268257142
9.724548244476319
9.855299255847932
10.081702122688293
10.212548615932464
10.15732611656189
10.046018545627595
9.992873139381409
10.072152669429778
10.29554590702057
10.456879312992095
10.355291488170623
10.053101270198821
9.752962975502014
9.574067142009735
9.620003876686097
9.763853294849396
9.851762099266052
9.911354897022248
10.007360196113586
10.118794610500336
10.197485723495483
10.20315400838852
10.13732399225235
10.07861289024353
10.098610074520112
10.148354620933533
10.151309354305267
10.15645878791809
10.210905699729919
10.220442218780518
10.14108344078064
10.079901149272919
10.126937866210938
10.257191908359527
10.348392159938813
10.350593116283417
10.396074032783508
10.559874198436738
10.724897015094758
10.780933938026429
10.748375372886658
10.71383770942688
10.720792837142945
10.741556112766267
10.747208321094513
10.69875832080841
10.556993985176087
10.409496810436249
10.380031781196594
10.427457497119903
10.436981596946715
10.345993905067443
10.173738853931427
10.078084764480591
10.158490388393401
10.269699587821961
10.278372960090637
10.236011383533478
10.206798946857452
10.207409904003143
10.275538001060486
10.423758692741394
10.555187973976135
10.603540134429931
10.5115074801445
10.375021364688873
10.28281485557556
10.221911392211915
10.1791077876091
10.189939184188843
10.251657235622407
10.309073975086212
10.350073640346528
10.399028954505921
10.415786371231079
10.37771345615387
10.35275060415268
10.342451403141022
10.302438113689423
10.278728137016296
10.298978476524352
10.32253405570984
10.321808295249939
10.29305480480194
10.262439877986909
10.226874325275421
10.153899610042572
10.108229019641875
10.166800534725189
10.264925675392151
10.3000097322464
10.274949238300323
10.27241798877716
10.306189429759979
10.284893698692322
10.248805103302002
10.360253610610961
10.53273140192032
10.529081890583038
10.369104988574982
10.217617983818053
10.120549793243407
10.0794602394104
10.110035965442657
10.178695876598358
10.22155335187912
10.202171256542206
10.151382718086243
10.163295423984527
10.271566596031189
10.360097422599793
10.331694333553314
10.268614494800568
10.264824450016022
10.278246953487397
10.285927562713622
10.319948704242707
10.297691514492035
10.124268002510071
9.901409578323364
9.777915103435516
9.748461005687714
9.748869915008544
9.774086344242097
9.84444920539856
9.928390781879425
9.967469205856323
9.999741518497467
10.085341792106629
10.178065013885497
10.236207995414734
10.274610273838043
10.31216207742691
10.36220029592514
10.389871900081635
10.368666570186615
10.337561111450196
10.256740839481354
10.035698578357696
9.783081712722778
9.713423509597778
9.849174132347107
10.038406114578247
10.149276809692383
10.174222168922425
10.153971617221833
10.07455235004425
9.991794748306274
10.050449132919312
10.223910353183747
10.332947857379914
10.350236723423004
10.37948748588562
10.395380980968476
10.302924695014953
10.181821346282959
10.161213941574097
10.187608063220978
10.165214476585389
10.092985343933105
10.007844097614289
9.97478013753891
10.018083653450013
10.073622665405274
10.120379948616028
10.167438535690307
10.18049516916275
10.24514925479889
10.495506615638734
10.805172109603882
10.937654163837433
10.88227469921112
10.766129174232482
10.638255004882813
10.517040903568267
10.480061011314392
10.536015603542328
10.55880684375763
10.496640357971192
10.446743931770325
10.4660720038414
10.517939388751984
10.531345295906068
10.428785407543183
10.253130028247833
10.14722538471222
10.126849677562713
10.138667876720428
10.221306693553924
10.353611962795258
10.39599080324173
10.28809728384018
10.119078948497773
10.0191859126091
10.026287062168121
10.081382744312286
10.145790774822235
10.189041030406951
10.153363950252533
10.06310536146164
9.999063065052033
9.978652873039245
9.980276608467102
9.990980079174042
10.017543323040009
10.043695952892303
10.02972655057907
10.001469857692719
9.985103948116302
9.957232055664063
9.933825612068176
9.914900753498078
9.85889191865921
9.782983655929565
9.708965075016021
9.633869428634643
9.5993851852417
9.583226239681244
9.489494996070862
9.352544133663178
9.29383596420288
9.33977820634842
9.434017469882965
9.529870283603668
9.598798112869263
9.5835253739357
9.489790985584259
9.459681470394134
9.551845397949219
9.632792582511902
9.61531977891922
9.549015183448791
9.488548531532288
9.466772065162658
9.488145542144775
9.544222509860992
9.641115996837616
9.697833936214447
9.63135853767395
9.539664716720582
9.537618544101715
9.594369192123413
9.655191209316254
9.71943064212799
9.785126943588256
9.799756329059601
9.707153196334838
9.580753571987152
9.544530582427978
9.587389030456542
9.688588054180146
9.84789523601532
9.934147005081178
9.88587637424469
9.834364495277406
9.887012856006622
10.026459028720856
10.105105273723602
9.994806110858917
9.820963788032532
9.802250139713287
9.965509898662567
10.171293709278107
10.301077220439911
10.385847420692444
10.488938241004943
10.547456152439118
10.535670177936554
10.552551600933075
10.603657953739166
10.607293076515198
10.569581046104432
10.537348597049712
10.501414687633515
10.429019565582275
10.361502339839936
10.35236786365509
10.315080826282502
10.19970472574234
10.153565990924836
10.255230174064636
10.392073607444763
10.478522913455963
10.554101700782775
10.661434223651886
10.708631973266602
10.62549362897873
10.602660501003266
10.78492927312851
10.96417371749878
10.977653818130493
10.954089515209198
10.977982108592988
10.983900065422057
10.951575245857239
10.969240808486939
11.1120010972023
11.231254494190216
11.113980646133422
10.869454715251923
10.71633308172226
10.639964797496795
10.588244352340698
10.587063677310944
10.609893839359284
10.582563791275025
10.469624671936035
10.353507235050202
10.345348479747772
10.407519609928132
10.432303416728974
10.38484037399292
10.318695392608642
10.327891969680786
10.39163941860199
10.396952955722808
10.350495257377624
10.290959753990172
10.180018372535706
10.083895971775055
10.112486310005188
10.171648797988892
10.088981912136077
9.972467803955078
9.922707390785217
9.995892674922944
10.01357572555542
10.019839544296264
10.126984350681305
10.182787895202637
10.068018832206725
9.929288470745087
9.893847751617432
9.899439127445222
9.86223126411438
9.839305155277252
9.897792193889618
9.907082259654999
9.727138888835906
9.480435440540314
9.35647737979889
9.349729557037353
9.348954677581787
9.293220291137695
9.210506289005279
9.126174941062928
9.004795484542846
8.912530801296235
8.971866753101349
9.10125184059143
9.149763498306275
9.146064145565033
9.195700664520263
9.312768218517304
9.427978899478912
9.512578642368316
9.61605981349945
9.749265120029449
9.862698316574097
9.91468661546707
9.870766620635987
9.761142237186432
9.681197280883788
9.648293519020081
9.628373281955719
9.611332783699035
9.568800070285796
9.524887204170227
9.539080965518952
9.540955891609192
9.439062819480895
9.34006615638733
9.445439743995667
9.657993886470795
9.79302535533905
9.735986108779906
9.751855564117431
9.87481722354889
9.894214990139007
9.812290635108948
9.758750350475312
9.729063794612884
9.688282148838043
9.674130594730377
9.725677244663238
9.798671216964722
9.812207791805267
9.787050111293793
9.840391006469726
10.02042109966278
10.204497311115265
10.246175765991211
10.20872864484787
10.265960063934326
10.405927467346192
10.505425145626068
10.576068694591521
10.658749341964722
10.700149788856507
10.690931975841522
10.687508308887482
10.687705125808716
10.633171372413635
10.513489201068879
10.389690976142884
10.277583074569701
10.130085237026215
9.993234713077545
9.957921369075775
9.971597065925598
9.939006435871125
9.893774502277374
9.919280304908753
10.001476106643677
10.03262202501297
9.98884126663208
9.979157197475434
10.028703389167786
10.04495109796524
9.995331704616547
9.924279701709747
9.88045550584793
9.872671685218812
9.904631304740906
10.000047328472137
10.073659811019898
10.025741019248962
9.970222556591034
10.005883440971374
10.020932416915894
9.965267431735992
9.920556569099427
9.90480418920517
9.888140470981599
9.877581295967103
9.907380623817444
9.97154722213745
9.996736834049225
9.960496649742126
9.915008313655854
9.877738983631135
9.846037995815276
9.816416826248169
9.759682369232177
9.687917900085449
9.618769764900208
9.523181557655334
9.464720420837402
9.538854207992554
9.656011505126953
9.681007008552552
9.655783462524415
9.687891869544982
9.782565922737122
9.888967390060424
9.99323474407196
10.062165589332581
9.992355508804321
9.808164100646973
9.739936943054198
9.874264345169067
10.001786308288574
9.929582433700562
9.725421051979065
9.611225738525391
9.641884398460387
9.64738986492157
9.538900151252747
9.4101699924469
9.380233173370362
9.494648766517638
9.679548025131226
9.782748746871949
9.715362949371338
9.565700054168701
9.517698640823363
9.579071130752563
9.566906552314759
9.450357637405396
9.411286506652832
9.512468438148499
9.635731081962586
9.726045932769775
9.822415161132813
9.891629123687744
9.815464916229248
9.609376039505005
9.468921222686767
9.460440573692322
9.453760952949525
9.39339856147766
9.336944165229797
9.32941092967987
9.363653173446655
9.392825951576233
9.452121224403381
9.634089918136597
9.836035423278808
9.872982716560363
9.825186214447022
9.88233533859253
9.995860347747803
10.006981410980224
9.919392123222352
9.81671763420105
9.729076013565063
9.716376056671143
9.842093052864074
10.002337760925293
10.04158443927765
9.988049187660216
9.923353786468505
9.873037490844727
9.897475318908691
9.973743362426758
10.01383059501648
10.074069008827209
10.21669882297516
10.352528820037842
10.38786165714264
10.309253315925599
10.144288873672485
9.972954087257385
9.893689045906067
9.92407416820526
10.00378891468048
10.083705577850342
10.181317982673646
10.32254635334015
10.429721870422362
10.39541328907013
10.244839954376221
10.093116893768311
9.975010976791381
9.835236258506775
9.722742643356323
9.761891202926636
9.87758442401886
9.893205242156982
9.818898720741272
9.755824780464172
9.723739018440247
9.708816928863525
9.727025756835937
9.800895490646361
9.855268788337707
9.761859440803528
9.601250081062316
9.580784964561463
9.667242465019227
9.685868487358093
9.651280550956725
9.682497377395629
9.775551490783691
9.840965533256531
9.846800637245178
9.825753378868104
9.799435081481933
9.785528588294984
9.77870327949524
9.7360067653656
9.720576906204224
9.811141443252563
9.888725795745849
9.86836950302124
9.836996369361877
9.801622858047486
9.734744038581848
9.722640867233276
9.774910907745362
9.797646217346191
9.812947711944581
9.914230332374572
10.074413676261901
10.184361267089844
10.215406928062439
10.215784254074096
10.178581285476685
10.06738621711731
9.938809089660644
9.899560656547546
9.958826913833619
9.995109581947327
9.953453092575073
9.95586407661438
10.042595858573913
10.103139085769653
10.153922486305238
10.280646109580994
10.4199853515625
10.493683800697326
10.515671548843384
10.486581506729125
10.385513920783996
10.25201717376709
10.216867146492005
10.340509667396546
10.430041723251342
10.329950776100159
10.220008964538573
10.264704198837281
10.33941750049591
10.300582036972045
10.185220847129822
10.120067501068116
10.14405710220337
10.158583192825317
10.113132648468017
10.061223430633545
10.022279376983642
9.990130314826965
9.97209686756134
9.967439284324646
9.961573085784913
9.906808948516845
9.821456351280212
9.857037663459778
10.073364577293397
10.31601062297821
10.450776934623718
10.502005095481872
10.51982973098755
10.485485129356384
10.371391181945802
10.211368799209595
10.052145671844482
9.90108603477478
9.773546652793884
9.687712326049805
9.632931456565856
9.60313823223114
9.593526492118835
9.589343519210816
9.574491953849792
9.535510277748108
9.505138673782348
9.518055648803712
9.513273134231568
9.443998608589173
9.37997528553009
9.411834406852723
9.572168407440186
9.779899520874023
9.91673689365387
9.98165174484253
9.972347531318665
9.842836151123047
9.6993816947937
9.6618501663208
9.637425403594971
9.549076819419861
9.482487082481384
9.465355620384216
9.427750158309937
9.35482675075531
9.302662539482117
9.327890620231628
9.404747443199158
9.455115618705749
9.49506419658661
9.593735752105713
9.724518251419067
9.798594002723695
9.815226397514344
9.855990176200867
9.88087589263916
9.73506962299347
9.415703334808349
9.097630829811097
8.90855357170105
8.84396544933319
8.846506638526916
8.890412058830261
8.98212396144867
9.086978335380554
9.1828604888916
9.349234170913697
9.599513664245606
9.803214149475098
9.912924189567565
10.00581337928772
10.112256479263305
10.181347060203553
10.191100568771363
10.210711188316345
10.254539604187011
10.232011156082153
10.177907094955444
10.229586987495422
10.336348361968994
10.297378087043763
10.075543451309205
9.871786708831786
9.82473602771759
9.841462655067444
9.860958771705628
9.956689715385437
10.077915029525757
10.088275399208069
10.030346693992614
10.014445085525512
10.032127542495727
10.0615749168396
10.118723216056823
10.181593232154846
10.207396340370178
10.197852373123169
10.23211344242096
10.360942931175233
10.479147419929504
10.47912977695465
10.416103768348695
10.394376287460327
10.427291345596313
10.458594427108764
10.48205427646637
10.551500082015991
10.636261205673218
10.639552512168883
10.590096287727356
10.61255699634552
10.717942500114441
10.782022495269775
10.726158576011658
10.61886028766632
10.526843867301942
10.400209283828735
10.241655220985413
10.144227194786072
10.102202172279357
10.04957130908966
9.99564215183258
9.996525430679322
10.069845275878906
10.14082459449768
10.143002781867981
10.12529384613037
10.121297526359559
10.082135109901428
10.050690975189209
10.165189723968506
10.408159871101379
10.584335699081421
10.59077558040619
10.501237649917602
10.372821078300476
10.210800642967223
10.128842325210572
10.210591950416564
10.292100796699524
10.219842238426208
10.08224377155304
9.998266644477845
9.958160953521729
9.918755860328675
9.901343841552734
9.926010580062867
9.890907578468322
9.701505193710327
9.474493889808654
9.387868928909302
9.434539337158203
9.483242769241333
9.487045273780822
9.52552496433258
9.605938801765442
9.601356782913207
9.531927738189697
9.573604121208191
9.705807271003723
9.747442202568054
9.666523094177245
9.57523082256317
9.546938118934632
9.562778878211976
9.594790759086608
9.62505551815033
9.599202480316162
9.544511823654174
9.573625149726867
9.669002346992492
9.750053291320802
9.83725438117981
9.929840817451478
9.956155910491944
9.890016465187072
9.766658062934875
9.65526641368866
9.607615933418273
9.583994455337525
9.510409870147704
9.390355648994445
9.291595025062561
9.23234582901001
9.162680668830872
9.105122151374816
9.144729504585266
9.232310032844543
9.283631525039674
9.373365817070008
9.524164710044861
9.615436487197876
9.627132387161256
9.641970553398131
9.672078504562378
9.64675983428955
9.542373003959655
9.473182492256164
9.54795865535736
9.712675971984863
9.823960356712341
9.777341499328614
9.607430281639099
9.455170917510987
9.385490131378173
9.414846849441528
9.583811268806457
9.801429057121277
9.903571329116822
9.895487122535705
9.89344723701477
9.933351521492005
9.974537143707275
10.014151163101197
10.069415144920349
10.06956305027008
9.976695909500123
9.92281265258789
9.973596205711365
10.000327911376953
9.903716368675232
9.713504700660705
9.546573715209961
9.500178508758545
9.525759701728822
9.581384911537171
9.727700052261353
9.90923861503601
9.99695605278015
10.007027435302735
9.996110796928406
9.941668372154236
9.841530094146728
9.793642659187316
9.884729852676392
10.0184161901474
10.04146966934204
10.008917427062988
10.05194191455841
10.116258711814881
10.10963578224182
10.082918920516967
10.103267397880554
10.154617657661438
10.192618770599365
10.241547045707703
10.370560140609742
10.529517908096313
10.593069763183594
10.535338101387024
10.437546210289002
10.424943265914917
10.527372198104858
10.63750355243683
10.694365639686584
10.673287816047669
10.525058946609498
10.348042993545532
10.303012719154358
10.355072841644287
10.384051489830018
10.398157715797424
10.455815720558167
10.496817154884338
10.449144711494446
10.420037622451781
10.509717135429382
10.579991526603699
10.469853081703185
10.262285132408142
10.198972749710084
10.381583709716796
10.597218799591065
10.614230699539185
10.536270842552184
10.545806012153626
10.581951532363892
10.55391233921051
10.494517483711242
10.431093773841859
10.410310173034668
10.491215071678162
10.599593315124512
10.600932750701904
10.507705826759338
10.471828179359436
10.54504550933838
10.566165690422059
10.423722224235535
10.2538938331604
10.188294649124146
10.183563532829284
10.202100791931151
10.270248184204101
10.362252264022827
10.365478739738464
10.205184144973755
9.98525384902954
9.877447915077209
9.924890389442444
10.012364807128906
9.995076627731324
9.900225319862365
9.83381247997284
9.74745834350586
9.658352179527283
9.735121874809264
9.879013934135436
9.839491572380066
9.68805335521698
9.591162095069885
9.476124286651611
9.273267540931702
9.121266207695008
9.137347273826599
9.192373456954956
9.118497123718262
9.018998346328736
9.11776743888855
9.374535388946533
9.485159497261048
9.29968301296234
9.033281559944152
8.904573464393616
8.858470072746277
8.829978127479553
8.868819584846497
8.933576726913453
8.970709614753723
9.059650635719299
9.210642571449279
9.331136856079102
9.428599448204041
9.530877695083618
9.57248529434204
9.520858807563782
9.451801233291626
9.473970980644227
9.561412558555602
9.552802262306214
9.445508222579956
9.420158262252807
9.504924440383911
9.529803380966186
9.448142566680907
9.443779854774474
9.606419644355775
9.788885102272033
9.880413174629211
9.886761064529418
9.85853355884552
9.916361842155457
10.071284079551697
10.182368230819701
10.212903399467468
10.17762843132019
10.060289530754089
9.98302278995514
10.050444412231446
10.151266946792603
10.210538239479066
10.309982552528382
10.45685362815857
10.513622107505798
10.411953988075256
10.320281295776367
10.430123691558839
10.609047932624817
10.58533239364624
10.41690909385681
10.400629987716675
10.590545101165771
10.745892510414123
10.743211960792541
10.671552019119263
10.527994112968445
10.289937567710876
10.128591995239258
10.117781891822816
10.096361327171326
9.98347933769226
9.820307140350343
9.65867521762848
9.621849880218505
9.788582201004028
10.0384534740448
10.16520998954773
10.073937673568725
9.896670169830323
9.846905522346496
9.926242303848266
9.973517065048219
9.94191725730896
9.912940464019776
9.893078274726868
9.784947209358215
9.597350897789001
9.492227330207825
9.53128695487976
9.59681571006775
9.580217881202698
9.480573363304138
9.40499174118042
9.453948478698731
9.569845795631409
9.664615659713744
9.754276990890503
9.81168019771576
9.755162229537964
9.617180218696594
9.50672040939331
9.464680471420287
9.448787732124329
9.452663893699645
9.530851483345032
9.615879611968994
9.573296184539794
9.501638960838317
9.566862225532532
9.653068823814392
9.613740887641907
9.56551501750946
9.639757409095765
9.777728199958801
9.911801643371582
10.097444806098938
10.290126523971558
10.289939403533936
10.138074350357055
10.077109937667847
10.124871912002563
10.189285292625428
10.246600089073182
10.204772682189942
10.007856645584106
9.785175580978393
9.695877637863159
9.767228927612305
9.91040250301361
10.029209804534911
10.072165608406067
9.985877604484559
9.769477577209473
9.571145029067994
9.542209997177125
9.654728178977967
9.773205728530884
9.793021340370178
9.704808626174927
9.605076546669006
9.614763946533204
9.741957607269287
9.828846354484558
9.741042327880859
9.587235646247864
9.559513440132141
9.64016023159027
9.696567869186401
9.735618696212768
9.84491828918457
9.96835165977478
9.965284519195556
9.8865247964859
9.870468969345092
9.859089617729188
9.782951831817627
9.725329461097717
9.689832377433778
9.616771006584168
9.577678933143616
9.599889721870422
9.569893493652344
9.470620665550232
9.401711225509644
9.402762098312378
9.436531004905701
9.50851531982422
9.668401117324828
9.832459902763366
9.87305525302887
9.839771418571472
9.808920464515687
9.788372502326965
9.84025586128235
9.972725763320923
10.067385268211364
10.074118633270263
10.052793369293212
10.062477307319641
10.115468201637269
10.185936436653137
10.293939995765687
10.466143050193786
10.615415778160095
10.647809224128723
10.590526161193848
10.529076809883117
10.51344340801239
10.526918292045593
10.530823059082032
10.494044599533082
10.374265732765197
10.20842131137848
10.142934703826905
10.233019528388978
10.34065770149231
10.311601915359496
10.16719702243805
10.05416521549225
10.033076782226562
10.041734647750854
10.037961492538452
10.006148586273193
9.949610085487366
9.955722899436951
10.049280061721802
10.114465050697326
10.130973296165466
10.188499813079835
10.281596884727477
10.359976716041565
10.405181498527527
10.400364575386048
10.372944297790527
10.345903315544128
10.271016168594361
10.101609873771668
9.853191146850586
9.6233318901062
9.447928876876832
9.335080637931824
9.300071301460266
9.32644254207611
9.320967717170715
9.273313727378845
9.23697163105011
9.214305853843689
9.221151757240296
9.250087871551514
9.256197619438172
9.272874102592468
9.305714635848998
9.271889872550965
9.167201104164123
9.094130473136902
9.12529438495636
9.199710597991944
9.19846435546875
9.144344310760498
9.153431282043456
9.218099918365478
9.273718061447143
9.336312274932862
9.422621040344238
9.486119413375855
9.487057065963745
9.480123744010925
9.562420043945313
9.705998158454895
9.792556929588319
9.814455375671386
9.841934428215026
9.883526296615601
9.909604887962342
9.914155192375183
9.945316472053527
10.02513906955719
10.046086039543152
9.94222321510315
9.808755350112914
9.70802631855011
9.61857605934143
9.55558669090271
9.572631630897522
9.704168944358825
9.901774816513061
10.09405014514923
10.322040424346923
10.60595027923584
10.863836507797242
10.95694245815277
10.890204491615295
10.788502879142762
10.747483868598938
10.743226180076599
10.729289679527282
10.699503784179688
10.631636848449707
10.510667119026184
10.375729722976684
10.276574349403381
10.24934854030609
10.282348341941834
10.303097138404846
10.255924706459046
10.18835117816925
10.240259423255921
10.41858021736145
10.50327835559845
10.40312045097351
10.314322681427003
10.349414196014404
10.357059488296509
10.221205396652222
10.077881345748901
10.091361618041992
10.176518349647521
10.133466844558717
9.97201473712921
9.876828908920288
9.91156111717224
10.022709918022155
10.186749577522278
10.35511399269104
10.43944727897644
10.385700159072876
10.237839293479919
10.160887155532837
10.220752787590026
10.252752957344056
10.168622808456421
10.101351342201234
10.128760595321655
10.119925689697265
9.942858905792237
9.700820479393006
9.561364135742188
9.459814276695251
9.278494267463683
9.107823333740235
9.075166382789611
9.151054439544678
9.233516221046449
9.289035277366638
9.371422142982484
9.508227124214173
9.63627504825592
9.733275790214538
9.835754857063293
9.884521446228028
9.831594638824463
9.776811547279358
9.778119850158692
9.78520248889923
9.825609521865845
9.915017108917237
9.868642883300781
9.615723004341126
9.432507638931275
9.487744302749634
9.602285475730897
9.651591477394105
9.739177942276001
9.894071030616761
9.938504900932312
9.780681171417235
9.620993771553039
9.682345700263976
9.870302605628968
9.927607374191284
9.808310251235962
9.640134873390197
9.515476875305175
9.477895259857178
9.47032030582428
9.404045147895813
9.365323014259339
9.433865308761597
9.512603945732117
9.561173510551452
9.645479183197022
9.783524222373963
9.935888147354126
10.049833216667174
10.096282596588134
10.082068414688111
10.047899198532104
10.053448486328126
10.087083954811096
10.075765719413758
10.01415256500244
9.967291941642761
9.989721441268921
10.045083751678467
10.011769857406616
9.886237025260925
9.803157801628112
9.765200409889221
9.688691153526307
9.622851758003234
9.609773526191711
9.590597667694091
9.602232637405395
9.747273163795471
9.919147591590882
9.93247423171997
9.910044445991517
10.076226406097412
10.30527416229248
10.355441660881043
10.27788426399231
10.214811358451843
10.148060503005981
10.041997585296631
9.945915660858155
9.920433683395386
9.934676003456115
9.851378016471863
9.636992621421815
9.471104383468628
9.500355505943299
9.674411311149598
9.832514877319335
9.849068698883057
9.806306619644165
9.876571378707887
9.994072575569152
9.987997570037841
9.91353356361389
9.937593002319336
10.038978276252747
10.044102272987367
9.936676754951478
9.8765292263031
9.915627131462097
9.977735886573791
10.02742606639862
10.068369226455689
10.087447233200074
10.079357457160949
10.07914183139801
10.095740957260132
10.05543656349182
9.944637389183045
9.87205225944519
9.8727263879776
9.875032739639282
9.891873497962951
9.979820799827575
10.092532467842101
10.160645699501037
10.164573941230774
10.097091732025147
9.956121335029602
9.814993424415588
9.806126141548157
9.878921332359313
9.806234121322632
9.573731966018677
9.40965217590332
9.419820203781128
9.512799320220948
9.59183650970459
9.663672404289246
9.79001102924347
9.938075299263
10.039715361595153
10.182116532325745
10.433272318840027
10.623964114189148
10.58280376434326
10.372240524291993
10.176258950233459
10.108266997337342
10.139589347839355
10.18324730873108
10.20059061050415
10.196839127540589
10.181871008872985
10.143682675361633
10.081734285354614
10.022705564498901
9.940044994354247
9.83288652420044
9.801918239593506
9.84978657245636
9.863393154144287
9.837589101791382
9.868126897811889
10.002460074424743
10.160826077461243
10.210161924362183
10.185386981964111
10.224358158111572
10.295110020637512
10.278236184120178
10.178252029418946
10.06496967792511
9.97109477519989
9.911665868759155
9.898114213943481
9.925001344680787
9.972798442840576
10.043863520622253
10.132524700164796
10.148652667999267
10.077321996688843
10.113690905570984
10.35017213344574
10.56982515335083
10.57575417995453
10.450341639518738
10.361633930206299
10.310067491531372
10.215903444290161
10.13890983581543
10.141361246109009
10.09511278629303
9.934542927742005
9.828361420631408
9.927240233421326
10.150500111579895
10.266957192420959
10.19881769180298
10.116595287322998
10.11946617603302
10.124884991645812
10.105674982070923
10.10448025226593
10.10904435634613
10.102322854995727
10.1047243309021
10.119740767478943
10.100292654037476
10.009397568702697
9.89117660522461
9.78187162399292
9.656300511360168
9.540673217773438
9.46237564086914
9.371148900985718
9.286566219329835
9.278936820030212
9.311434307098388
9.318464636802673
9.307735238075256
9.318409099578858
9.362857661247254
9.380743255615235
9.304193100929261
9.173962025642394
9.091989331245422
9.097446360588073
9.11820158481598
9.079332556724548
9.0426677942276
9.083675694465636
9.11814715385437
9.04636215686798
8.943620882034303
8.942261090278626
9.028315472602845
9.092932682037354
9.122353382110596
9.160655636787414
9.12717008113861
8.955817804336547
8.822435269355774
8.875005807876587
8.974539742469787
8.960981192588806
8.875694189071655
8.851839323043823
8.914090065956115
8.933710227012634
8.860658235549927
8.804838604927063
8.810109496116638
8.835989346504212
8.878320860862733
8.910626072883606
8.911303329467774
8.955377955436706
9.108812909126282
9.323521184921265
9.487398042678834
9.55246886253357
9.595864100456238
9.678624424934387
9.763159036636353
9.835293440818786
9.90381724357605
9.917240347862244
9.845700817108154
9.762051939964294
9.756055355072021
9.786972541809082
9.75263309955597
9.739905052185058
9.909590716361999
10.172687726020813
10.312636528015137
10.280068492889404
10.209218678474427
10.238969373703004
10.350049662590028
10.443172087669373
10.51449532032013
10.614200043678284
10.718699669837951
10.76353415966034
10.748471336364746
10.708358473777771
10.638918976783753
10.548975749015808
10.521775031089783
10.58937864780426
10.592396459579469
10.43061336040497
10.291994853019714
10.298837885856628
10.303715891838074
10.241969566345215
10.231700053215027
10.295800457000732
10.328771567344665
10.289537591934204
10.25021441936493
10.25825936794281
10.251197209358216
10.192449297904968
10.146909623146056
10.127982568740844
10.052506008148193
9.91043445110321
9.819416632652283
9.838181896209717
9.871346564292908
9.83744875907898
9.779101824760437
9.77012746810913
9.820522541999816
9.887586421966553
9.97161585330963
10.075149836540222
10.08041183948517
9.967291774749755
9.927285404205323
9.968240303993225
9.911053824424744
9.81088610649109
9.80997628211975
9.846185288429261
9.834210324287415
9.775338072776794
9.688345031738281
9.608036284446717
9.541829733848571
9.48186149597168
9.460435185432434
9.47608130455017
9.475143022537232
9.469187445640564
9.53381627559662
9.663831877708436
9.752648754119873
9.774552512168885
9.846771855354309
9.998719964027405
10.101349101066589
10.083956823348998
9.995654306411744
9.909768481254577
9.867427296638489
9.857773299217223
9.871753420829773
9.932635135650635
9.981211619377136
9.90040804386139
9.746766409873963
9.68099404335022
9.700139551162719
9.708551397323609
9.689373407363892
9.6541441488266
9.616169242858886
9.654844312667846
9.833791193962098
10.049922971725463
10.140070853233338
10.111454434394837
10.097923030853272
10.148552112579345
10.166161379814149
10.095671458244324
10.092000670433045
10.237554244995117
10.312390360832214
10.199846577644347
10.059580373764039
9.94161765575409
9.803932991027832
9.74503303050995
9.794354085922242
9.81053982257843
9.714570846557617
9.57323576927185
9.499691133499146
9.5125172996521
9.504505338668823
9.412076125144958
9.32604259967804
9.376081318855286
9.517230677604676
9.578850908279419
9.575313849449158
9.634509677886962
9.679831056594848
9.571504197120667
9.38324878692627
9.340503215789795
9.564590873718261
9.86187270641327
9.96010778427124
9.913091735839844
9.883696465492248
9.835615763664245
9.749051084518433
9.718403525352478
9.76976237297058
9.840246019363404
9.88448004245758
9.925328674316406
10.007966985702515
10.10322865486145
10.12385500907898
10.055605158805847
9.962986431121827
9.88298945903778
9.791851897239685
9.671932559013367
9.567132267951965
9.518678698539734
9.518458995819092
9.522121315002442
9.452562537193298
9.337171759605408
9.357010827064514
9.537498588562011
9.67708297252655
9.710677757263184
9.752587170600892
9.832702431678772
9.884540424346923
9.91021568775177
10.006697635650635
10.160271668434143
10.181428942680359
10.032248163223267
9.922347140312194
9.950726656913757
9.972466378211974
9.853799266815185
9.67485694885254
9.569708404541016
9.472128901481629
9.310626301765442
9.254869012832641
9.409138550758362
9.582180666923524
9.582971649169922
9.44087462425232
9.304299292564393
9.252890048027039
9.248699498176574
9.288817257881165
9.37658435344696
9.419171109199524
9.431637463569642
9.52353964805603
9.64123396396637
9.681854825019837
9.660871658325195
9.626082787513733
9.594830899238586
9.55005949497223
9.478704986572266
9.417441244125365
9.408459868431091
9.464160432815552
9.526798915863036
9.502456517219544
9.428210983276367
9.409983587265014
9.466607270240784
9.586283826828003
9.70607524394989
9.704506940841675
9.626126146316528
9.658677864074708
9.808705654144287
9.900483441352844
9.881150121688842
9.902326483726501
10.037226886749268
10.098020071983337
9.973288297653198
9.86717113494873
9.919611382484437
10.002634544372558
10.010689101219178
9.992646565437317
10.02055215358734
10.071489658355713
10.10571837425232
10.184378185272216
10.25851360321045
10.122243089675903
9.895230560302734
9.811083788871764
9.935614204406738
10.066976618766784
10.135594935417176
10.216921253204346
10.335563516616821
10.378749232292176
10.321890125274658
10.301331987380982
10.30563708305359
10.214015283584594
10.08000376701355
9.994749693870544
9.947018566131591
9.92782895565033
9.918013191223144
9.895721344947814
9.874923748970032
9.845424513816834
9.814002652168273
9.83046247959137
9.919780583381653
10.057092156410217
10.1623664188385
10.208190894126892
10.238925728797913
10.2041681432724
10.092315917015076
10.076292157173157
10.21000066280365
10.32400426864624
10.328061647415161
10.281005339622498
10.214829888343811
10.098659229278564
9.943509335517883
9.86520037174225
9.948833680152893
10.091355500221253
10.148868737220765
10.117704935073853
10.084625306129455
10.112944684028626
10.170293884277344
10.226622409820557
10.326466879844666
10.443222737312317
10.555474224090576
10.773866991996766
11.006109170913696
11.086926217079162
10.927921814918518
10.699039726257324
10.534663262367248
10.425820488929748
10.321472129821778
10.28374125957489
10.328236722946167
10.340660610198974
10.344407005310059
10.44743230819702
10.621873960494995
10.81257375717163
10.965436444282531
11.020515432357788
11.063598909378051
11.177101702690125
11.263605175018311
11.278141765594482
11.2958180809021
11.284618167877197
11.161003961563111
10.995518679618835
10.896291947364807
10.81369815826416
10.70247585773468
10.705618391036987
10.889405889511108
11.039126811027527
10.98109781742096
10.80675108909607
10.673832683563232
10.646619482040405
10.67353060245514
10.64620623111725
10.565826148986817
10.492234444618225
10.38049847126007
10.230518312454224
10.171057782173158
10.255027451515197
10.399580144882203
10.512557916641235
10.575284299850464
10.578219623565674
10.488237090110779
10.38085943222046
10.355234465599061
10.339659223556518
10.266115746498109
10.231173348426818
10.322537031173706
10.479642004966736
10.587919120788575
10.645629992485047
10.698800234794616
10.665216155052185
10.49542185306549
10.346385293006897
10.29346441268921
10.234759392738342
10.098568487167359
9.955885214805603
9.889064383506774
9.896593828201294
9.946034874916077
10.046547927856444
10.16777172088623
10.207852149009705
10.169807829856872
10.1927073097229
10.296100997924805
10.323602275848389
10.256985111236572
10.273711266517639
10.375773987770081
10.337428603172302
10.099154782295226
9.859832797050476
9.757028646469116
9.747840161323547
9.775544772148132
9.83759199142456
9.922286758422851
9.998309769630431
10.081050205230714
10.243159475326538
10.48215057849884
10.628622117042541
10.548511190414429
10.347991728782654
10.202504963874818
10.148030738830567
10.122947273254395
10.095947885513306
10.074100661277772
9.997389826774597
9.83558964729309
9.717149419784546
9.710478887557983
9.686009650230408
9.523524932861328
9.283424434661866
9.116453680992127
9.04760901927948
9.012963523864746
9.068866758346557
9.269430856704712
9.463147296905518
9.538433294296265
9.581756587028503
9.688568434715272
9.764667921066284
9.711746892929078
9.584384994506836
9.450713629722594
9.330698618888855
9.268979597091676
9.268277049064636
9.265244908332825
9.254527373313904
9.303747534751892
9.424267797470092
9.50879608631134
9.450838661193847
9.305259232521058
9.256733360290527
9.39399672985077
9.57942488670349
9.646759586334229
9.624882912635803
9.612197251319886
9.60844892501831
9.611128172874452
9.664655652046203
9.704933671951293
9.610854797363281
9.492091083526612
9.566592359542847
9.761819572448731
9.851437907218934
9.80355797290802
9.70521460533142
9.615138988494873
9.540652766227723
9.470631499290466
9.487983255386352
9.623083171844483
9.699973764419555
9.65660249710083
9.667547111511231
9.812883915901184
10.00369071006775
10.165907125473023
10.278080277442932
10.296439776420593
10.193932251930237
10.080441746711731
10.086612477302552
10.13650170326233
10.074268460273743
9.930573024749755
9.84789168357849
9.890758867263793
10.030084614753724
10.171560306549072
10.230743741989135
10.225568919181823
10.185667972564698
10.064177932739257
9.866249942779541
9.713110108375549
9.701142344474793
9.798345785140992
9.916103854179383
10.014789690971375
10.057554473876953
9.991523265838623
9.892276449203491
9.908841700553895
10.041296405792236
10.178630013465881
10.250376853942871
10.231826667785645
10.131650686264038
10.039219188690186
10.049059586524963
10.057163319587708
9.905108761787414
9.735431571006774
9.752533574104309
9.853895778656005
9.895779314041137
9.914768714904785
9.96789454460144
10.02979643344879
10.001502132415771
9.878708572387696
9.827240891456604
9.900145502090455
9.987532286643981
10.053334536552429
10.078792042732239
9.97296070575714
9.779405999183655
9.73910671710968
9.929988441467286
10.097191624641418
10.072133827209473
10.014127702713013
10.062907218933105
10.128456363677978
10.11787947177887
10.054140090942383
9.95448848247528
9.799828310012817
9.61381398677826
9.500612993240356
9.540700688362122
9.62717263698578
9.600500855445862
9.50834789276123
9.458779106140137
9.421782751083374
9.378341579437256
9.397679953575134
9.5111909866333
9.661421308517456
9.75487633228302
9.742709879875184
9.665435004234315
9.599339380264283
9.565042109489442
9.554487481117249
9.59863778114319
9.669419078826904
9.644063200950622
9.525651588439942
9.477479996681213
9.533349323272706
9.574039840698243
9.545011539459228
9.448292965888976
9.322488827705383
9.276608834266662
9.366308274269104
9.515441555976867
9.59659604549408
9.56050609588623
9.478980293273926
9.425179877281188
9.408244123458863
9.427899436950684
9.493909435272217
9.62481632232666
9.767845950126649
9.795380420684815
9.723656268119813
9.675948944091797
9.65096875667572
9.62798406124115
9.656093530654907
9.696391386985779
9.649532866477966
9.536657795906066
9.522206010818481
9.714500260353088
9.968096289634705
10.069049291610717
10.09577757358551
10.270946593284608
10.500862011909485
10.510189356803894
10.349336657524109
10.281399965286255
10.292321743965148
10.173696866035462
9.96026137828827
9.880067067146301
9.972624793052674
10.08942458152771
10.23828872203827
10.60657464504242
11.126725187301636
11.400036578178407
11.323126802444458
11.320205674171447
11.66296338558197
12.052579388618469
12.060944333076478
12.062046427726745
12.24104748725891
12.420456237792969
12.508760333061218
12.556575455665588
12.762164578437805
13.266128582954407
13.58299512386322
14.076849145889282
15.642342891693115
17.113747277259826
17.80326771259308
18.042971992492674
18.38190246105194
18.66925378322601
18.342562284469604
18.567218556404114
18.991877813339233
19.074432163238527
19.17775374889374
19.079492330551147
19.164962420463564
19.197192969322206
19.60659688949585
20.327032980918883
20.29545129299164
20.675139632225036
20.880491313934325
20.745131225585936
21.044794244766237
21.00282190322876
20.76398150920868
20.97580889701843
21.82702494621277
22.612294960021973
23.341104187965392
24.792337384223938
26.785275092124937
28.15781238079071
28.565355739593507
28.676448650360108
28.738621606826783
28.14551094532013
28.552216958999633
30.386478180885316
33.16535691738129
35.86420535564422
37.479483561515806
37.60133563995361
38.03202919960022
38.659537482261655
38.929748225212094
39.36710039615631
40.20029868602753
41.089773645401
41.76820269107819
42.29403897762299
43.10763667106628
43.57267140865326
42.58999675750732
41.191597962379454
40.35588636398315
40.19928819179535
39.90696956634522
39.587745509147645
40.17466833591461
40.296022658348086
40.14140499591827
40.261577920913695
40.39389659881592
40.620086126327514
40.32993524074554
40.6002715587616
40.82636157035827
40.49523710250855
40.960708832740785
42.023759021759034
43.487153019905094
44.93933119297028
45.69351099491119
46.40594067573547
46.536681489944456
46.961736207008364
47.739242634773255
49.01812278747558
50.20926686286926
49.76549918651581
48.39055943965912
49.03854445934296
50.363154602050784
50.59103003025055
50.607595295906066
51.31376638889313
50.785590834617615
48.78032535552978
46.11741925239563
43.960334734916685
42.51253125667572
42.35289457798004
42.50027865409851
42.76606273651123
43.4269596529007
44.396357727050784
45.26425233364105
45.19220973491669
44.219711136817935
43.843895621299744
43.87049561023712
44.59153365135193
46.0560181427002
48.029722819328306
49.705837640762326
50.38082329273224
50.517244567871096
50.7283989572525
51.50880930423737
52.460021314620974
52.7812642288208
52.50467131137848
52.30960730552673
52.466467871665955
52.84252175331116
52.74282451629639
52.67347152709961
53.123503432273864
53.614568753242494
53.16398761749267
52.37659479141235
51.41183817386627
50.356893129348755
49.970102310180664
49.90875869750977
50.23862513065338
50.06599293708801
48.737043519020084
46.6647838306427
45.61412605285645
45.836610732078555
45.09085805892944
43.796043453216555
43.82836048126221
44.53260690689087
43.916208782196044
44.365715446472166
45.16437302112579
45.26569371700287
45.160353441238406
45.96151482105255
46.58914635658264
45.95307033538818
45.54569405078888
44.75616798400879
43.43527931213379
41.98831361293793
41.22800054550171
41.086044669151306
40.289044690132144
39.18889157295227
37.60739726066589
36.2435902261734
34.553653955459595
32.758239097595215
31.733893880844118
31.653788490295412
31.84320460796356
31.37640902042389
30.912413539886476
31.326694836616515
31.89554410457611
32.8833021736145
35.60983302593231
38.90617935657501
40.849637060165406
40.74294931411743
40.71068661689758
41.500502252578734
42.41315005302429
43.115642080307005
44.41719699382782
46.134225368499756
46.10983337402344
48.09296904563904
50.73642010688782
53.134156575202944
55.79128178596497
58.5037872171402
59.58256675720215
58.961221408844
57.752823696136474
57.763864636421204
57.84445297718048
56.88194236755371
57.221341271400455
56.385154938697816
55.36277003288269
56.12354763507843
57.75488229751587
59.07688855171204
60.563057613372806
61.56204590320587
61.947888660430905
63.23154899120331
63.57839015960693
63.61882754802704
65.61561415672303
69.37153237342835
71.59429092884064
72.48109340667725
75.52662762641907
76.67223950386047
76.76391710281372
78.17055210113526
78.30821360588074
80.06695640087128
81.848268866539
81.91550100803376
81.33835211277008
81.4006757736206
82.1788938999176
83.13465453624725
82.98629036903381
82.00790265083313
80.74424695491791
80.72928046703339
81.17907765388489
81.42402121543884
82.1846201133728
82.49012525558472
80.68263305187226
79.74304537773132
80.1761473274231
79.77276954174042
78.8388999080658
77.43890737533569
74.86759792327881
72.75318336963653
74.1110257577896
77.71597405433654
80.92069715023041
81.69401254177093
81.53075891494751
83.49959294319153
85.67366492271424
87.57655017375946
89.12733200073242
89.56208356380462
88.74249871730804
87.09628911495209
85.53298829078675
85.68646863937379
85.9638485622406
85.11382388114929
84.81149475097656
84.62652825355529
82.75495575904846
79.37807234287261
77.13351373195648
76.39367631912232
73.90821493625641
72.48672206401825
72.24157680988311
71.82871146678924
73.22409946918488
72.4704390335083
71.14848802566529
71.15676393985748
71.03890777587891
69.73936706542969
68.61666110992432
67.28618687152863
66.00241508007049
65.73222741603851
66.665640707016
66.83422723770141
65.88789266109467
64.49548778057098
62.780324215888974
62.70775165557861
64.67666680335998
63.74307389259339
65.64904466629028
67.81815217971801
67.70704235076904
66.3059315776825
65.7404027080536
65.49423715114594
63.137850432395936
60.023392333984376
58.34024450302124
58.37817571640014
57.91202932834625
56.917110600471496
55.357788953781125
53.25588064670563
52.08591364860535
51.02253283977509
50.64915930271149
51.10970124721527
50.933129324913025
50.49070058822632
51.001895332336424
51.76083047866821
52.376159415245056
52.76142951488495
53.06321995258331
53.40201704025269
53.807000694274905
53.88547608375549
54.11569988250732
54.65868978977203
54.33851619720459
54.900982098579405
55.624559092521665
56.37978517055512
56.75462289810181
56.186752195358274
56.33231647491455
57.36518553256988
58.06162496089935
59.26501541137695
60.96777767658234
61.677142763137816
60.62098544597626
61.54043608188629
64.8804328250885
68.81739223003387
70.79313048839569
68.71316626548767
69.32844817638397
72.51977590560914
72.45351959228516
71.41210107326508
71.56278534412384
71.88954378604889
72.64928440570831
74.70284969806671
76.15547425746918
75.87789074897766
74.92837460041046
75.29658382415772
77.46745855808258
77.82176562786103
77.06975551128387
77.63429240703583
78.30404496669769
79.53242418289184
80.24942358493804
79.532145819664
78.94740026474
78.99301119327545
78.6096667289734
77.74306732177735
77.39380815982818
77.91748837471009
77.24104918003083
77.58295876979828
78.07242962360382
78.24476791381836
78.38651187419892
79.22323107719421
81.1302482843399
81.1733657169342
80.01178069114685
78.11264867782593
79.08311134815216
82.58897650241852
85.03481382369995
84.92257555484771
84.32578018665313
83.10189504146575
80.76272533416748
79.02284801006317
79.4493640613556
79.26390483379365
77.24755770206451
74.14456835269928
71.76822460651398
71.73208960533142
69.45992988586426
66.7037241601944
64.09442416667939
62.13896075248718
60.426425700187686
60.25058032989502
59.93104056835175
57.98572876930237
58.511554632186886
60.622373414039615
61.688442621231076
60.67595144748688
58.46167197704315
57.48215741634369
57.98409595966339
58.193471603393554
58.05736866474152
57.809621758461
57.690981006622316
58.03651733398438
58.41386790752411
58.11464467048645
57.4186541891098
57.347826266288756
56.9416041135788
56.45866993904114
57.644895992279054
57.352625427246096
56.33291355133056
55.90052317619324
54.833470940589905
53.217752656936646
52.255290021896364
52.27688732147217
53.11240777492523
55.11950443267822
54.47190454006195
50.58018362045288
49.77051480770111
52.423193182945255
55.38645096302032
56.3494255399704
55.678795285224915
56.033853545188904
56.33176330566406
55.627917628288266
54.11879362106323
52.93699147701263
52.143971118927
52.59605631351471
52.82753941059113
52.7338951253891
53.02202998638153
53.337355031967164
53.129804363250734
51.91759637355804
51.39373159885407
50.93845372676849
49.108879718780514
46.68012239456177
45.91138227939606
46.57985490322113
47.83421560287476
48.155645561218265
48.127291135787964
48.301754522323606
48.24691423892975
47.387742309570314
45.81417132854462
45.061446976661685
44.92912241458893
44.385923833847045
43.94201093673706
43.48249953746796
43.54049514770508
43.157517094612125
42.15337608337402
41.88352114677429
41.99597547054291
42.50679418563843
43.89473539829254
45.62055843830109
47.23987399101257
48.578637080192564
49.13213240623474
48.01940783023834
47.64932415485382
51.56842235088348
54.194084587097166
54.095414185523985
51.86033936977387
50.64571212768555
51.11528993606567
50.17229986190796
49.26484090328216
49.057144322395324
48.93833006858826
48.79991653442383
49.15641664505005
49.721344895362854
49.98463487625122
49.88440269947052
49.53227011680603
49.02317610740661
49.25269765853882
50.13337125778198
50.21673897743225
50.52575613498688
50.73643624305725
50.77501371860504
49.78006447315216
48.29248480319977
47.30042224407196
46.537466526031494
45.916024498939514
45.004061784744266
44.255420107841495
43.64677001476288
43.76962944984436
43.496594982147215
43.046420154571535
43.082259607315066
42.838352732658386
42.94092480659485
42.68578935623169
43.67335021018982
45.77832231998443
47.45565706253052
48.809191617965695
48.496146159172056
47.72900270462036
46.87739817619324
44.90849019050598
42.10297387123108
39.708123178482055
38.732601037025454
37.46182594776153
34.19446759700775
31.0363800907135
29.501524243354798
28.922946481704713
29.525011563301085
30.02880651473999
30.093796224594115
30.00359292984009
30.660540995597838
32.432049803733825
34.00539750576019
34.78544178009033
34.240538296699526
33.579495549201965
34.43806216239929
35.5164998292923
35.25517098903656
34.30097442626953
34.01140882015228
34.49319438934326
34.92503146648407
35.01026804924011
35.06299521923065
35.3806463432312
36.437776341438294
37.45499237060547
38.35055426120758
38.495117440223694
38.965531253814696
39.98550600528717
41.40656808853149
42.319158329963685
42.787774868011475
43.09951312541962
43.398241791725155
43.82088442802429
44.02033295154572
44.24443535804748
43.42082251548767
41.880666050910946
39.79660037517547
39.17432943344116
40.13614221572876
40.57312379360199
40.132365355491636
39.9949093580246
40.7243852853775
42.516811928749085
44.8079947423935
46.16777079105377
45.482839703559875
45.151792345047
46.53014941692352
51.338945608139035
56.1204869222641
58.23248546600342
58.143673901557925
61.40970502376556
64.32160997390747
65.28393445014953
65.3672327375412
65.53556933879852
65.24261772632599
66.43307012081146
67.6420135641098
67.99148568630218
67.69255194664001
68.90186611652375
70.71775359630584
72.86058350563049
74.74328171730042
75.69384262084961
75.82083354473114
75.63815665721893
75.20053925037384
75.14686695575715
75.3199326467514
75.04908005714417
75.17889488220214
74.2134146642685
74.35978334903717
75.746878824234
77.85064496994019
79.067864985466
79.25382382869721
80.32512019634247
80.85291007041931
81.24700486660004
81.7824459695816
82.23489568710328
83.00105209827423
82.87436218261719
82.40165643692016
82.28331610679626
82.38775073528289
82.39852389335633
81.86657150745391
80.35478702545166
78.49125163555145
77.55278224945069
