0.01017949470318854
0.010203664898872375
0.010215896632289515
0.010191832495620475
0.01014572156011127
0.010121418746421114
0.0101282365527004
0.010132989388657733
0.010127482219832017
0.010134074902161956
0.010149720805929973
0.010153199975611642
0.010151186948642135
0.010164258978329599
0.010189002871047705
0.01020396258449182
0.010196665180847048
0.010177851705811918
0.010172516031889244
0.010189248345559463
0.010206642070552335
0.010206327037885786
0.010201106506865471
0.0102146989305038
0.010249100900255144
0.010276511668926104
0.010269514663377777
0.010243228902108967
0.010233660216908903
0.010234773891279475
0.010222595408558846
0.010216304155765101
0.010234366621589289
0.010252741974545643
0.010261139014037326
0.010278106392361224
0.010297807042952627
0.010297098461305722
0.010280559071106836
0.010265023215906695
0.01025610467651859
0.0102570386743173
0.01025660141487606
0.010236821179278195
0.010213475743075833
0.010212949921842664
0.010220153765985743
0.010207181256264448
0.010179204656742514
0.010154476769967004
0.010150709825102239
0.010184879652224482
0.010238917582901194
0.010270611754385754
0.010271531479666009
0.010255135013721883
0.010216653122333809
0.010167294420534745
0.010145854741567746
0.010148309640353546
0.01012738313060254
0.010080704384017735
0.01006001663976349
0.010087372974958271
0.010125220406334847
0.010137127626221628
0.010128845103317873
0.010120136694749817
0.010120072076097131
0.010135774285299704
0.010162097736028955
0.010171755161136388
0.010156386920716614
0.010145591298351065
0.010154646870214492
0.01015795616665855
0.010131581533933058
0.010093996303621679
0.010088664916111156
0.010122588551603258
0.010153505702037364
0.010153018001001329
0.01013761352514848
0.010129343126900494
0.010125923122977838
0.010117038082098588
0.010102922862861305
0.010082947494229302
0.01005295073497109
0.010026001336518675
0.010021749624283984
0.010029921111417935
0.010023625486064702
0.01001375563791953
0.010033161345636471
0.010068508924450725
0.010082978752907366
0.010083541080821306
0.010097267138771713
0.010120150104630738
0.010135765539016574
0.010142681492725387
0.010139342327602208
0.010123636872740462
0.01011181718786247
0.010117406797362491
0.01012142218882218
0.01010282881790772
0.010079204887151718
0.010076698526972905
0.01008702363469638
0.010090702048037201
0.010090292452368886
0.010093693870585412
0.0100939295894932
0.010083586613181978
0.010071279723197222
0.010066700616152956
0.01005656249122694
0.010023020374355839
0.009978108421200886
0.009949311494128778
0.009945514289429412
0.009952729634242131
0.009951050657546147
0.009934662353480235
0.009915925009408966
0.00990586546715349
0.009908114130375907
0.009927694353973494
0.009953771815635264
0.009960972630651668
0.009949125511338934
0.009938588885124772
0.009932649316033349
0.009925225608749316
0.00992281366023235
0.009927673737984151
0.009929252770962193
0.009927394618280232
0.0099311110842973
0.009947278664913028
0.009983438218478113
0.010026115722721442
0.010036655281437561
0.010006974891293794
0.009983230957295745
0.00999662656453438
0.010018028288614004
0.010017597620608285
0.010008088002214208
0.010009170175762847
0.010021403443533927
0.010034836700651795
0.010037243916885928
0.010018578459275887
0.0099832821439486
0.009959082887507974
0.009966858556726948
0.009983311688993126
0.009976215349743143
0.009962062406120822
0.009969813531497493
0.0099854614934884
0.009991687239380553
0.00999892188468948
0.01001269310247153
0.010029247673228383
0.010043229124275967
0.010044266860932112
0.010031565168173984
0.010012926019262522
0.010001120197121054
0.010011673516128212
0.010028157971100881
0.010015019599813968
0.00997806802392006
0.009949166440637782
0.009935586475767194
0.009932059459388257
0.00993995979311876
0.009950889302417635
0.009952767547219991
0.009948705802671612
0.009945794220548122
0.009947976004332304
0.009962417323840782
0.009987520148279146
0.010001423067878932
0.009989248448982834
0.009969711496960371
0.009963053988758474
0.009959465534193442
0.009949070890434087
0.009939912349218503
0.009934440110810102
0.009929013920482248
0.0099212052160874
0.009902217595372348
0.009867373782908544
0.009832236730726435
0.009821862247772515
0.009841759410919622
0.00987086809356697
0.009885311585385352
0.009878958963090554
0.009869172839680687
0.009881032713456079
0.009912214310606942
0.009932760697556659
0.00992778327781707
0.009912070953287184
0.009900491909356789
0.009888878944329917
0.009870348466793076
0.009851573918713257
0.00984367001685314
0.009851565962890163
0.009867371699074283
0.009872224007267505
0.009862967591034248
0.009858440569369123
0.00986381063121371
0.009860120008233934
0.009845067611895502
0.009846859646495431
0.009874811554327607
0.009891792355338111
0.009864306550007314
0.009815993276424706
0.009790577612584457
0.00979309624992311
0.009812515918165446
0.009840415472863242
0.009847193057648838
0.009819091035751626
0.009803147362545133
0.009841214978368953
0.009897764949128031
0.009912883049109951
0.009886276155011729
0.009869179400848225
0.009892313906457275
0.00992739207809791
0.009932225849479438
0.009909470893908291
0.009893435760168358
0.00990223950939253
0.009927792004309594
0.009954666254343466
0.009969932158710434
0.009968340976629407
0.009958605017745868
0.009954546738881617
0.009958299215650186
0.00996852746233344
0.009994162096409126
0.010025636670179664
0.010029247344937176
0.010005997725529596
0.009995298826834188
0.010008141165599227
0.01001878096256405
0.01001521061756648
0.010008537507383152
0.010003654696047306
0.00999849266372621
0.00999746551271528
0.009992923823883757
0.009964259251719341
0.009924424757482484
0.009911499436711893
0.009923060938017442
0.009924011931288987
0.009906734781106935
0.0098934748058673
0.00989675059565343
0.00990439319401048
0.009895537404809147
0.009873028040165082
0.009869987088022754
0.009894942302489653
0.009915832532569765
0.00992647812468931
0.009948071765247733
0.009964114293688908
0.009941988072823734
0.009901138095883652
0.009890861778985708
0.009918036564486102
0.009944334252504633
0.009947039862163365
0.009943643112201243
0.009950961663853376
0.009959398151841015
0.009958010464906693
0.009949216176755727
0.009935436577070505
0.009910487008746714
0.009869102886877954
0.009829353076638654
0.009821887823054567
0.009843695875024422
0.009859007340855897
0.009851225158199669
0.009846435838844626
0.009881400159792974
0.009946553739719094
0.00997902913717553
0.00994858410093002
0.009906868111575023
0.009900666943285613
0.009904006008291617
0.009880561591126024
0.009845133547205478
0.00983562391018495
0.009864950645714998
0.009905303957639262
0.009922122152056545
0.009924188203876838
0.009939717935631052
0.009965070855105295
0.009981802297988906
0.009986921297386289
0.009987758891656994
0.009990485911257565
0.009999229070963338
0.010017050969181582
0.01003350256360136
0.010031211047898978
0.010022058836184441
0.010039810906164348
0.010082202680641784
0.010103124642046168
0.010078442756785079
0.010042271260172129
0.010036303129745648
0.01005457597435452
0.010068786966148763
0.010076557190623135
0.010091547461925074
0.010105118915671483
0.010089954086579382
0.010047659709816798
0.01001894030487165
0.010021694427123293
0.01001895247376524
0.00998611079994589
0.009952325662598014
0.009946717533748596
0.00997045221971348
0.010007499009370804
0.010023584495065734
0.010006684081163257
0.009994255278725177
0.010008683713385836
0.010024369463790208
0.010022401867900044
0.010013198484666646
0.010012146738590673
0.010028080848278477
0.010051795947365463
0.010058921205345541
0.010041885325917974
0.010014728128444403
0.00998892954783514
0.009965700284810737
0.00994536281679757
0.009933919719187542
0.009932842009002343
0.009935420752735808
0.009944309735437855
0.009962745474185795
0.009976505227386951
0.009981703460216523
0.009997731572948396
0.01003129233373329
0.01006178347975947
0.01006406600237824
0.010033355415798724
0.00999301168252714
0.009970449038082734
0.009963063222821802
0.009953666791552677
0.009944628515513613
0.00993869105936028
0.009928205045871436
0.009918070294661447
0.00991756746196188
0.009926140831084921
0.009934325616341085
0.009931577764218673
0.009923079173313453
0.009920900732977316
0.009927434945711865
0.009942425100598484
0.009962152863154187
0.009979788075434044
0.00999782804516144
0.010020960017573088
0.010037909757811577
0.010027711115544662
0.009997041142778471
0.009982182997046039
0.009991297338856384
0.00999585838522762
0.009984778506914154
0.009974332633428276
0.009973035715520382
0.009971276231808587
0.009963337584631518
0.00995725545566529
0.009961371569661424
0.009975144891068339
0.00998709094710648
0.00998524712631479
0.009969372544437647
0.009945514536229893
0.009926150043029339
0.009923701322404667
0.009931654700776562
0.009935558418510482
0.009937212115619331
0.009947065877495333
0.009956914437934757
0.009949554487830027
0.009940608399920165
0.009959767302498222
0.009996115582762286
0.010021865630988032
0.010036634652642533
0.010039372240426019
0.010011159125715494
0.009966378436656669
0.009956936900271102
0.00998585727182217
0.009996241250773892
0.009968721417244523
0.009940412720898167
0.009941877427045255
0.009971831081202254
0.009998947042040527
0.00999010753701441
0.009952423110371455
0.009922854449832812
0.009926448224578053
0.009955177830997855
0.009979612207971514
0.00998053517541848
0.009965410473523662
0.00994686618912965
0.009925446165725589
0.00990998167428188
0.009908805204322562
0.009912883513607085
0.009921417764853686
0.009928348357789218
0.00991401402745396
0.009891703723696991
0.00989373398013413
0.009921963604865596
0.009951880327425897
0.009956253673881293
0.009930312206270173
0.009904784021200612
0.009907551482319832
0.009925989769399166
0.009935664262156934
0.009938202177872882
0.009943786526564509
0.009944717994658276
0.009933616681955755
0.00991925210924819
0.00990837816032581
0.009898657890735194
0.009889484792947769
0.009889534180983902
0.009908374414080753
0.00993704000604339
0.009954609801061451
0.009956052476773038
0.009958623142447323
0.009972338947700337
0.009978228569962085
0.009966557180741803
0.009963830747874453
0.009984038803959266
0.010005127071635797
0.010007642658893019
0.009995658715488388
0.009986341603798791
0.009986952078761532
0.009984952778322622
0.009970917323371395
0.009952650953782722
0.009938839791575447
0.009928857990307733
0.009922373369336128
0.00992712398758158
0.009949806581716984
0.009979126454563812
0.010000643057283013
0.010023923761909827
0.010055275956401601
0.010071433633565902
0.01005814764997922
0.010031351895304397
0.0100069427175913
0.009994249562732876
0.010005964188603684
0.01004066170891747
0.010076000108383595
0.010092675873311236
0.010094605736667291
0.010101415803655983
0.010112655890407041
0.010099740122677758
0.010061057336861268
0.010035903342068195
0.010039054960943759
0.010050120507366955
0.010062064055819064
0.010074720098637045
0.010074306146707386
0.010063008451834322
0.010061046469490974
0.010061208906117827
0.01004079406731762
0.010011220632586628
0.009995719967409968
0.009985093269497156
0.009958801816683262
0.009928829176351428
0.0099309792148415
0.00997422815184109
0.010027481261640787
0.010060720639303326
0.010072123397840187
0.01006680834805593
0.010038901736261324
0.009994269741000608
0.009961239463882521
0.009954504895722494
0.009956333884038032
0.009946883748052643
0.009930445536738261
0.009928046815330162
0.009942899438319728
0.009953622407047079
0.009952024170197547
0.009937293265247718
0.009902807777980343
0.009872033460997045
0.009873176458058878
0.009883660159539431
0.009870290807448327
0.009841611789306625
0.009822703792015091
0.009818924957653508
0.009822974014095962
0.009830567071912811
0.009838143100496381
0.009848695708205924
0.009870800410863013
0.009899898011935875
0.009926555366255342
0.009951258576475084
0.009969624901423231
0.009967141731176526
0.00994535336853005
0.009930880495812745
0.009936304547591136
0.009936672470066696
0.009913737791357562
0.009888037056662143
0.009875487122917548
0.009858026971342042
0.009828154304996133
0.009813039992004634
0.009825243807863444
0.009843407844891771
0.009857746735215188
0.00987656224751845
0.009889672765275463
0.00988414281164296
0.009880466199247167
0.009898370869923383
0.009925851660082117
0.00994162112241611
0.009926987321814523
0.009888127777958288
0.009862912916578353
0.009863756041740999
0.009863813668489456
0.009854675472015515
0.00985650198883377
0.009877302572131158
0.009902302970876917
0.009913598493440076
0.009905152700375765
0.00988260977435857
0.009860168638406322
0.009849838570225984
0.009846368542639539
0.009842933516483753
0.009849818838993087
0.009875160775845871
0.009905875362455845
0.009922146213939413
0.009918812351534143
0.009906311350641772
0.009895584569312632
0.009884901387849823
0.009873635474359616
0.009873381060315297
0.009880327961873263
0.009877418603282421
0.009867347630206495
0.009856639645295217
0.009844057529699057
0.00984209156828001
0.00985629509203136
0.009865724033443258
0.009857939130160958
0.00984939071466215
0.009858136620605364
0.009875870543764905
0.009887845576740802
0.009902656645281241
0.009921564913820475
0.009914815328083932
0.00987747447215952
0.009859395823441445
0.009889939195709303
0.009926969046937302
0.009927017397712916
0.009902293857885524
0.009878345123725011
0.009862356731900945
0.009854572415351868
0.00984501902363263
0.009823572037275881
0.009804927633376792
0.009813537308946251
0.009847219934454188
0.009867937568342313
0.00983898828504607
0.009778285963693633
0.00974809164996259
0.009777018472086639
0.009827202936867252
0.009851097261998802
0.00984450267162174
0.009836536849616096
0.009838515659794211
0.009829378600697965
0.00980818653712049
0.009801997331669554
0.009817082980880514
0.009831372087355704
0.00982481058104895
0.0098102556692902
0.009821545988088473
0.00985420519951731
0.009860464036464692
0.009822308035800233
0.009780356779228895
0.009771325037581846
0.009779356713406741
0.009773737791692837
0.00975985509925522
0.009761053258553148
0.009777052527060731
0.009789876262657345
0.009793843987863511
0.00979856027988717
0.009810217797057702
0.009822719697840512
0.009827056684298442
0.00982253722846508
0.00981198669411242
0.009793619412230328
0.009770452779484913
0.009758444799808785
0.009766892651095987
0.009784258087165654
0.009798269433667883
0.009805189486360177
0.009802071999292821
0.009793694781837985
0.009788763592951
0.009788163843331858
0.00979134063469246
0.009798516227165236
0.009807724305428565
0.0098203430196736
0.009835235386854038
0.009839226924814284
0.009826258212560788
0.00981099396944046
0.009801075824070722
0.009782460205024109
0.00974851893959567
0.009713791648391635
0.009690650542033837
0.009678877599071711
0.009673353171674535
0.00967041015275754
0.009675087683135644
0.009684659880585969
0.009673578263027593
0.009635198332834988
0.009608421282609924
0.009619236591970549
0.009642433886183426
0.009654244165867567
0.009666635380126536
0.009695656198309734
0.009736113200196995
0.009761962230550125
0.009750669575296342
0.009717207809444517
0.009702304969541728
0.009721590342232958
0.009745752201415598
0.009746483779745177
0.009734842730686068
0.009726695048157126
0.009715889465296642
0.009700388138880953
0.00969344906276092
0.00970158800133504
0.009709420494036749
0.009699450747575611
0.009682368787471205
0.009676879653707147
0.009672112978296354
0.009656777721829712
0.00965172893833369
0.009672165586380288
0.009702379298396409
0.009720172418747097
0.00971639288822189
0.009700166878756135
0.009694206302519888
0.009709637303603812
0.009726798243355006
0.009731772782979533
0.009744878669735044
0.00977025084896013
0.009784267215291038
0.009791283116210253
0.00981148675084114
0.009832951597636565
0.009837069778004661
0.009839452333981171
0.00986198197468184
0.009888898477656767
0.009881431729299948
0.00983025791705586
0.009773867100011557
0.009750549632590264
0.00975148476776667
0.009746615899493917
0.009730489971116186
0.009717055388027801
0.009709007063647732
0.009694332213839515
0.009675510587403551
0.00967031679698266
0.009673606789438054
0.009670097648631781
0.009672777854138986
0.009689292943803593
0.009695244374452159
0.009685126004042104
0.00968661103514023
0.00970856347703375
0.00973409652011469
0.009757733420701697
0.009780307308537885
0.009786205901764333
0.00976805271115154
0.009745208238018676
0.009729490713216365
0.009715581336058677
0.00970714041381143
0.009705833512125537
0.009705998632125557
0.009714320785133169
0.00973006794345565
0.009740636212518439
0.009754447360755876
0.009780414327979088
0.00979784736642614
0.009791978733846917
0.009772976447129622
0.009748284720117226
0.009720027269795537
0.0097017552703619
0.009711131220683455
0.00974111924879253
0.00976063599344343
0.009760612458921968
0.009760606701020151
0.009761456322157755
0.009744323891354725
0.009713563310215249
0.009691678313538432
0.009685864850180224
0.009691201585810631
0.009703856037231163
0.009718908002832904
0.009727062598103657
0.009722107080742717
0.009715643845265732
0.009720283600036055
0.00972978594712913
0.009745239918120206
0.00977077157353051
0.009782549947267398
0.009769357067998499
0.00976038011489436
0.009768278643023223
0.009771259212866425
0.00976117076119408
0.009748026612214744
0.009728573994943873
0.009693078919081017
0.009657033355906605
0.00965945893782191
0.009706677445210516
0.0097489672456868
0.009752410425571725
0.00974063902394846
0.009735023113898933
0.009727352204499766
0.009728145492263139
0.00975868197507225
0.009795409655198454
0.009804634373867884
0.00980346845346503
0.009815665240166709
0.009823289839550853
0.009804336280794815
0.009770214692689478
0.009757791344309225
0.00978598307003267
0.009817774725379423
0.009806473198113962
0.00976625230978243
0.009744505326962099
0.009749163580127061
0.009750635011587292
0.009741677411366254
0.009744222938315943
0.009761373964138328
0.009773995256982743
0.009769440684467555
0.009752247064607217
0.00974574351683259
0.00975894439034164
0.00976110171410255
0.009738424979150295
0.009728111501317471
0.009751992180244997
0.009782150312094017
0.009800023990683257
0.009823751285439357
0.00985754512483254
0.009873586617177353
0.009858011699980124
0.00983473111060448
0.009834894775412977
0.00985815845313482
0.009876658844295888
0.009869024637155235
0.00984291101573035
0.009829681984847412
0.00984491484821774
0.009868480723816901
0.009878771899966523
0.009874882766744121
0.009863217612728476
0.009846427644370125
0.009830012200400234
0.009827505799476057
0.009842226717155426
0.009862476834096015
0.00988303444115445
0.009903638272080571
0.009916114649968222
0.009916180386207998
0.00991015600739047
0.009903045019600541
0.009899887645151467
0.009912809042725712
0.009950263345381245
0.009995102954562754
0.010012368104653432
0.009995174189098179
0.009969191460404545
0.00995281079201959
0.009958791786339134
0.010002675821306184
0.01006086142733693
0.010078654752578586
0.010049570654518902
0.01001759191742167
0.010012114028213545
0.010033867544261738
0.010066307422239334
0.010085170972160995
0.010084402188658715
0.010076389503665269
0.010073983210604638
0.010086562966462225
0.010099754713010042
0.01008091472554952
0.010041268530767412
0.010029645909089595
0.010050428819376976
0.010064041210571304
0.010053081834921613
0.01003108378383331
0.0100161025125999
0.0100239835283719
0.010051308071706445
0.01006930211908184
0.010069601837312803
0.010073034582892432
0.01008358368766494
0.010093040446517989
0.01010698041296564
0.010124281778698787
0.010131624880013988
0.010132717511150986
0.010140716498717665
0.01014949374482967
0.010144801946589723
0.010122396869119256
0.010090049428399653
0.010072268933290615
0.010090266291517764
0.010127008716808631
0.010146297109313309
0.010143242595950142
0.010135923232883214
0.010126748539041728
0.01010786730563268
0.010079370039748028
0.01005396825959906
0.01005299312993884
0.010078191761858762
0.010101180073106661
0.010099680172279477
0.010081802665954456
0.010074213750194759
0.010100890547037125
0.010158629646757617
0.010212310736533255
0.01022986854542978
0.010211777803488076
0.010185359660536051
0.010178665006533265
0.010188780633034184
0.01018659457564354
0.010168564153136685
0.010164635077817365
0.01017678790143691
0.010173979641404002
0.010151977335335688
0.010135306880110875
0.010136243945453316
0.010145351125393063
0.010149838990764692
0.010153138242894783
0.010165384487481787
0.01017941126250662
0.010183894131332636
0.01018196917953901
0.010175654096528888
0.01016518306452781
0.010166792614618315
0.010193094781134277
0.010225245422916487
0.010237666600150987
0.010229702576762065
0.010213220370933413
0.010205981701146812
0.0102293546020519
0.01026817906065844
0.010275779740186407
0.010244459637906402
0.010210188538767397
0.01019205300603062
0.010182463842211291
0.010181244745617733
0.01019556613988243
0.010212744381278753
0.010208081054734065
0.010181311924243345
0.010161345701199025
0.010168595826253296
0.010187053452245892
0.010191762417089195
0.010183280034689234
0.010169349685311318
0.01015143301920034
0.010144166614627465
0.010161808158736676
0.010191204366274178
0.010206162119284273
0.010198063384741544
0.010187662973767147
0.01019865668611601
0.010225603202125058
0.010241608542855829
0.010224429505178705
0.010186852094484493
0.010175624828552826
0.010205027351621538
0.010230658856453374
0.01022598670446314
0.01021919650840573
0.010228311036480591
0.010238650053506717
0.010247470425674692
0.010265081564430147
0.010288865161128343
0.010305819044588134
0.010306014298694209
0.010292268038028851
0.01027601198060438
0.010260747778229416
0.010249138347571716
0.010252628891030326
0.010265379713382572
0.010263328773435205
0.010241416689241304
0.010211036358959973
0.010175580729264767
0.010145775377750396
0.010145467068068683
0.010174615610158071
0.01020329251070507
0.010209947905968875
0.010199474057881162
0.010188902585068717
0.010190304201096297
0.010203126216074452
0.010213777617318556
0.010211057701380923
0.0102018914592918
0.010194728777278214
0.01018823923310265
0.010187511616386473
0.010193500029854476
0.01019453384913504
0.010198348250705749
0.010217496857512743
0.010228290259838103
0.010211678667692467
0.01019350061775185
0.010199934319825844
0.010217813313938678
0.010216014931211248
0.010184504112694413
0.01014498495263979
0.010125726107507943
0.010131369781447574
0.0101460687443614
0.010159652868751437
0.010170740153407678
0.010169695665827021
0.010152919240063056
0.010149672580882906
0.010176692524692044
0.010191449786070735
0.01015887553920038
0.010110136589501053
0.010094915146473794
0.010125009110197425
0.010171303463866934
0.010201214352855459
0.010214082053862513
0.010226446922169998
0.010237432448193431
0.010231897358316928
0.010212155252229422
0.010197169835446402
0.010193437775596977
0.010197499312926083
0.010207234234549105
0.010215996565530077
0.01021247403579764
0.010188866342650727
0.010156665419926866
0.0101411928946618
0.010149035593494773
0.010168436046224088
0.01019398680771701
0.010220265394309536
0.010226145084016026
0.010192621394526213
0.010135614454047754
0.01009670416242443
0.01009068294428289
0.010087115844944492
0.010059862307971344
0.010032701116288081
0.010043600932694971
0.01007960745249875
0.010101039319997653
0.010109943276038393
0.010127551774494349
0.010138800446875394
0.01012557399342768
0.01010876244166866
0.010110096603166313
0.0101199184730649
0.010118673155084253
0.010102008507819846
0.010092895679408685
0.010116837578825652
0.010147762214764953
0.01013929158099927
0.0101186318800319
0.010141601698705927
0.010180453073699027
0.010181100083282218
0.010159821346169337
0.010150611489079893
0.010145244722953067
0.010131669908296316
0.0101235807815101
0.01012973854667507
0.01013766366406344
0.01014008403988555
0.010143865779973567
0.010150315560167655
0.010148758477298543
0.010127936457283795
0.01009238907136023
0.010065951485885308
0.010064837101381272
0.010073399209650233
0.010064450200879947
0.010036755710607394
0.010020824646344408
0.010044843149371445
0.010089598238701002
0.01010405075387098
0.010084762003971263
0.010077828794019297
0.010095973251154647
0.010112317240564153
0.01011325442697853
0.01010033826692961
0.010073709840653464
0.010041027431143448
0.010019982293015347
0.010022154006874189
0.010038187814643607
0.010044646067544818
0.010039948312332854
0.01005272496608086
0.01008783837314695
0.010108543426031246
0.010102371205575764
0.010098872715607285
0.010105869940016419
0.010098657752387226
0.010070047640474512
0.010047007666435093
0.010052824444137513
0.010070041108410805
0.010064713670872152
0.010030046114698052
0.009984290746506303
0.009950112904189155
0.009939959079492838
0.009941082043806091
0.00993181555531919
0.009917428339831532
0.009913276315201074
0.009909823345951736
0.009900445985840634
0.00990735659841448
0.009933643693802879
0.009940522678662092
0.009912869585677981
0.009890602533705533
0.009908335589570924
0.009949819989269599
0.0099773465085309
0.009978079688735306
0.00996641576755792
0.009961317540146411
0.009970582666574046
0.009980624341405928
0.009972182016354055
0.009945266346912831
0.009907583167077974
0.009882748153759167
0.009887227193685249
0.00990461716428399
0.009913614151300862
0.009918904303340241
0.009925531211774797
0.009922816053731368
0.009909756096312776
0.009911396794486792
0.009944516466930509
0.009983303067274392
0.0099928351608105
0.00997332857688889
0.009954716116189956
0.009961304246680812
0.009978277366608381
0.009973491459386424
0.009955071090953425
0.009956096485257148
0.009968911585165188
0.009958678751718252
0.009931394904851914
0.009919984270818532
0.009919233676046134
0.009902814296074211
0.009876849022693932
0.009863210794283078
0.009859328103484586
0.009842588974861429
0.009805848894175143
0.009779359709937126
0.009794970258371904
0.009833213592646644
0.009848337511066348
0.009837706744438037
0.009842159767867998
0.009879757390590384
0.009916831409791485
0.009916507340967655
0.009887782169971614
0.00986868680920452
0.00987638756283559
0.00989485641475767
0.009906418721657246
0.009912742004962638
0.009920479689026252
0.00992549877264537
0.009926165936049074
0.009930090595735236
0.009937798782484606
0.009939973624423146
0.00992250511306338
0.009881972058210522
0.00985268671414815
0.009876470904564484
0.0099332149035763
0.009963819411350414
0.009961804313352331
0.009969623800134286
0.009996457264060154
0.010008471740875394
0.009997584178345278
0.009996596014825627
0.010009418837726117
0.009994717318331823
0.00994297418394126
0.009901629897067324
0.009897606276208535
0.009900131375761703
0.009891008493723348
0.009899249802110717
0.009931469274451956
0.009947730702115222
0.00993683171691373
0.009931860741926358
0.00994309366447851
0.00995464056264609
0.009961008436512202
0.009957362603163347
0.009941480722045527
0.009930787849007174
0.00993476108997129
0.00993457408505492
0.009922485129209235
0.009923023108858614
0.00994332137168385
0.00995502558303997
0.009942720421822742
0.009922955558868124
0.009922464990522713
0.009942398759303615
0.0099541667685844
0.009952055115718395
0.009948646043194459
0.009933836058480664
0.00990826785680838
0.009891754415584729
0.00988123198505491
0.009870556010864675
0.009874604949727655
0.009897491349838673
0.0099286371585913
0.009963306047720834
0.009996264232322574
0.01002478007809259
0.010048487968742848
0.010049479027511552
0.010016846832586452
0.00997605394339189
0.009951541246846319
0.009936055524740368
0.009914379364345223
0.00988546573673375
0.009857832012930884
0.009843075171811506
0.009848431786522269
0.009867351866560056
0.00989153870381415
0.009919124227017163
0.009934051810996608
0.009913913263007999
0.009877804801799357
0.009868616237072273
0.009881094879237934
0.009885206827893853
0.009890330333728343
0.009910837141796946
0.009923608727985993
0.009908062445465476
0.0098797215661034
0.009856237599160522
0.009829426745418458
0.009796258339192718
0.009774906336097046
0.009776772718178109
0.009800121032167226
0.009839157878886909
0.009883382734842598
0.009922660270240158
0.009944388730218634
0.009937122856499628
0.00991668639355339
0.009916962838033214
0.009946808100212366
0.009982759815175086
0.009993048083269968
0.009965829746797682
0.009927177802892402
0.00990951573010534
0.009904286643723026
0.009885313009144739
0.009859984981594606
0.009847320313565434
0.009835802513407543
0.009813248554710299
0.009799912417074666
0.009811580684036016
0.009830335141159594
0.009832099804189056
0.009817352897953243
0.009805257979314775
0.009802298832219093
0.00979759483714588
0.009790123966522514
0.00979393100948073
0.009812811521114781
0.009832566266413777
0.009851746078347788
0.009888492599129677
0.009938031453639268
0.00996177241904661
0.00993914510938339
0.009897802282357588
0.009880539394216611
0.009908197908662259
0.009964283588342369
0.010003522395854815
0.009997752336785197
0.009971655714325607
0.009971500664250925
0.009995464456733317
0.009995854865992441
0.009962619775906205
0.009934357220772653
0.009928558580577373
0.009933488727547228
0.009944216345902533
0.00995781555888243
0.009964381838217377
0.009963571083499118
0.009960418548434973
0.009954277212964371
0.00995325862779282
0.009963546538492664
0.009964792976388708
0.00993980091297999
0.009914017657283693
0.009929403658024966
0.009986172574572265
0.010044495072215796
0.010063578600529581
0.010049526777584106
0.01003697888692841
0.010041455972241238
0.01005196050624363
0.010057938577374444
0.010058445662725717
0.010054312347201631
0.010043607982806861
0.010029887043638155
0.010023381329374388
0.010022954097948969
0.010018309617880732
0.010009193876758218
0.010004158084047959
0.010008844833355396
0.010015683323144913
0.01000600353581831
0.009979595120530576
0.009971237069694326
0.010005315844900907
0.010048796978080645
0.010056941508082673
0.010042577260173857
0.010048520071431994
0.010078250317601487
0.010099323963513597
0.010104265221161767
0.010121862336527556
0.010159864199813455
0.0101794111833442
0.010147431576624512
0.010093132636975498
0.01007533992640674
0.010100715388543903
0.01012470204033889
0.010126406330382452
0.010129914947319775
0.010151406727964059
0.01017173295491375
0.010170844385866075
0.010154177837539463
0.010133115367498249
0.010105118380161003
0.01007050100248307
0.010050217250827699
0.01005834414390847
0.010070155491121113
0.0100578236032743
0.0100363056268543
0.010032460516085848
0.010049762116977945
0.010080816833069548
0.010107648007106037
0.010107439276762307
0.010085887614404782
0.01007261328981258
0.010079963027965277
0.010090998716186732
0.010088488773908466
0.010079202980268747
0.01007434451719746
0.010067819466348738
0.010058155837468804
0.010062514655292034
0.010087689865613356
0.010109049256425352
0.010104995908914133
0.010094868286978453
0.010100513559300452
0.010109031409956514
0.010110656070755794
0.010114663928980007
0.010119348620064557
0.010117465262301267
0.010118550787447021
0.010129123091464862
0.010133264787727967
0.010121765901567414
0.010110759059898555
0.01011467276373878
0.010123013159027323
0.010116839609108865
0.010101232250453904
0.010093281933804973
0.010087925879051909
0.010075643113814294
0.010071242895210162
0.010090262913145125
0.010117345656035469
0.010127271534875035
0.010124343492789194
0.010125904347514734
0.01012724542641081
0.010120129478164017
0.010112898752558976
0.01011108644772321
0.010110941347666085
0.010107122599147261
0.0100932560430374
0.010075212975498288
0.01006682581617497
0.010062330344226211
0.010050826573278755
0.010043387458426877
0.010050894111627713
0.010060882954858243
0.01006103643332608
0.010068133536260576
0.010101934917038306
0.010144134173169733
0.010164964686846361
0.010167550065089017
0.010175369320204481
0.010197767418576404
0.010223349633160978
0.010234148934250698
0.010220026524038986
0.010193924125051126
0.0101835426769685
0.01019607374095358
0.010211978120496496
0.010215708821779117
0.01020850642467849
0.010189769946737214
0.010158981744898482
0.010137340867659076
0.010148458871990442
0.01018227779539302
0.01020874096197076
0.010217806653818115
0.010219405011739582
0.010214337530778722
0.010197529520373791
0.010174226380186155
0.010148791561368853
0.01012036792933941
0.010093331924872473
0.010080979076446965
0.010100791525328532
0.010144266999559478
0.010164285300998017
0.010141840167343617
0.010127585235750303
0.010159588417736813
0.010196970027172937
0.010188338413136079
0.010151198486564681
0.010135670060990379
0.010150201856158675
0.010172402132302522
0.010195827763527631
0.010217508585192263
0.01022731715696864
0.010234298253199086
0.010248184265801683
0.010251070312224329
0.01023331108968705
0.010222070214804263
0.010241226876387373
0.010271093095652759
0.010283039356581867
0.010287799426587299
0.010304216250078753
0.010315281306393444
0.010302204310428352
0.010279927598312498
0.01025847805896774
0.010220180101459846
0.010175323814619332
0.010175964410882444
0.010232027681777254
0.010285658459179104
0.01029491817811504
0.010274285119958221
0.010251263221725822
0.010239649490686134
0.010248631908325478
0.010273272964404896
0.010280970747116954
0.01025458148913458
0.010228905644034968
0.010237315587000922
0.01026379547547549
0.010271873556775972
0.010253425644477829
0.010238991704536602
0.010250065276632086
0.01026621910627
0.010262106712907552
0.010240883696824313
0.010221468118252232
0.010215803615283221
0.010221529161790387
0.010235608306247741
0.010262696209829301
0.010294007468037308
0.01029956028680317
0.010271357572637498
0.010246488605625928
0.010256862031528726
0.010290473155910149
0.010318007692694664
0.010321851132903247
0.010298603656701743
0.01026800297666341
0.010263051084475592
0.010281835455680266
0.010287751902360469
0.010271560626570135
0.010259165005991236
0.010260724659310654
0.010265219267457723
0.010270315380766988
0.010276046255603433
0.010274483358953148
0.010268020740477368
0.010266043302835896
0.010262807679828257
0.010241811813320964
0.010202039777068421
0.010174149778904393
0.010185986445285379
0.010220290488796309
0.010243901225039735
0.01024803864187561
0.010237096984637902
0.010214424472069368
0.010186677718302235
0.010163630333263427
0.010158501123078168
0.0101844578969758
0.010227127121761442
0.010243211488705129
0.010216406332328915
0.010181027321377769
0.010168272100854666
0.01016821561031975
0.010168081619776786
0.010180215989239514
0.010206635851645843
0.010226709141861648
0.01023014102014713
0.010232135946862399
0.01024849179200828
0.010257480081636459
0.010230864931363612
0.010201777348993347
0.010213029066799209
0.0102349063672591
0.010232600307790562
0.010231272636447101
0.010250209306832403
0.010266052890801802
0.010257480676518754
0.01023203246295452
0.010210654175607488
0.010200465876841917
0.010192134663229808
0.01018006517435424
0.010166418454609812
0.010152055495418609
0.010140710457926616
0.010143409234005958
0.010166264999425039
0.010200011726701631
0.010230477820150553
0.01025332386721857
0.010267515857703984
0.010258955438621343
0.010212755176471546
0.010151218272512778
0.010119888464687391
0.010121888210996986
0.010121616600081325
0.010109873374458402
0.010106201824964956
0.010115591567009688
0.010127612713258714
0.010133852475555614
0.010125194871798159
0.010099394721910357
0.010074768110644072
0.01007285934058018
0.010096428655087948
0.010136443028459325
0.010176571297924965
0.01019541576737538
0.01018691721954383
0.010161863339599222
0.010132611276349053
0.010104849740164354
0.010078857692424208
0.010067476597614587
0.010086627018172294
0.010119044851744547
0.010133442376973107
0.010132922019110993
0.01013977462425828
0.01015612940187566
0.010168866253225132
0.010170767210656777
0.01017101050238125
0.01018121300265193
0.010191469537094235
0.010185540644451976
0.010171308590797708
0.010165104106999934
0.01015695187728852
0.010127445368561893
0.010085758051136508
0.010059964958345517
0.010055337134981529
0.010044721064623445
0.01001327740144916
0.009977669613435864
0.00995843012118712
0.009970565331168474
0.010007535584736615
0.010035143237328157
0.010039426155854016
0.010047264180611819
0.010078789471881464
0.010110117131844162
0.010111412949627266
0.010092605870449916
0.010072886374546215
0.010050765487831086
0.010030784532427789
0.01002843872178346
0.010042156073031947
0.01005758553626947
0.010072878259234131
0.0100915743841324
0.010105205322615803
0.010113837334793062
0.010135481413453818
0.01017086406936869
0.01019567682291381
0.010196427339687944
0.010187766557792202
0.01019148226478137
0.01020643159863539
0.010200800980674102
0.0101527744543273
0.010099639064865187
0.01009716052096337
0.010135235314955936
0.010153035547118635
0.010130382236093282
0.010102056580362841
0.010087460941867903
0.010083232108736412
0.010096858672332018
0.010118113686330617
0.010122510114451871
0.010123541209613904
0.010145389955723658
0.010168914152309298
0.01016755000455305
0.010158171151997521
0.010163691808702423
0.010171443244908006
0.010171641377964988
0.01017519786953926
0.010178278405219317
0.010171634915750474
0.010169702532002702
0.010186663125641643
0.010201983691658825
0.010186736517352983
0.010156313492916524
0.010149645569035783
0.010166777487611398
0.01018253831542097
0.01019881185493432
0.01022322453209199
0.010235731789143755
0.010229305133689194
0.010230445285560563
0.01024966522702016
0.010266430004267022
0.010271157727111131
0.010278408565791325
0.010302760327467695
0.010332117937505245
0.010329360015457496
0.010288782264105976
0.010250939404359087
0.010236543541541323
0.010231243174057453
0.010223845031578093
0.010214218012988567
0.010213009112048895
0.010230872540269047
0.010252841901965438
0.010257156867301092
0.010250959598924964
0.010250584331806749
0.010246584470150992
0.010218679894460365
0.010177403240231798
0.010159493350656704
0.010174395063659176
0.010196491635870188
0.010204170474316925
0.01019107939559035
0.01017059177858755
0.010168600671458989
0.010181556233437732
0.010179477664642035
0.010161418941570445
0.010158885449636728
0.010177566622151062
0.010185809088870883
0.01017105292994529
0.010153870682697743
0.010146771145518868
0.010146539750276134
0.010155504094436765
0.010175668521551415
0.010185711319791154
0.010159431904321536
0.010116410041227937
0.010099457629257813
0.010104929362423718
0.010104525805218145
0.01010042015579529
0.010107812668429687
0.01012446881388314
0.010132351694628595
0.010120513748843223
0.0101052006194368
0.010103921828558668
0.010107288452563807
0.010103731182171031
0.010099539688089862
0.010103159657446667
0.010111223912099376
0.010111176962964237
0.010097996105905623
0.010084427350666374
0.010087256175465882
0.010103359544882552
0.010109390139114112
0.010102743831230327
0.010108424167847262
0.010121288221562282
0.010112016418715938
0.010092514983844012
0.010092321372358128
0.010100318312179297
0.010092277373187243
0.010074113989248871
0.010063481214456261
0.010060998490080237
0.01005728063872084
0.010047793437261135
0.010036870861658826
0.010036448779283091
0.01005112034152262
0.01006583665497601
0.010063842158997431
0.010045382585376501
0.010016446965746582
0.009980436967452988
0.009946735436096787
0.009928378737531602
0.009930058575700968
0.009952602671692148
0.010000390933128074
0.01005917350645177
0.010092668700963259
0.01008941837004386
0.010075102725531906
0.010066252950346098
0.010057581913424657
0.01005195287289098
0.010054983233567327
0.010059392201947048
0.010065165281994269
0.010078986014705152
0.01009002314764075
0.010080616569612176
0.010048809178406372
0.010008207333739846
0.009978687540860847
0.009970361684681848
0.009974998427787795
0.009979718477698043
0.00998261330765672
0.009992610281333327
0.010008071734337137
0.010011495064245536
0.010001244401792064
0.009998674978269263
0.010016605682903901
0.010038598690880463
0.010040170991560444
0.010020513792987913
0.009992038385244087
0.009965880124364048
0.00995324440067634
0.009953752149594947
0.009960385261802002
0.009972345508867875
0.0099806205695495
0.00997391197248362
0.009965553451329469
0.009975360332755373
0.010001341863535344
0.010024339369265363
0.010033204776700586
0.010047518345527352
0.010080425716005266
0.010103226997889578
0.010089227922726422
0.010047449230914935
0.01000619612634182
0.009988632940221578
0.009995356750441714
0.010001387927914038
0.009978770648594947
0.009938589624362067
0.009923110919771716
0.00994368718471378
0.009971306280931458
0.009983640987193211
0.009984154850244523
0.00998412843910046
0.009985100330086425
0.009983195600798354
0.009983854310121387
0.009995707239722833
0.010011737999739125
0.01000981025514193
0.009982188730500639
0.009953886432340369
0.009946525427512825
0.00995284046861343
0.009961214513750746
0.009965294424910098
0.009963351032929495
0.009968472799519077
0.009988654810003937
0.010003496651770548
0.009993134869728238
0.009965523181017488
0.009939130508573726
0.00992908916901797
0.009939022216713056
0.009952425612136722
0.0099505033204332
0.009935944892931729
0.009933612112654373
0.009954763109562918
0.009964511368889362
0.009935239759506657
0.009904416748322547
0.009906296817352995
0.009914158224128188
0.009905413638334722
0.009891338162124157
0.009873691422399133
0.009853430840885267
0.009855561187723651
0.009888171387137846
0.009918089859420434
0.009924341317964719
0.009919479057425634
0.009906109552830458
0.009877332450123504
0.009846280416240916
0.009831497963750735
0.00982803478022106
0.009806550389621407
0.00975761706358753
0.009717016621725633
0.009703754109796136
0.009693447119789199
0.009684873251244426
0.009704882717924192
0.009746100245974958
0.009771845830837265
0.009766553059453145
0.009750227101612836
0.009752034745179116
0.009773488112259657
0.009789009058149532
0.009786665712017566
0.009787622888106853
0.009807678303914144
0.009822365181753412
0.009806026951409877
0.009771453150315211
0.009742174955317751
0.009725667855236679
0.009722126030828804
0.009733222820796073
0.00975863705854863
0.009792201422387735
0.009814369486412034
0.009799883887171745
0.009763181867310778
0.00975123723852448
0.009768112314632163
0.009778665621997789
0.009773271309677511
0.009766026069410145
0.009763120152056217
0.009768645904259757
0.00979151604580693
0.009823453651042655
0.009841244992567227
0.009846062887227162
0.009858298980398104
0.009877705693943426
0.009888653769157827
0.009886940271826461
0.009879959537647665
0.009869200197281316
0.009852969535859301
0.009848730225348845
0.009866048849653452
0.00987613333039917
0.009864446701249108
0.00985895680496469
0.009876854094909505
0.009899158623302356
0.009909917342010886
0.009924431510735304
0.009949599251849578
0.009959288348909467
0.00994897844386287
0.009946752859978005
0.009954186393879355
0.009952024734811857
0.009944095173850656
0.009937356122536585
0.009923977983416989
0.009910856635542586
0.009915200363611803
0.00992672011256218
0.009920765706337988
0.009905563230859116
0.009905865965411067
0.0099112120247446
0.009899966167286039
0.009891051141312345
0.009911014580866321
0.009936760638374835
0.00993110286188312
0.009909334828844294
0.009910898087546229
0.009933984846575185
0.009950067572062835
0.009953407190041617
0.009963571712141857
0.009991136292228475
0.010011203828034922
0.009995488985441624
0.009966959896264598
0.009966321574756876
0.009987639366881922
0.010004463031655177
0.010012199531774967
0.010018248565029354
0.010028573803137987
0.01004136678413488
0.010049689947627484
0.010051235352875665
0.010044066085247322
0.010030679408228025
0.010025533204898239
0.010031404227484018
0.010032836612081155
0.010029155563097447
0.010031844694167376
0.010035643620649353
0.010026038411306218
0.010001027588732541
0.00998148475540802
0.00999147754511796
0.010013326866319403
0.010008064141729847
0.009983632354997099
0.009977942635305225
0.009993135940749198
0.010003573762951419
0.010002640144666657
0.010000402386067435
0.010003138929605485
0.010016009090468287
0.010035590375773609
0.010043958686292171
0.010027819687966257
0.00998905518790707
0.009945053607225418
0.009922442445531487
0.009931658077985048
0.009960277656791732
0.009991486684884875
0.010013792709214613
0.010022210015449673
0.010014009026344866
0.009997867962811142
0.010000183989759534
0.010026145341107622
0.010047682541189715
0.01005003253929317
0.010039149062940851
0.01002382812439464
0.010023085558786988
0.01004494343767874
0.010066752408165484
0.010072987234452739
0.010076221455819904
0.010084770567482337
0.01008962410967797
0.010082767783896997
0.010061507138889283
0.01003822236903943
0.010043208884308114
0.010079885477898643
0.01011392192915082
0.01012534691602923
0.010117123948875815
0.01009225552319549
0.010060330231208354
0.010032779352040961
0.010014905070420355
0.010011967087630183
0.010012801425764337
0.009993475283263251
0.009963152569252998
0.009958717096596957
0.009983542582485825
0.010002426587743685
0.009996139948489144
0.009976178508950398
0.00996140535804443
0.009965976929524913
0.009983292116085068
0.009992805288638919
0.009995779054006561
0.010011991634964943
0.010045641309116036
0.010077176607446746
0.010091653825948016
0.010097292790887877
0.010100559323327617
0.01008935181889683
0.010061683426611125
0.010041628574253992
0.010039539004210382
0.010036920746788382
0.010037991919089108
0.01006836950662546
0.010110421353019775
0.010117126980330795
0.010082487213658169
0.01004916796227917
0.010053848879178985
0.010084073529578746
0.01010336737614125
0.010099229604238645
0.010087696209084243
0.010087396163726225
0.010092380119021981
0.010091018833918497
0.010095664841355757
0.010108638911042363
0.01010993093601428
0.010098779298132285
0.0100939066009596
0.010108401683392004
0.010139525826089084
0.010164133477956057
0.010163703692378477
0.010145495809847489
0.010122878421097993
0.010103856526548043
0.010088034691289067
0.01006237453315407
0.010024528497597203
0.009997065828647464
0.010001568614970893
0.010032171596540138
0.010068783977767453
0.010103405369445682
0.010131923217559234
0.010150341263506562
0.010170127316378057
0.01019470848958008
0.010200030511477963
0.010175822688033805
0.01015410639694892
0.010164004827383905
0.010181928357342258
0.010173013373278082
0.010154773615067825
0.010160951525904238
0.010182198603870348
0.010191263968590648
0.010187747697345912
0.010185070323059335
0.010182653615484014
0.010170449322322384
0.010145746673224494
0.010126137116458267
0.010131116430275143
0.01014492858783342
0.010145975808845832
0.010147240452934057
0.010156282831449061
0.010153623436344787
0.010132615483598784
0.010112810423597693
0.01011271714582108
0.010122891012579203
0.010123286213492975
0.01011903500999324
0.010123141547665
0.010137190781533719
0.01015991150168702
0.010175848755752668
0.010164712184341625
0.010138999373884872
0.010132697019726038
0.010146226605866105
0.010144506994402036
0.010121594915399329
0.010109569763299077
0.010112388530978933
0.010102791722165421
0.010084244575118646
0.010080343338195234
0.010080432844115422
0.010063687042566017
0.01004291848745197
0.010037353427615017
0.010038977853255346
0.010036524445749819
0.010042847788427026
0.010062092666048556
0.010067272367887199
0.010052067422075197
0.010044549586018548
0.010049578867619858
0.010046750105684623
0.01004082034691237
0.01005494934390299
0.010079501123400406
0.010082729443674908
0.010067774845520034
0.010056731448275968
0.010040726130828261
0.010002680983161554
0.009958805346395821
0.00995122712571174
0.009997410523938014
0.010054378298809752
0.0100751138466876
0.010068446701625362
0.010059501520590857
0.010051118206465617
0.010043930800165982
0.010039553620154039
0.010027359520317986
0.009999733422882856
0.009967010407708586
0.009945583910448476
0.009939776905812324
0.009946227729087695
0.009966508687939494
0.009990485255839303
0.009993312016595155
0.009973110480932518
0.009957190823042765
0.009966157816816121
0.009989487680140883
0.009994420803850516
0.009971590506611392
0.009960036420961842
0.009993649291573092
0.010045600162120536
0.010064392108470202
0.010046419671270996
0.010027624715585262
0.01002040746039711
0.01001204282278195
0.009997793254442514
0.00997822884353809
0.009954276694916189
0.009932484632590785
0.009924533317098394
0.009941972740925849
0.009975692084990441
0.009998356082942337
0.01000559857697226
0.01001250599278137
0.010015572289703414
0.010005036250222475
0.009989981595426798
0.009988440757151693
0.010008771615102887
0.01004170409636572
0.01006709829554893
0.010067390268668533
0.010043547293171286
0.010018764259293676
0.010007626456208528
0.00999522686819546
0.009969839432742447
0.009950468793977051
0.00995765284751542
0.00998198163579218
0.01000114565831609
0.010007390693062916
0.01000520509434864
0.009995956406928599
0.009971513290656731
0.00992752906284295
0.009879899699008092
0.009856480641756206
0.00985114336712286
0.009857313969405368
0.009890208137221634
0.009935398098314181
0.009958695007953792
0.009961416460573674
0.009965472146868706
0.00998485999298282
0.01002361529157497
0.010053668598411605
0.010031050827819854
0.009974093801574782
0.0099516437551938
0.00998509575263597
0.010034991155844181
0.010058268069988116
0.010047745375195517
0.010027965699555353
0.010008191426750272
0.009981694868765772
0.009970972537994385
0.010002395550254733
0.010052288683364169
0.010074311832431704
0.010065412167459726
0.010064548939699308
0.010084160602418705
0.010082995791453869
0.010073383231647312
0.010031915296567604
0.010040701064281166
0.010070753189502284
0.010074681814294308
0.010065028284443542
0.010088510785717517
0.010149305309168995
0.010196942163165659
0.01019617064157501
0.010168350478634238
0.010151075491448865
0.010155368845444173
0.010162232494913041
0.010145978658692911
0.0101100282673724
0.010083905577193946
0.01007999515044503
0.010086717864032835
0.010093677694676444
0.010093800151953474
0.010087386161321774
0.01008951212046668
0.010110051712254063
0.010135759095428512
0.010144037533318623
0.010141973549034447
0.010158632531529292
0.010182131587062031
0.010173393059521913
0.010139640002744272
0.010132132706930861
0.010172592158196493
0.010212461038026959
0.010197015372104943
0.01014188089990057
0.010096258438425139
0.010072015404002741
0.010049857801059261
0.01002032311167568
0.00999252517707646
0.009983864516252652
0.01000769863370806
0.010047295603435487
0.010061168546089903
0.010040162049699574
0.010019090557470918
0.010013984460383653
0.010003433891106396
0.009990485121961682
0.010006103337509557
0.010036295506870374
0.010039644306525588
0.010025683715939522
0.010036650572437793
0.010082215619040652
0.01012773105991073
0.010134109416976572
0.010105924230301752
0.01007376736146398
0.010043010951485486
0.01000755792367272
0.009979885751381517
0.009977106107398867
0.010000011486699805
0.010033527668565512
0.010070561108877883
0.010116135097341612
0.010157169816084206
0.010165093719260767
0.010128465208690613
0.010066294736461714
0.010018486417829991
0.010007845214568078
0.010011922670528292
0.01000508660566993
0.010006013454403728
0.010036418448435143
0.01007409706711769
0.010087754533160478
0.010075337736634538
0.010051174135878683
0.010018551303073765
0.009975127460202203
0.009941211289260536
0.009951186159159988
0.01000358771532774
0.010032633307855577
0.009985649578738957
0.009944364436669274
0.009929323834367097
0.00995067521580495
0.009965497787343338
0.00998575591482222
0.01002907756017521
0.01006231447448954
0.010040839727735148
0.009981881052954122
0.009931203559972346
0.00988028444815427
0.00990607402403839
0.009975090004736557
0.009985846646595747
0.010028486154042185
0.010147212978918106
0.010288302446715534
0.010465986490016803
0.010656299416441471
0.010800150361610576
0.010893692465033382
0.010958322788355871
0.01098944340716116
0.01096827453817241
0.010985080827958882
0.010991447032429278
0.010952557349810377
0.010972840131726115
0.010964837945066393
0.010961183101171628
0.010950700039975345
0.010939640087308362
0.010964059189427644
0.010989160081371664
0.011029427797766403
0.011073376536369323
0.01109409746597521
0.011115372767671943
0.01115370302577503
0.01116510146879591
0.011166013160254807
0.011174426769139245
0.011124430671334267
0.0110507027071435
0.011002788613550364
0.010989684109808877
0.011017574858851732
0.011087643227074295
0.011197868161834776
0.011328791434643791
0.011430607601068914
0.011458071289816872
0.011428226593416184
0.011404826024081558
0.011414027021965012
0.011426669590873644
0.011417675367556512
0.011383411181159318
0.011331862757215276
0.011284587334375828
0.011257276636315509
0.011250220296205952
0.011253345996374264
0.011240679904585705
0.011199933014577255
0.011168380953604356
0.011183299506083131
0.011218874908518046
0.011238296035444365
0.011260804277844727
0.011303981047822162
0.0113270176097285
0.011293705608695746
0.011225998704321682
0.011164350195322185
0.01113002181518823
0.011123170602368192
0.011126761024352163
0.011133802905678749
0.011157052086200565
0.011192831859225406
0.011226955626625568
0.011257954301545397
0.011286243721842766
0.011284028191585093
0.011245925913099199
0.011222248445264996
0.01124617448891513
0.011287743729772046
0.01130406598909758
0.011288711542729288
0.011270940123358742
0.011282724213087932
0.011324323565931991
0.011359178449492902
0.011343140832614153
0.011266740991268308
0.011177520676283166
0.011117787044495344
0.011111608195351437
0.011121579675236717
0.011118936403654515
0.011120259730378166
0.011137084674555809
0.011138589793117716
0.011110185889992862
0.011097664770204574
0.011124092437094078
0.011139364767586812
0.01112009876058437
0.01112416219431907
0.011146543513750657
0.011189007497159764
0.011158607290126384
0.011111290307017043
0.011115045984042808
0.011131666263099759
0.011085434603737667
0.011005451533710584
0.010938059444306418
0.01094008045271039
0.010982908322475851
0.011017074177507311
0.011016689195530489
0.011003551018657163
0.011016505445586517
0.011059607651550323
0.011105142825981603
0.011128851362736896
0.011134237690130248
0.011144602462882175
0.011169126580934972
0.011188646961236372
0.011176023937296123
0.011128891167463734
0.01108305421541445
0.011083602136932314
0.011128569275606424
0.011160695926519111
0.011133933127857744
0.011098598523531109
0.011125135828042403
0.01109765375731513
0.011078411175403743
0.011060251652961596
0.011097801104187965
0.01118659001076594
0.011238651395542547
0.011228045170428231
0.011222528052749113
0.011258398804347963
0.011304168753558769
0.011333808917552233
0.01133747499785386
0.011297477355692536
0.011262815782101825
0.01124650085461326
0.011228574846172705
0.011229192370083184
0.01123553803190589
0.011254353112308308
0.011267738370224833
0.011251510052243247
0.01122164910309948
0.011210891549708321
0.011225848433095962
0.011241470921086148
0.011227034187177196
0.011189286923035979
0.011171213402412832
0.01119638878852129
0.011250229686265812
0.011315542865777389
0.01138251745258458
0.011424086258048192
0.011407020887127146
0.011335157679859549
0.011255305852973834
0.011209707719972357
0.011197686148807406
0.01119673600886017
0.011195103764766828
0.01119589531677775
0.011214002424385399
0.0112596736906562
0.011315094089368358
0.011340735463891178
0.011312997714849189
0.011257219043327495
0.011215170678915455
0.011195823648013175
0.011205377705628052
0.011254519161302596
0.011314833968644961
0.01135621641180478
0.011395058413036167
0.011438801753101871
0.011450675536179915
0.011439835021737963
0.011480634969193488
0.011539664405863731
0.011573593480279669
0.011525067746406421
0.011455971222603693
0.01139470171299763
0.01135584615636617
0.011371217333944514
0.011439296432072296
0.011490612665656954
0.011487963637337088
0.011491932233329862
0.01144130362314172
0.011347989824134857
0.011326945568434894
0.011320967001374811
0.011262189210392536
0.011154523264849558
0.01097287960583344
0.010758351001422852
0.010591785765718668
0.010486537811812014
0.010412966238800437
0.010375337940640748
0.010402124830288812
0.01040027227718383
0.010412281457101926
0.0104764548514504
0.010481821714201943
0.010501374695450068
0.010509123494848609
0.010538127130130305
0.010587012901669367
0.0105996173620224
0.010584323350340128
0.010513211007928475
0.010449282804038375
0.010383632805896922
0.010353356447303667
0.010329292078968138
0.010338474619202316
0.010359273055801168
0.010366325390059501
0.010414350946666673
0.0104650444642175
0.010484036977868528
0.01048255910165608
0.010453955179546028
0.010396113228052855
0.010331074083223939
0.01027616480947472
0.010241741844220087
0.010255071634892374
0.01030827633687295
0.010321750806178897
0.010262776281451806
0.010207888589939103
0.010209863218478858
0.010264736011158675
0.010312682370422408
0.01032099176198244
0.010305615938268602
0.010300092331599444
0.010309235185850411
0.010316144231474027
0.010312352448236197
0.010292740574805066
0.010252945921383799
0.010211082563037053
0.010187801519641652
0.010168345138663427
0.010144547987729312
0.010153618798358365
0.01021759121096693
0.010308364607626573
0.010397886266000569
0.01047368255443871
0.01051494948216714
0.010519360903417692
0.010521022932371124
0.010541851673042401
0.010564658691873775
0.01056140827597119
0.010532120545394718
0.010509884748607874
0.010506988518172874
0.010494460918707774
0.010459850660990923
0.010416733943857252
0.010368753526126966
0.01032909745001234
0.01032161184353754
0.010328113224823028
0.010309491968946531
0.010272609954699873
0.01024721588473767
0.010247464410495013
0.010287250690162182
0.01035001105396077
0.010399251504568384
0.01040535710635595
0.010413878487888724
0.010460850679082796
0.010513637188123539
0.010519317537546157
0.010480606057681143
0.010444648887496442
0.010429287683218718
0.010418076526839286
0.010409864574903623
0.010416302430676296
0.010423292990308254
0.010401853083167226
0.010365379687864334
0.010348495029611514
0.010326773426495493
0.010265677403658628
0.01021601137937978
0.010239331016782672
0.010279199980432167
0.010288126374362036
0.010237219237023965
0.010178963504731655
0.01015965751837939
0.01018625707598403
0.010251181771745905
0.01036375560797751
0.010501548672327771
0.010577380507020279
0.010552339847199619
0.010507466519484296
0.01053031616145745
0.010601278335088863
0.01065137711004354
0.010681204228894785
0.010727705190656706
0.010761483540991322
0.010728071674238891
0.010731726952362805
0.010729298180667684
0.010706578290555626
0.010695137607399374
0.010723647602135315
0.010860064083244652
0.010963760371087119
0.011081453368533403
0.011176992414984852
0.011104900292120874
0.011264149826020002
0.011675858825910837
0.012157555270241573
0.012588309708517044
0.01288907028036192
0.012965481235878542
0.012947163576027378
0.012985150184249505
0.013016294984845444
0.013094901690492407
0.013090058086672797
0.013125806449679658
0.013157635513925925
0.013112262446666136
0.013077983226394281
0.013034535757033155
0.013108642980223522
0.013203875158214941
0.01318179955938831
0.013233793489634991
0.013421187493950128
0.013607071450678632
0.013627680207137019
0.013671174402115866
0.013727312551345676
0.013696311231469735
0.013633044161833823
0.013636524539906532
0.013668367757927626
0.013725737390341237
0.013817456992110238
0.013890786131378263
0.01386073155561462
0.013891779636032879
0.013911644569598139
0.013983678268268705
0.014111202213680372
0.014186985171400011
0.014242152477381751
0.014311308631440624
0.014289576911833137
0.014395122628193348
0.01457709471345879
0.014764606116805225
0.014857107816496865
0.014946740951854736
0.015322593644959852
0.015619427040219307
0.015615428206510842
0.015580611240584403
0.015662554522277786
0.015635343590984122
0.015878485090797766
0.01595992561778985
0.01613846348365769
0.016537065008888022
0.01686359747312963
0.017152049669530243
0.01768326913472265
0.01860653035575524
0.019520819745957853
0.019684462068835274
0.02044171269284561
0.021545554102631287
0.022314768695505336
0.022685704274335874
0.02293167504365556
0.023138070214772596
0.023096742872148752
0.02355732907890342
0.024006343556102365
0.024080601320602
0.024557624486042186
0.024773182327626275
0.024832440968602897
0.02497658393345773
0.025293498205719515
0.025979794632876294
0.026725076674483716
0.026883659770246596
0.027383658963954075
0.028233155268244447
0.028701322303386404
0.02885651620919816
0.02943371655535884
0.029848068066639824
0.029833629636559635
0.03051676867180504
0.03157888546469621
0.03261659168172628
0.03327062634401955
0.03332507086219266
0.034131192406639456
0.03613307967782021
0.038825788166141136
0.041286619243910534
0.042803046541521325
0.043112525144824755
0.043700363258831205
0.04459079294232651
0.04532719174516387
0.0459416163910646
0.046546407918212934
0.047124970466829834
0.04760875713312998
0.047874955291626976
0.04792238532332704
0.04793890034663491
0.04808665746473707
0.04836538286297582
0.0483609858492855
0.049195426603546366
0.05098956151981838
0.05230790608213283
0.05273572055855766
0.05436138540855609
0.05544128083041869
0.05552174950949848
0.055942952468758446
0.05593384171370417
0.05607871506363153
0.05622527534374967
0.05653934613335878
0.05654726118780672
0.05677975512924604
0.056944157407851886
0.05700802542618476
0.05721747219911776
0.05722630229778588
0.05798590676509775
0.059415628658607604
0.06090339093119837
0.06161318639991805
0.061881543518975374
0.06293787465430796
0.06434004297712818
0.06577399316593073
0.06706575350486674
0.06818482428207062
0.06913961076177656
0.06976712142466568
0.06983007012866438
0.07038114297552965
0.07157839860301465
0.0729609848849941
0.07350750653655268
0.07438961463747545
0.07610403320635668
0.0770533699367661
0.07771703956997954
0.07935650152503512
0.08035480416379868
0.0807257762691006
0.08181909952196292
0.08237281408743001
0.08249301502364688
0.08289637099485844
0.08310430449317209
0.08338976786588319
0.08406102293520235
0.08465447121299803
0.08463366716750897
0.08496806976152584
0.08532272765180096
0.08563181852805428
0.08603827569750137
0.08651708177989349
0.08685254625161179
0.08691230983589776
0.08702715589548461
0.08720715898321942
0.08734072376508266
0.08742283190134913
0.08767846316099166
0.087643249691464
0.08789466441841796
0.08800903905648738
0.08796348846983165
0.08783063604380004
0.08783848658204078
0.08775760451098905
0.08817783197388053
0.08867559969541616
0.08890074568334967
0.0888322552619502
0.08926587298163213
0.08977842236985452
0.08983811431447976
0.09075120299123228
0.09177261635195463
0.09227722912444733
0.09251861567026935
0.09249971342855133
0.0932120489445515
0.09401076896348969
0.09420466358424165
0.09576786118675955
0.09702440041000955
0.09722915526828729
0.09910824434016831
0.10071520917350427
0.10084408185328357
0.101077377111651
0.10191301239654421
0.10276319979806431
0.10394679190823808
0.10564076264272444
0.10693274559918792
0.10690855570486747
0.10781779447919689
0.10899068612139672
0.10995170150185003
0.11066381564247423
0.1110101771110203
0.11116661092150025
0.11163714458816684
0.11191743165487424
0.11226743849925697
0.11312983243609778
0.11322080413578078
0.11348890659864992
0.11378182159271091
0.1139072602847591
0.11382839294266887
0.11392356441356241
0.11463112229830585
0.11544660047395155
0.11554979271488264
0.11664011158631184
0.11721693489118479
0.1177937290398404
0.11892926896573044
0.11963603292941116
0.12019708809442818
0.12236178835039027
0.12495303762028925
0.12647464650217444
0.1266293912450783
0.1271648367785383
0.12815569722792133
0.128868380401982
0.12904551236890258
0.129584999155486
0.12943424286786467
0.13019996170070955
0.13066920741577634
0.13031888437923045
0.13038938898360355
0.13075957595254295
0.13090478664264082
0.1310187880275771
0.13171915757586247
0.13214638188132086
0.1319971493072808
0.13270470440620558
0.13341865311493165
0.13353929955745117
0.133541237822501
0.13358454747474752
0.13325027876417153
0.13279863595264033
0.13285754116834142
0.13230935890809634
0.13170508915092796
0.13122738292440772
0.13162718203500845
0.13327282398357057
0.1351234957028646
0.1365069747401867
0.13610615197801962
0.13675952813820913
0.1379670008539688
0.13772450989927165
0.13796360222040677
0.13788395094801673
0.1388760819134768
0.14040246692835354
0.1411866121937055
0.14048546142294072
0.14154624872026034
0.14241975405835547
0.14189781476743518
0.14196701634326017
0.1419535617774818
0.1425320290052332
0.14417989109642804
0.14574087054817939
0.14533091908320783
0.1448444269481115
0.14426903910003602
0.14356277980259619
0.14347752337926067
0.14308886739774607
0.14165699633420445
0.13951671454124154
0.13794930125586688
0.13767195595311932
0.1382970635604579
0.13788269526441582
0.13731237225467338
0.13693942330079154
0.13655733930529096
0.13641400865628384
0.13707441943115556
0.13863378421985545
0.14040097243967467
0.1413621428143233
0.14169604623224585
0.1423942079092376
0.14219917898299173
0.14316288044443354
0.14253055216977373
0.14175622598500923
0.14148285846691577
0.1411685705941636
0.13961087316740303
0.13898436779156328
0.13979712048661896
0.13984879445168188
0.1399542493734043
0.1401972981565632
0.14063564135809428
0.1404787453217432
0.14063099553692154
0.14049977653194218
0.14030580289079808
0.14040021569351666
0.1406989236001391
0.1413390713511035
0.14088822508696466
0.13976686039823108
0.1391109799174592
0.13902630955912174
0.13902758956653996
0.1381288950331509
0.13730457049328834
0.13803185933618806
0.13932015607832
0.1392871250153985
0.13890965397120453
0.1392076620773878
0.139722088156268
0.13979071733891033
0.1394640172237996
0.13867303105304019
0.13808460704167375
0.13749546734266915
0.13626095152809284
0.13612800841685385
0.1362036328238901
0.13455474927905015
0.13423320868518204
0.134287563955877
0.13328722526319325
0.13308879805728793
0.13343029556330294
0.13349696783116088
0.13329607105697505
0.13403203206602485
0.13473522358341142
0.1348420579463709
0.13508495511952787
0.1355171991919633
0.13561159987701102
0.13545301755308173
0.13537555694812908
0.13503900141105987
0.13485092299757526
0.13499539292999543
0.1351079073920846
0.13546080442494712
0.1357691083231475
0.13657510079676285
0.13868151446455157
0.14082554791704752
0.14108071502880193
0.14159306058892981
0.14241474152891898
0.1426516447821632
0.1428877111512702
0.1435418193845544
0.14347589200478977
0.1430733976070769
0.1428566410636995
0.14305695494171233
0.142635112083517
0.14256689343368634
0.14329029673128388
0.14302234355476684
0.1424256209412124
0.14195182348252275
0.14202153868740425
0.14273396650562062
0.1421993270330131
0.14202214925782755
0.14192331831087357
0.14132520604878665
0.14063544994103722
0.14152026134659537
0.1417424142069649
0.14100238432525658
0.14042860377812758
0.14018846258870327
0.13984604130033404
0.13988178681232966
0.1394687997852452
0.13829503097804263
0.13792374266427943
0.1396050304523669
0.14008872199687175
0.13910422381362877
0.1389117742027156
0.13899673962499948
0.13936681461287662
0.14037041022442281
0.14160895306500607
0.142534753914224
0.14239601489971393
0.14362079193582758
0.1459054037590977
0.14688148744171486
0.14660176866455005
0.14709886367665603
0.1480044247303158
0.14820595929631963
0.14751391199300998
0.14670103661948816
0.14674602885963395
0.14574669752037153
0.14514968433068134
0.14456540117505937
0.14371211032848805
0.14338652508566155
0.14287889586412347
0.1407327690499369
0.1380744048312772
0.13659217178821564
0.13652854996384123
0.13588005313533358
0.1350235453725327
0.13464722756762057
0.13445681908517146
0.13380153796519154
0.13380705809220672
0.1329767227440607
0.13252430442371405
0.13269865707028658
0.13265399437281303
0.13258491767686792
0.1325395731080789
0.13235051002004183
0.13189605188439602
0.1316287637059577
0.13211255728499963
0.13133828133461065
0.1304840828909073
0.13053735872148536
0.1306735408271197
0.13041568113607355
0.13025632140226662
0.13043796851183287
0.13073876468231901
0.1305936707300134
0.1308012941549532
0.13128459485247732
0.13091481253271922
0.12909556946833617
0.12708057681447826
0.12591501393239013
0.12581490747514182
0.12554695439408534
0.12588408712414093
0.12676205722731537
0.12648371593910268
0.1275228328409139
0.12727605522726662
0.12585712615633382
0.1245201848668512
0.1244659164804034
0.12335717092384585
0.12235272309510037
0.1221938179724384
0.12200277855037711
0.12248356201918796
0.12174719894188456
0.11996078692260198
0.11862899366184138
0.11867963047698141
0.11947743979515507
0.1209468728164211
0.12230693568475544
0.12256576569867321
0.1226208694151137
0.12325359073234722
0.12448076845030301
0.1252321119979024
0.12456248079543002
0.12449282769463026
0.12615421042894012
0.12759858128498308
0.12847818595357238
0.12889979354920797
0.12846514494041913
0.1272298701351974
0.12518349986290558
0.12314565009786747
0.12259095467743464
0.12256501373252832
0.12217212872812525
0.12282270768657327
0.12200707001262344
0.12214834139449522
0.12163243977585808
0.12104197289794684
0.12145000642165542
0.12186883333371952
0.12165538019267842
0.12087088604690507
0.12055276032420807
0.12048112522577867
0.12050020136637613
0.12065473880968057
0.12046367304166779
0.12158043130650185
0.12240895840455777
0.12345189790125005
0.12522139801527374
0.1252604761510156
0.1251729504240211
0.12519764017430135
0.1250066986132879
0.12419456521514803
0.12382944365032017
0.12376277475734242
0.12374019316397607
0.12362124023027718
0.12167442793142982
0.11931938071153127
0.11875807985197753
0.11854088899795898
0.11765352030983195
0.11724485359387472
0.11707765787257812
0.11672239067731426
0.11642253863043152
0.11651406167191453
0.11620971922529862
0.11577596845454537
0.11494775784318335
0.11428908599424176
0.1144418864895124
0.11385234470828437
0.11337949166540057
0.11328613579855301
0.11300304302712902
0.11291141037130728
0.11264906344818883
0.11321121562854387
0.11347394082346
0.1126128701318521
0.11282118416391312
0.11377324717235751
0.11307540813228116
0.11339045989210718
0.11393318279995583
0.11362074775039219
0.11418963200296275
0.11490973517531529
0.11518199076526799
0.1149729399359785
0.11469406554824672
0.11456312293768861
0.11416299731470644
0.11246361930388957
0.11072223833063617
0.11043626713915727
0.11053132029948756
0.11049887371133081
0.11083959145355038
0.11047640432137996
0.11042411800590343
0.11085674270405434
0.11085116901318542
0.11188676907797344
0.11276489100418985
0.11319266726379283
0.1128930531151127
0.11208052914356813
0.11168810014612973
0.11175286817015148
0.1119131702161394
0.11158151544281282
0.11099610735545866
0.11092230315785855
0.11034253458259627
0.11011950621497818
0.10963327637640759
0.10974594510393217
0.10858200384303927
0.10721476939273998
0.10681471439311281
0.10693725751130842
0.10657812351942994
0.10633835156448185
0.10587637270917184
0.10509936325950547
0.10560709721990862
0.1054331343062222
0.1039197711297311
0.10289431626326405
0.102731735202251
0.10203798614558764
0.1014355158607941
0.10125164511147887
0.10042055073194206
0.09874788633314893
0.09798512328532524
0.09857334499596618
0.09715734453871847
0.09479424321441911
0.09411959406221286
0.09462614029995166
0.09430109571665525
0.0935597025800962
0.09317039757268503
0.09325282565667294
0.09341358303674496
0.09319442433887161
0.09323945069801994
0.09346836586948484
0.09360527582117356
0.09350049130502157
0.09351669058552943
0.09383004489704035
0.0941170486237388
0.09427668728516438
0.09410146339214406
0.09404324662638829
0.09422607031534426
0.09420539313927292
0.09414096431224607
0.09421774677117355
0.09412603744654917
0.09413155985414051
0.09427093688980676
0.09463662088499404
0.09476354843121954
0.09449066034285351
0.09457031588768587
0.0948767753993161
0.09506738825817593
0.09484001050237566
0.09451646909932605
0.09424680192605592
0.09422010766458698
0.09401593615184538
0.09381813243147917
0.0938305652118288
0.09397299294592813
0.09385174305876717
0.09336444368469529
0.09302440993720666
0.09311077477526851
0.09246398165123537
0.09191281277337111
0.0918018301553093
0.09197698560310527
0.09197153454064391
0.0918099829449784
0.09192753716837615
0.0911921410006471
0.0897566257591825
0.08893707933719269
0.08910300714313052
0.08841233615763486
0.0878039116493892
0.08747139895800501
0.08751552441273816
0.08795689713442698
0.0883712228864897
0.08861172788077966
0.08901912290602923
0.08894133059307933
0.0883823779411614
0.08821079383953474
0.08794940524036064
0.08863681722898037
0.08912143906578422
0.08849114771117456
0.08854705430218018
0.08884119077352808
0.08925833857152611
0.08904577151057311
0.08803542206762359
0.08622204975923524
0.08485275621758774
0.08471010249922983
0.08424804963171482
0.08263274695025757
0.08087700581061653
0.07968335985206068
0.0791457896749489
0.07910371643258259
0.07932162359938957
0.0799667277757544
0.0806746699125506
0.08068801924586295
0.0806057293759659
0.08023506604717114
0.07968595856335015
0.08025596972322091
0.08115580844227224
0.08197326838155278
0.0822585724282544
0.08170091580133886
0.08147506487555801
0.08145766685833224
0.08139088854193688
0.08156476948293857
0.08222677049110644
0.08216539445566014
0.0818121881748084
0.08255584633094258
0.0817937959486153
0.08146466108621098
0.08151299008284696
0.08051149510545656
0.0801002500532195
0.08099381517386064
0.0822070928348694
0.08275539104710333
0.08273940250743181
0.08248816130217165
0.08243566654273309
0.08227300088503398
0.08209040191373788
0.082286655617645
0.0822973210492637
0.08182711413130164
0.08174304412328638
0.08193121231161057
0.08190504107507877
0.0815133158757817
0.08117237232276238
0.08131297311862
0.08149091125815175
0.08154702178086154
0.08149732957128436
0.08172507662791759
0.08181971848476678
0.08163142643170432
0.08160272591048852
0.08160936912056059
0.0817177620867733
0.08173588655889034
0.08132818423444405
0.08130847435328178
0.08093703237711453
0.07981979118194431
0.07954890772351064
0.07889784151804634
0.0780037043557968
0.07849742748658173
0.07853131811134517
0.07830220362520776
0.0784945801680442
0.07842255762428976
0.07822365759522654
0.07828542643110267
0.07857017949572764
0.07830582532449626
0.07810317222611048
0.07790617979015224
0.07783522803336382
0.07833476745407097
0.07884341829572804
0.07829318093019538
0.07766177039942704
0.0773605270893313
0.0775034263706766
0.0770968322653789
0.0765870499459561
0.07662742062471807
0.07579666467150674
0.07528339251410215
0.0751774622197263
0.0751882546779234
0.07592339352122508
0.07606990163098089
0.0760796198353637
0.07656323946430348
0.0765814796788618
0.07703944942797535
0.07705704941181465
0.07717585817910731
0.07732679884764365
0.07728176133008674
0.07687335490132682
0.07699522079899906
0.07664407305419445
0.07629177603055723
0.07692728657741099
0.07876239404431544
0.07977858522324822
0.07945907573564909
0.07967262328718788
0.07898446294129827
0.07838300390751102
0.07834746532374993
0.07805239120847546
0.07819957514177077
0.07829530402552337
0.07837572233169339
0.0781050259748008
0.07784883512882516
0.07831831235555001
0.07855346540454775
0.0785413147113286
0.07841031947988085
0.07845814000931568
0.0781625600089319
0.07766849433188326
0.07753141238470562
0.0780161003919784
0.07881806842749939
0.0790978911635466
0.0789236849383451
0.07901604751008563
0.0790070535580162
0.07920124318567105
0.07977399384370074
0.08061125611304305
0.08149784247623756
0.08189086062018759
0.08202431579004042
0.08335460595437326
0.08453636439167894
0.08465616773231886
0.08454247477347962
0.08447764077922329
0.08459133666241542
0.08484030490741133
0.08502837917301803
0.08498741600196809
0.08489157575881108
0.08452047476544976
0.08423653240897692
0.08419262475101277
0.08378182758926414
0.08348273112438619
0.08344403358292767
0.08351394349243492
0.0836064527486451
0.08390952222864144
0.08421997349825688
0.08419995503383688
0.08414175148471259
0.08377126277191564
0.08357724754372611
0.08350725420983508
0.08334827330312691
0.08322968471911736
0.08353557566879317
0.08429204956162721
0.0848069732368458
0.08460563277010806
0.08495562499854714
0.08564943454344758
0.08602085399208591
0.08612557113170624
0.08616664420231246
0.08596802288782783
0.08574324953486212
0.08550388294272125
0.08535268730833195
0.08551291210809722
0.08598172806901858
0.08602549069793895
0.08584705847548321
0.08605666169896722
0.08633320853929036
0.08632832079310901
0.0862080245022662
0.08618044819799252
0.08595966356107965
0.0858518516307231
0.08496705114725046
0.08424667987972498
0.08378615544526838
0.08187879369710573
0.08089587371912785
0.08147998787695541
0.08198554108967074
0.08220887631061487
0.08338006669306196
0.08395873661502265
0.083968397321878
0.08391711236559786
0.08383422364364378
0.0841970719245728
0.08500221374211833
0.08583551746909507
0.0863943188660778
0.08636214711121283
0.08681531929178163
0.08716342755244114
0.08684923364664428
0.08721732402686029
0.08771129673928954
0.08751799433142878
0.08691010059439577
0.08571648549987003
0.08457683863816783
0.08386634542839602
0.08396504260832444
0.08373980888864026
0.08353030538535677
0.08377986213075929
0.08413301245775073
0.08400274030398577
0.0836737239616923
0.08347022591042333
0.0828272327745799
0.0827118030237034
0.0823530511953868
0.0812846834177617
0.0804695191362407
0.08026283493614755
0.07876156124519185
0.07728556622401811
0.07688482488389127
0.0770567046222277
0.07705291628954
0.07685990010388195
0.07691013313131406
0.07684270527097396
0.07659182314877398
0.0763222999125719
0.07626923149684445
0.07623987791128456
0.0764077062648721
0.0765806221938692
0.07659338036319241
0.07658753332914785
0.07646132148453035
0.07647859234246425
0.07661758672446012
0.07679966666153631
0.07667100523947738
0.07647030713502317
0.07656744017265738
0.07658808817970567
0.076993494911585
0.07796276624896564
0.0787000643205829
0.07872343088849448
0.07902525092940778
0.07896977514727041
0.07906279799644836
0.07915765043348073
0.07907356005627662
0.07878450914518907
0.07829006283311174
0.07764186492189765
0.07719964901567437
0.07713680539745837
0.0767196426843293
0.07624273634282872
0.07580674934200943
0.07549667966202833
0.07551305535831489
0.0754388765071053
0.07530360627686605
0.07491049206932075
0.07483312752679921
0.07504257646622137
0.0752059951168485
0.07562095275730826
0.07673870742321015
0.07783928978838958
0.07809101528837345
0.07803859990439378
0.07842359037371352
0.0786288793804124
0.07852092983317562
0.07869102352880873
0.07898260900634341
0.07830896736704744
0.07823370005236939
0.07826513313688338
0.07775449877022765
0.07787102327798494
0.07753199688973837
0.07762383022345602
0.07807911019306629
0.07853611254366115
0.0781242876360193
0.07773678672965616
0.07752366448286921
0.07739963000523858
0.0775742670451291
0.07734401670051738
0.07559744435711764
0.07391328373691067
0.07364627448259853
0.07347642327658832
0.07327289810869843
0.07335282853106037
0.07361200619023293
0.0737269858806394
0.07358393986127339
0.07339958140160889
0.07322346417349763
0.07315592863829806
0.07309919186402113
0.07287148753064684
0.07251031820545904
0.07212016907171347
0.07211049542529509
0.07229790747980587
0.07183946246863343
0.07197455156128854
0.07197660685982556
0.07150173459784127
0.07101097539882176
0.07071765894419514
0.07083103677839972
0.07102526202681475
0.07110804373049177
0.07071062050876208
0.06999973449972458
0.06889598706387914
0.06772391505306587
0.06689522917498834
0.0665348765742965
0.06512960081920027
0.06419803107739426
0.06460597695899196
0.06537774367374367
0.06560742928413674
0.06537393411970698
0.06527506888261997
0.06531669632997364
0.06548745220643468
0.0655977218807675
0.06561593127204106
0.06572602929314598
0.06585598619887606
0.06600661891745403
0.0663643361767754
0.06657866435474716
0.06669597673928365
0.06660281016491354
0.06613364541437478
0.06574382150894963
0.06580935860518367
0.06563506935024634
0.06559202477219514
0.06535253068548627
0.06512722070328891
0.06513964731246233
0.06516672787489369
0.06486023606965319
0.06407025182503276
0.06350398810114712
0.06382987228571438
0.06365011427667923
0.06289972350350581
0.06282942419406026
0.062726548332721
0.063052853156114
0.0636316165223252
0.06362402801867574
0.0636600813525729
0.06358472181484104
0.06335782356094569
0.06331225692643784
0.06359928493970074
0.06332991123897955
0.06347237071255223
0.0638525798660703
0.06386122021009215
0.06409222604357638
0.06453550354694017
0.06457433528383262
0.06494362440542317
0.06499012202140875
0.06532809890108184
0.06520434445352294
0.06522551656351425
0.06463097139727324
0.06345537157147191
0.0627766033320222
0.06239316249149852
0.06142636029515416
0.060658175784628836
0.06022234400967136
0.05989940857049078
0.05978761346777901
0.05952416873653419
0.05899537416640669
0.058217623699456454
0.057829746642382815
0.058099274632986635
0.057156523729208854
0.056320942683378235
0.05654478225391358
0.05606656928430311
0.055781115007121115
0.056398953065508975
0.05695510969962925
0.0573050899268128
0.05715357406646945
0.05765965341008268
0.05835975923691876
0.05886793651385233
0.05901422195602209
0.05988520938321017
0.06056335191125981
0.060681912110885604
0.060692012626677755
0.06086827715160325
0.06105087290634401
0.06067808301420882
0.06045186640927568
0.060651170691708105
0.06088874681037851
0.06134644963080063
0.0617167719011195
0.061747899069450794
0.06181849434855394
0.0626127633987926
0.06350808296119795
0.06373146677040495
0.06394073863746598
0.06397981388494373
0.06389371819677762
0.06387914213119075
0.06398127540014684
0.06389308111392893
0.0635503638861701
0.06323818535660393
0.06327846827101893
0.06331143148010597
0.06319904191652313
0.06295055714203045
0.06290436397772282
0.06283859437680803
0.06280859367689118
0.06297576683107764
0.06299500679248013
0.06293972938554361
0.06266277878545225
0.06218450412270613
0.0622210323845502
0.0627797347435262
0.06232050801976584
0.06229592538322322
0.06220748357125558
0.06201765746925957
0.06198134494945407
0.06210782723384909
0.06213851638603955
0.06213766921893694
0.062312375467736277
0.062241242522140965
0.062166241904487836
0.06246284224325791
0.06312802667263895
0.06375567179988138
0.06378958845161833
0.06400971808237955
0.0640453475061804
0.0638682723348029
0.0631230146472808
0.062179758651182054
0.06182277228566818
0.06118715619086288
0.05988946035853587
0.05884048831067048
0.05872254717629403
0.058836951677221805
0.05842283647973091
0.058245014032581824
0.058317875339416785
0.058217594982124865
0.05797093550092541
0.05802718305261806
0.05775170207140036
0.057300095619866626
0.05736967174336314
0.05746364794904366
0.057224563837517055
0.05734686626004987
0.0569736532017123
0.05647219521109946
0.05673561370698735
0.056957419322570785
0.05695594926015474
0.056813926480244845
0.056422063884092495
0.056019504440482704
0.05593546593212523
0.055968646422261376
0.05576090983115137
0.05559996975120157
0.0556760080344975
0.05572981833014637
0.05538721782853827
0.05537024470395409
0.05573448734125122
0.05605059013236314
0.05610816894099116
0.05603639420703985
0.05665117590688169
0.05728556350106374
0.05756507052690722
0.057295193508034574
0.056742628798820076
0.05643932391190901
0.05650350971147418
0.05613013607915491
0.05610280041117221
0.05615904760197736
0.05605867535574362
0.056156069530406964
0.05625311962445267
0.05624338219873607
0.05620053658960387
0.05632937267422676
0.05693854756420478
0.057672307493630795
0.057970137912780044
0.05802773350966163
0.058163979311939326
0.05847267330973409
0.05849474747199565
0.05778676036512479
0.057179937234614044
0.05698875521076843
0.056985108006047086
0.05724932755692862
0.05764550383784808
0.0576702065509744
0.05769145817728713
0.058116545152151956
0.058664345999713985
0.059190626742783935
0.059578207610175016
0.059392020624363794
0.058954834778560325
0.05900113365612924
0.059139276326168326
0.05920015396433882
0.059159829057753084
0.05905794692458585
0.058990555341588334
0.058991564274765554
0.058941392535343765
0.058955469179200005
0.058977239436935634
0.05883225101162679
0.05892244589165784
0.05931716830120422
0.05948115034145303
0.059145442656008525
0.05876696090796031
0.058770376318134365
0.05849358383566141
0.05859829832683317
0.058242731887148694
0.057754162014462054
0.05804134504985996
0.05823906074743718
0.05824542997055687
0.05800120053463616
0.0575652476598043
0.05719579412252642
0.057302289806539196
0.056985683646053074
0.056310918799135835
0.05594541138969362
0.05557931485469453
0.05517304133158177
0.05503769841510803
0.055020161983557046
0.055481268059229476
0.05548875732114539
0.05542784102493897
0.055469506185036155
0.05575439174543135
0.056102279239566996
0.05635309306089766
0.05650386738940142
0.05648552358499728
0.056801024537999185
0.05753490735194646
0.05812172117992304
0.05810672825202346
0.058513701080810276
0.05851461851038039
0.05833043665857986
0.05826404887367971
0.05816080853226595
0.05834740551188588
0.05827095793676563
0.057922226185910405
0.05782010868075304
0.05762565559358336
0.057225504673551766
0.05681836283416487
0.05661737336078659
0.05660639329813421
0.056753977360203864
0.05718942457693629
0.057537758427206424
0.057422357401810585
0.0566266977507621
0.055576471922686325
0.05499078740365803
0.05493332574493252
0.05462659080978483
0.0545457407599315
0.05471913893008604
0.05475172781501897
0.05453789158957079
0.05431616876274347
0.054073499924270435
0.05368091515963897
0.053597467951476574
0.053288180560339245
0.052387382668675854
0.05159291062969715
0.05142951559391804
0.05116304344846867
0.05087432699627243
0.050754345916211606
0.05079388645128347
0.050704363115364685
0.05056046239566058
0.05084173226961866
0.05148873336846009
0.05178901043604128
0.05157891818322241
0.05135981094907038
0.051367222825065256
0.051302109470125284
0.05160051985527389
0.05200885566184297
0.05202007516985759
0.05198960535577499
0.05205588542972692
0.05199181090807542
0.05145842098630965
0.050801108742598446
0.0505135432863608
0.050646417428506535
0.050545030503999444
0.05044273801497184
0.05042146002408117
0.05031682490138337
0.050673200956080106
0.051093884541187434
0.05097532705403864
0.0511110743205063
0.05139396903221496
0.05141466535511427
0.05092253936221823
0.050202079706359655
0.04962974660331383
0.049622096789535136
0.04939190187724307
0.04941139027476311
0.04957194320275448
0.049760002071270716
0.05030676814494654
0.05070477273315191
0.050917168642627075
0.051061391311232
0.051304149099159986
0.051427504327148196
0.05114007616881281
0.051429689318174494
0.051622384935617445
0.05131709665991366
0.05092795731266961
0.05086964077781886
0.05095738074625842
0.05097131478716619
0.0514756620512344
0.051697710076114164
0.05145423258771189
0.05154644511523657
0.05139433632837608
0.05134162186994217
0.05130771737080067
0.05117876916541718
0.05109183895401657
0.05110799305257387
0.05101412163581699
0.05095876704785041
0.05086430390831083
0.05070779521716759
0.0506592450698372
0.05071750460425392
0.050807483757380395
0.050738771476317196
0.05043239548220299
0.05041729032993317
0.05034494348918088
0.05058035561814904
0.05107024112483487
0.0511982164112851
0.05138141349190846
0.051177072629798204
0.05045788531890139
0.0499122333386913
0.04991460526478477
0.04997017050278373
0.050165835585212336
0.05037237747455947
0.050588786443695424
0.05054833327420056
0.05039833003655076
0.050644019341561944
0.0507026234222576
0.051040625504683704
0.05175176476710476
0.051965135270729663
0.052005806100787595
0.05163761782343499
0.05090750978444703
0.050764109311858194
0.05116342849796638
0.0511739987670444
0.05095987432519905
0.051216733534820376
0.05169141325401142
0.051447799700545145
0.051543385764816776
0.05161029658978805
0.0510023761598859
0.05037798994337209
0.05033212249865755
0.050450464473105965
0.050263666829559954
0.049762354139238595
0.04907642720500007
0.048725250294664874
0.04861137144966051
0.048762238876661285
0.048803341862512756
0.04930050233961083
0.05022158982930705
0.05070324275293388
0.051172060244716704
0.05215538321295753
0.052830388171132656
0.053189828338799996
0.05362008912605234
0.05434112584684044
0.055028813264798374
0.05485865032300353
0.054852136947447436
0.05495807128725574
0.055082212754059584
0.0550448040640913
0.05504968035849742
0.05506949824164622
0.05502349542686716
0.055000535106519234
0.0548689983272925
0.05462616632226855
0.054443245406728236
0.054455623058602215
0.05467332952888682
0.054755164966918526
0.05477751729078591
0.05525806096266024
0.05517432009801269
0.054613913545617836
0.05455934742931277
0.05469853493967094
0.054613997848937286
0.05463406876660883
0.05440908245975152
0.054082868566038084
0.05387644304544665
0.05381036635721102
0.0539269520866219
0.05369309850502759
0.05341950349742547
0.05332303369417787
0.0531787749985233
0.0531739779189229
0.0531015237304382
0.052546587130054834
0.05220863262657076
0.052834912196267396
0.05267033369280398
0.05232319310191087
0.05232710275333375
0.05218298165476881
0.051842308270279316
0.051598357850452886
0.05155827323324047
0.05160846656770445
0.05197881054133177
0.05205314551945776
0.05205736988107674
0.051873188517056405
0.05185487999231555
0.05199363363557495
0.0515060496958904
0.05069895946187899
0.05010824529686943
0.05014182883664034
0.049831993316765875
0.049555317104095595
0.049634328483371064
0.04990110026788898
0.049888245520414785
0.05014125303598121
0.05042475092224777
0.05058652357663959
0.05065177057287656
0.05095110922702588
0.05146917346981354
0.05217512512230314
0.05254514693748206
0.05262065826449543
0.052622532591922205
0.05284126267186366
0.05335723116295412
0.05393357668654062
0.05420475876424462
0.054325937321409584
0.05457355399383232
0.054737437181174756
0.05487926719128154
0.05475771470111795
0.05429267274565063
0.05393094024737365
0.053903995660366494
0.05400508502498269
0.054266805233201015
0.05441739421687089
0.05399282263126224
0.053619669703766706
0.0536031544720754
0.05384082914446481
0.054224305734969676
0.05474055925034918
0.054947695821756494
0.05498991259955801
0.05563330323668197
0.05638803562847897
0.056680093839531764
0.056735236210515724
0.056662781791528685
0.05678700763499364
0.056503756513120604
0.05593905980465934
0.05606585629750043
0.055844918752554804
0.05556912227533758
0.0556328186346218
0.05595751532469876
0.056329153388505804
0.05663487739977427
0.05662792379502207
0.05681581072509289
0.05693122677737847
0.05689023669459857
0.05670234341640026
0.056245291921077294
0.055893704675836486
0.056231329264119265
0.05650742912548594
0.05599789430620149
0.05582933238358237
0.05587344989879057
0.05561785961152054
0.055310679860413076
0.055201111406786366
0.055156718227081
0.055046991334529595
0.05509608722059056
0.05534593396820128
0.05508038383675739
0.054914672365412115
0.05530688094208017
0.05543738859589212
0.055363351550186055
0.055306832622736696
0.05531912782113068
0.05507997777778655
0.054974429613212125
0.05497023579897359
0.05500594757148065
0.05516871526138857
0.05552120261476375
0.0558171563805081
0.055815219804644586
0.056219559820601714
0.0566663388570305
0.05653837614576332
0.057251654245192185
0.05815993756405078
0.058398809505160895
0.057790183344623075
0.057011553026968614
0.05670209098607302
0.056459404285997154
0.0561001130391378
0.05605017330963165
0.05615965663921088
0.056171656927326695
0.056113347968785095
0.05611446175724268
0.05602519413456321
0.055833699012873696
0.05578286108211614
0.05583932137000375
0.055643957967404276
0.055747699558269234
0.05539682307629846
0.0546055037167389
0.054821000254014506
0.05558708396158181
0.05617138290894218
0.0564511100272648
0.05646625232184306
0.05645575009752065
0.05643188902293332
0.05635211566579528
0.0560190220491495
0.055966293127276
0.05650924562476575
0.05662943317671307
0.05646810766425915
0.057194767798064275
0.05825442865607329
0.05906166155007668
0.05935495931305922
0.059137381145264956
0.05900207214988768
0.059195701951393856
0.059175892053171995
0.05912404154893011
0.05906851557432674
0.05884375069756061
0.058283091319026425
0.057612656810088085
0.05748086198000237
0.05716638390207663
0.05628903167904355
0.05590649849269539
0.05600546844769269
0.05610988215077668
0.05597425936255604
0.055762189652305096
0.05571338095120154
0.05563576653017663
0.05566638853866607
0.05588715612655506
0.056153273237869145
0.056245843746000904
0.05618051919620484
0.056110840002074835
0.056173781857360154
0.05629087674897164
0.0562486644112505
0.056382830773945895
0.056635259684408086
0.05688930279226043
0.05730576528003439
0.05767843896173872
0.05730602940428071
0.05679161967593245
0.056825742066139356
0.056725395169341934
0.05653854623902589
0.05656303228228353
0.05654662051121704
0.0564949461875949
0.05637447468354367
0.056305827382020654
0.05646403079619631
0.05644967972999439
0.056471668778685855
0.056437155914027246
0.05659907666966319
0.057069062530063094
0.05737968436558731
0.05727525265654549
0.057137481634272264
0.057131301420740785
0.056666687760734934
0.05643495441298001
0.056729366049403325
0.05709206093335524
0.057382034407928585
0.057480413649464025
0.05749121589935385
0.057379939038073646
0.057673180701676756
0.0581497260555625
0.058870612047612667
0.0593191838322673
0.0597928750643041
0.059965132736833765
0.059808071492007
0.059958338977303356
0.05994519710890017
0.060040913640987126
0.06052441269508563
0.06110823340248316
0.06146245203330181
0.06137593839899637
0.061651797607773916
0.06212904076790437
0.0620807164197322
0.06201228735153563
0.062251697143074124
0.06251349995611236
0.062239309817086905
0.061607602534350006
0.06095949490671046
0.060764699843712154
0.06081604297622107
0.06070758798974566
0.06036941977101378
0.059871248118579384
0.059494498120620846
0.05953660518163815
0.05982093614526093
0.05990378408692777
0.05975853210198693
0.060033721320796755
0.06048434025608003
0.06076471602777019
0.06085896934266202
0.060894759895745665
0.06078597973799333
0.060475107693346214
0.060230707156006244
0.06022668950259685
0.060159936422714964
0.06005938421236351
0.05972099659498781
0.059265356305986644
0.05867912441142835
0.05861140001099557
0.05875393368420191
0.05815916741616092
0.05725120472954586
0.05774132458260283
0.05878591053187847
0.05933474809862673
0.0595352908258792
0.06025409608031623
0.060818432996748016
0.060890800433699044
0.06147274836781435
0.06198344686767086
0.062091106947045775
0.06179771638824604
0.06174857300589792
0.061849645550828426
0.06184102684492245
0.06193632326088846
0.061966215926222507
0.06198296827962622
0.062055784086696805
0.06216568086878396
0.06216439821291715
0.061886660490417855
0.061797378872288394
0.062071614633314315
0.06173274770262651
0.06176106842583977
0.06180896590580232
0.06175385408685543
0.061704395436681804
0.06184468877268955
0.061969417729415
0.06171115137753077
0.061441568272421136
0.06114237122819759
0.06089617287158035
0.06061694713658653
0.060463117907056586
0.0603500566771254
0.060150692606111986
0.06008785376208834
0.06001475180732086
0.05997427578899078
0.060050490797730165
0.06007463477551937
0.059931117310188714
0.05957575246226043
0.05937985367723741
0.05948899487731978
0.05906985626206733
0.05879973477683961
0.05875652042683214
0.058552633036160845
0.05818917182972655
0.0579171665047761
0.05794924291665666
0.05786440180731006
0.05798652300843969
0.058556689247488976
0.05941558733931743
0.06006914698285982
0.06007633669767529
0.06022717724903487
0.06124789680936374
0.06242867149179801
0.06366362679982558
0.06459265413926914
0.06476450391579419
0.06462670490611344
0.0644038382859435
0.06411778228823095
0.06441193599719554
0.06472580532776191
0.0642448537540622
0.06328009206801653
0.06237931324634701
0.06226167339249514
0.062311239757109435
0.062339309769449756
0.0625910596549511
0.0626739497028757
0.06282790190191008
0.06321053826948628
0.06324390706606209
0.06280596509575843
0.06293451091158203
0.062466970508685334
0.06197012901073322
0.06109821087331511
0.06079223993117921
0.060834222774719816
0.06071730849565938
0.060518727867165584
0.06036950438981876
0.060227960703196005
0.060168407313758505
0.060114047169918194
0.059931253071408716
0.05958621803554706
0.05926587233901955
0.059429435280617324
0.059803885095752775
0.05972488560364582
0.05937993100495078
0.05899725989555009
0.058446563195902856
0.058028794392012056
0.05812105071381666
0.05798969514667988
0.05759895356604829
0.05721457778709009
0.056955729747423904
0.05697107020765543
0.05712953517679125
0.05710669564665295
0.0569480391824618
0.05713369974866509
0.057804039302282034
0.05869025934371166
0.059342614465858784
0.05919361528125591
0.0589030516508501
0.05876396533916704
0.05873071339679882
0.05880069414386526
0.05884811645955779
0.0590176389052067
0.05931655533262528
0.059475210765376686
0.059479585692752156
0.059724076080601665
0.05989107935107313
0.05973931859480217
0.05971688087913208
0.059540192671120165
0.05957299980218522
0.05974272539024241
0.059525400595739485
0.05906733187963255
0.05860525221563875
0.05837595754535869
0.05834576772293076
0.05806837127660401
0.057972927237860856
0.05808059313916601
0.05804196876008064
0.05777556046494283
0.057449291021330284
0.057414785283617674
0.0574131227703765
0.05742721566348337
0.05709374124417081
0.05655825043097138
0.056282223083544525
0.056136686225654556
0.05572376882890239
0.05536136374343187
0.05541234839824028
0.055061519318260255
0.054686258804285896
0.05425149245420471
0.053756147407693786
0.053495592875406145
0.05372063930379227
0.0541900575265754
0.05392107183579355
0.053437019357224926
0.05323553916648962
0.052915393395815045
0.052488050054525955
0.052382546720327806
0.05281854836153798
0.05360753264394589
0.05424209626857191
0.05424899974954314
0.054066163484239954
0.054124004166806114
0.05418645482626744
0.0541690438776277
0.054204070111736655
0.054062654266599564
0.05371091515407898
0.053522403883980586
0.05387362536392175
0.05384381546173245
0.05317398950108327
0.05320694588473998
0.05369029662921093
0.05383505858830176
0.05407580719795078
0.05437642852542922
0.054557726222556086
0.054652836839668456
0.05461270929547027
0.05466321137384512
0.05480514348833822
0.054810296790674326
0.054893725522561
0.05479574883589521
0.05444518126663752
0.05417355384095572
0.05443193552899175
0.053771297469502315
0.05289217615732923
0.05297371305525303
0.05321299685514532
0.05251117020845413
0.05195114136789925
0.05178206797805615
0.05123999175149947
0.05098590306239203
0.05112489907303825
0.05142902256920934
0.051216454328969124
0.051484928274294364
0.05235373628791422
0.052589143647346646
0.05226813656510785
0.05242919025593437
0.052734421223867685
0.052849661338841544
0.05294371489901096
0.052729192642727865
0.05238455238402821
0.05252153554465622
0.05313004561699927
0.05324851625598967
0.05354029062204063
0.05416839767131023
0.05423093289718963
0.05446509184432216
0.05478549566003494
0.05523546620621346
0.05559151365654543
0.05571407729876228
0.05587269004550763
0.05607381884357892
0.05609977883868851
0.056198926402721554
0.05628857609583065
0.056319457066711036
0.0565907192369923
0.056855126795126124
0.05678526406176388
0.05702333047171124
0.057293721206951885
0.05730178736965172
0.05733153035864234
0.057159157445421445
0.05724367516930215
0.056962072995956986
0.05711824633181095
0.05663509897072799
0.056344649969832974
0.0567692052363418
0.057252438350114974
0.05750826701638289
0.05736841927166097
0.05687723530340008
0.05593725889222696
0.05521258858265355
0.05498773700557649
0.0547831480007153
0.05397753037745133
0.05265969422645867
0.051182267213007435
0.05028536083060317
0.05013842434505932
0.05048929742304608
0.05076583671150729
0.05082242324016988
0.05036643174593337
0.04995309480698779
0.050150069841183725
0.05067559704999439
0.05118624939816072
0.05138721680734307
0.051376053001731634
0.05133255054126493
0.05129126520827412
0.05135607579373755
0.051018283555749805
0.05032266409485601
0.05004178058472462
0.05064885559608229
0.051135904327966275
0.051104147592559455
0.0510091257665772
0.05159827471477911
0.05151233341777697
0.05137532435008325
0.05150606131530367
0.05193007765919901
0.05199444617028348
0.05247789819724858
0.05301398234791122
0.05314598787925206
0.053292525028809906
0.053512278227135536
0.05369649146916345
0.05358213544939645
0.05314691379899159
0.05310145790106617
0.05327019928838126
0.05324559706379659
0.05324167578481138
0.05318561321124435
0.053495482745347545
0.05411773169063963
0.054792586041148755
0.05504394943243824
0.05514185052365064
0.05525374867138453
0.055179888720158485
0.05520677936030552
0.05543513878714293
0.05551005040761083
0.05508639172534458
0.05412368629942648
0.05308413197984919
0.053025253959931434
0.0530645416828338
0.052928302661748604
0.05310334700392559
0.05369124135700986
0.05433060724055395
0.05450950849801302
0.05438280301284976
0.05471301597543061
0.05519356461591087
0.05521543767070398
0.055201171699445696
0.05537573384004645
0.05526710317819379
0.055582056036219
0.05610577103565447
0.056588538219220934
0.056802330882055684
0.05682653456111439
0.05715531804948114
0.057381730190245436
0.05755314158042893
0.05788293442921713
0.05820983485551551
0.05826808835845441
0.05806960829999298
0.058031005044467746
0.058290362467523664
0.05843023695284501
0.05853975644335151
0.05865924866870045
0.05861018085386604
0.058307923479005694
0.057755950260907414
0.0574362676916644
0.05752029160037637
0.057710230257362126
0.05775572886690497
0.05778872983297333
0.05783336781896651
0.057872868189588186
0.05790728549240157
0.05754021532833576
0.0569768120162189
0.05652653667377308
0.05643105497816578
0.05658139242557809
0.056522223816718904
0.05638623287901282
0.056476087062619626
0.05636268541915342
0.055713932043872774
0.054819992394186556
0.054308843705803155
0.05437278350582346
0.054557588330935686
0.054581638330128045
0.05469791942741722
0.05476628400152549
0.05464741000905633
0.054557747868821026
0.05484140562126413
0.055626395710278304
0.05625269633252174
0.05621493649668992
0.05648311315337196
0.05636322811013088
0.055949522762093695
0.05592020624317229
0.05569026991026476
0.05554579764604568
0.0554967091162689
0.055447405020240696
0.05548295482061803
0.05556693550664932
0.0556870519858785
0.055712066974956544
0.05618188806809485
0.056574312434531746
0.05667330161901191
0.05659046297892928
0.05626147643662989
0.056493872872088104
0.0570531912217848
0.05702610208420083
0.05644387011183426
0.05673884057207033
0.05707838902017102
0.05718831182457507
0.05758850646205246
0.05774176761507988
0.057430289124604315
0.057111045173369346
0.05695269874297083
0.05623003239510581
0.055400299846660346
0.05490109354024753
0.05506044355686754
0.05500740603078157
0.05465037036919966
0.05474590775789693
0.055025938616599886
0.05517853432102129
0.05506854236125946
0.0547101239184849
0.05432520376285538
0.05415247302269563
0.05394615585682914
0.05367048078682274
0.05399100378388539
0.05405246382113546
0.053931906227953734
0.05363384524360299
0.0532906423532404
0.053474525101482866
0.05360143614467233
0.05326632974902168
0.05353459658566862
0.0537998599652201
0.05380990124773234
0.05377501652343199
0.05358458623522892
0.05348657324910164
0.05359171503921971
0.05331392009276897
0.053022922524251045
0.05307374677155167
0.05305893053999171
0.05312311719171703
0.05325537917902693
0.05349402411840856
0.05337719774339348
0.05338475858094171
0.05310137087712064
0.05255112312734127
0.05201962543418631
0.05177894262364134
0.051746366042643786
0.05160447199363261
0.0516264845430851
0.05169371725292876
0.0520197378587909
0.052274233335629104
0.05225591079331934
0.0522906121914275
0.05255312537774444
0.05267262919805944
0.0527794073545374
0.05270457543665543
0.05233976440969854
0.0527000544546172
0.053302820790559056
0.05341371348826215
0.05329981155926362
0.053126452926080675
0.05274744643596932
0.052608019458130005
0.05281782237580046
0.05296915795886889
0.05286333426134661
0.0525957050989382
0.05284200674155727
0.05312925891950727
0.05313473282614723
0.05259416959946975
0.05219039049232379
0.05257628007093444
0.05277209807187319
0.052372509283013645
0.05235646297922358
0.05292065115878358
0.05353046543430537
0.05353692629607394
0.05344673037296161
0.05319118300685659
0.05296703175874427
0.05336431486066431
0.05399321948410943
0.05452910787193105
0.054680156614631416
0.054525548950769005
0.05466751346131787
0.054508795940782874
0.054404531833715734
0.05479127845959738
0.05527195187518373
0.055421435358002785
0.05514752156799659
0.05439308208180591
0.053672469910234215
0.05366748367901891
0.05401257217861712
0.05402008265489713
0.054034778769128024
0.05435426431475207
0.054436582773923874
0.054110938876401636
0.05393345281016081
0.05400293791666627
0.05435029463842511
0.05439657142618671
0.054292297835927456
0.05424114986555651
0.05401867887703702
0.05335240531247109
0.05281237233895809
0.05272116192849353
0.052669708323664965
0.052324141452554616
0.05197569240350276
0.05201197860063985
0.052403292772360145
0.0524244634155184
0.052770454208366575
0.05292141106445342
0.052666645261924716
0.052327594892121854
0.05224999208701774
0.05214876621728763
0.05205023144371808
0.052083693670574575
0.052094754702411594
0.05189208479830995
0.0514968528971076
0.05145197963574901
0.05178593812510371
0.05207378523657098
0.05203366783447563
0.05174382553435862
0.051620800611563024
0.05154930320568383
0.05163501386763528
0.05193670901004225
0.0521705925068818
0.05198859077412635
0.05181445578346029
0.05168842625338584
0.05164902873570099
0.05170086340745911
0.05176265140529722
0.05184908766066656
0.051704545677639546
0.05185243430314586
0.051891716327518225
0.051810096022672954
0.051647688222583386
0.05160350339487195
0.05152499411255121
0.05157567393034697
0.05142814468126744
0.05146741109201684
0.0515810791682452
0.051585933414753524
0.05139210576191545
0.05119038433302194
0.05118829682469368
0.05122976002981886
0.05106447944883257
0.05092337393201887
0.05091025905683637
0.05115637615323067
0.051297365589998666
0.05069037459092215
0.04970873368438333
0.04967656030319631
0.04980963882990182
0.05000026011141017
0.05050487328087911
0.05072001833701506
0.050976011706516146
0.05124710781034082
0.05119385794270784
0.05174744889140129
0.05216471759602428
0.052039208370260895
0.052186459901276974
0.05239968329435214
0.05185212153708562
0.05154866743599996
0.05161092039430514
0.051800554362125696
0.052059204848483205
0.05187297628959641
0.05102893712697551
0.050715101805981246
0.05122489555040374
0.05111176445381716
0.05077469777083024
0.05107372183352709
0.05107924096519127
0.05080433191265911
0.05066639547469094
0.050741098064463586
0.05088622092735022
0.051042471826076505
0.05094075491186231
0.05103325233561918
0.050977408897597346
0.05075036027701572
0.05066832079086453
0.05028366092126817
0.0500417407322675
0.04992924891645089
0.05022306312341243
0.05072993584675714
0.0510566677711904
0.05126646518707276
0.05106168516678736
0.050891727451235054
0.050723938532173635
0.05054030543891713
0.05048865199321881
0.05060247128130868
0.05055426748469472
0.05043732564197853
0.05044944420689717
0.05087120016803965
0.050823638048022986
0.05066687389044091
0.05073639843147248
0.05088454675860703
0.05084671828895807
0.050877614968921986
0.05120282030897215
0.051404632565099743
0.051451635551638904
0.05170267640380189
0.051876496593467894
0.052052481910213826
0.052236053666565564
0.05263784520095214
0.05292599661508575
0.053103839359246195
0.05351056284504011
0.053641238850541416
0.05369466656120494
0.053675881640519944
0.053947669016197325
0.05439057166222483
0.05455842416966334
0.05461738863494247
0.05462072670226917
0.054512246504891664
0.05469978652196005
0.05494919770862907
0.05492686472134665
0.0549040935235098
0.055241236677393314
0.05548035746207461
0.05555116661358625
0.05531665551476181
0.054967742040753366
0.0548718207818456
0.054692140244878826
0.05451509450096637
0.05446074011502788
0.05445042406907305
0.05439018924022093
0.05429824436083436
0.05430604149820283
0.05447518847882748
0.0542020099493675
0.05397532571107149
0.05388509564567357
0.053955542617477474
0.05372362076770514
0.05323476242832839
0.05265645077219233
0.05258078640094027
0.05255950540304184
0.05279057026607916
0.052894144661258906
0.05247706238180399
0.05312702191527933
0.05354963997611776
0.053613607336301355
0.05346002003410831
0.05296376128913835
0.05237080451799556
0.052564784125424924
0.05310984832700342
0.05336691413540393
0.053571422058157625
0.0534680610219948
0.052885068962350484
0.05250299194594845
0.052749495182652026
0.05277795736677945
0.05281305904034525
0.05296208425657824
0.05301986809121445
0.05319292087806389
0.05343155502574518
0.053333294794429095
0.053218069684226064
0.05297955595888197
0.0529336163867265
0.05293268805136904
0.05288050978677347
0.05266064150026068
0.05238623526180163
0.05213135804980993
0.05196567672304809
0.05195285530062392
0.05214207838755101
0.052091542189009486
0.05179233225993812
0.051862452286295595
0.05184548285556957
0.05188053229590878
0.05205230554565787
0.051815498664509504
0.05166357662295923
0.05134453321341425
0.05091414320515469
0.05075491208350286
0.05033696894301101
0.05035842785844579
0.05094909508479759
0.0509991543344222
0.05095350664108991
0.05143459525192157
0.05194562538061291
0.052152509146835654
0.05204844826832414
0.05192951123928651
0.05166493506869301
0.051487949972506615
0.051524700603913516
0.051533811276312916
0.051727632221300154
0.05168061891803518
0.05168461064342409
0.05187853184295818
0.05206925967009738
0.052111626632977276
0.0523534808633849
0.05253525807056576
0.052453500884585086
0.052497441796585914
0.05259182778885588
0.052825706023722885
0.052857670113444326
0.05288973862305284
0.052942571840249
0.05314114633947611
0.053312662907410414
0.05348301224643365
0.05346946357982233
0.05376568576553836
0.053937033901456745
0.05404574536718428
0.05423032677499577
0.054485972963739186
0.05452245104126632
0.05436651272932067
0.05445552166318521
0.05466388711705804
0.05490684912307188
0.05509178573731333
0.055235841483809056
0.055270408194046466
0.055215954803861676
0.05530781439272687
0.05517368309432641
0.054995245013851675
0.05444304533302784
0.05388269988819957
0.053760467013344165
0.05354753688676283
0.053267842556815596
0.05346219825791195
0.05310756395570934
0.05268369408324361
0.05288380886195228
0.05310271065449342
0.05355335518717766
0.053991783121600745
0.053862223422620446
0.05390961042838171
0.05379524938296527
0.05352479637600482
0.05345634424360469
0.053821882349438965
0.05406450739596039
0.05411758336238563
0.05392236677696929
0.054024088010191915
0.053657948521431534
0.05321434568846598
0.05335040008882061
0.05380575211253017
0.05398692617891356
0.053871659212745726
0.05387006538687274
0.05403660509735346
0.05396926298504695
0.053883278893772514
0.05389833644032478
0.05396831291494891
0.05414149651071057
0.05455410746391862
0.05523685013176873
0.0550407873140648
0.055338875870220364
0.05580900814384222
0.05575948402285576
0.0561700771888718
0.05641618927940726
0.05642575736390427
0.056458122527692466
0.05663638105848804
0.05682711533270776
0.05686718855286017
0.05683007035637275
0.05649372470099479
0.05615849439287558
0.05595654098317027
0.05579323663376272
0.05565335295163095
0.05563574049156159
0.05580475968075916
0.05565398862585425
0.05523815300548449
0.055081785153597594
0.05499874316388741
0.05473275370663032
0.05453436752548441
0.05434096605749801
0.05396498329704627
0.053472681411076334
0.05338570739608258
0.05344211708055809
0.05316369965672493
0.0531231040484272
0.053378580599091945
0.05378920604009181
0.054014049593824894
0.05398651183582842
0.05382200140273199
0.05405431456165388
0.054287958245258776
0.054135196954011915
0.0541732981801033
0.054452635338529946
0.05483849069336429
0.055222903080284595
0.05511490422068164
0.054816472127567975
0.054862270646262916
0.05513896832475439
0.05588979341788217
0.057045425046235325
0.05798282952280715
0.05827398266410455
0.058199835342820735
0.05847983336308971
0.05897120150737464
0.05972990087931976
0.060424602795392274
0.06027692026924342
0.061632168143987656
0.06311901543056592
0.0634118926548399
0.06335549951996654
0.0641210077260621
0.06533487949054688
0.06544458415126428
0.06747980888700113
0.06981390937929972
0.07046277000335976
0.0706311928993091
0.07155585747212172
0.07102461734320968
0.07177071461919696
0.07352047516731545
0.07447254251455888
0.07430638620629906
0.07548599337227642
0.07680061086080968
0.077162182147149
0.07813961353851483
0.08091343691805378
0.08293756568105891
0.08314833952812478
0.08387578488327563
0.08575866630999371
0.08947034328477457
0.09397114992141724
0.09720150731736794
0.09735639535356314
0.0991894846688956
0.10227909206179903
0.10514103430788964
0.1069858685368672
0.1086238776263781
0.1094700620486401
0.10995437142672017
0.11172802805900574
0.11391099284403026
0.11545821614796296
0.1161241252743639
0.11607224312378094
0.11612677212571726
0.11648028878262266
0.11761496676830575
0.11812044048449025
0.11877129312371836
0.11940873593091965
0.11929806266678497
0.11907978169387207
0.11948244803585112
0.11970706680556759
0.12039110779063776
0.12148321676999331
0.12193444170057774
0.12195600544335321
0.12198601071955636
0.12145710665266961
0.12208632476627827
0.12313932019285857
0.12304339160909876
0.12308324203127995
0.12444436425808818
0.12571577603463083
0.1260410166089423
0.1259901912556961
0.12598645902471617
0.12746275601442902
0.13030848713126034
0.1327693514362909
0.13383427075808868
0.13391457652905955
0.13499304157914593
0.13757658109534532
0.14083465778734536
0.14215711916564033
0.14350969942752273
0.14694285335717722
0.14901147525990383
0.14933024037862197
0.15177392217563465
0.15475776578299702
0.15740404694806784
0.1591754072206095
0.15936656767735258
0.16008697463199495
0.16163502094103024
0.16339930362999439
0.16452886752784252
0.16502672589151188
0.16513324596220627
0.16505770468618722
0.1648489582212642
0.165167142895516
0.16598934069275856
0.1665294905868359
0.16645136977080255
0.1665222724340856
0.1664338116068393
0.16617655336624013
0.1658213172783144
0.16617628369946033
0.16779095865087584
0.1696269984007813
0.17030730859609322
0.17078256381675602
0.17138230798300355
0.17117251206189393
0.1713602410722524
0.17241623356938363
0.17506880272878333
0.17742259475635364
0.17825153532670812
0.17823506934335456
0.17860275107203052
0.17904232655186206
0.1788645062968135
0.1797090454469435
0.1811401708307676
0.18290523286676033
0.1842016141093336
0.18422993477201088
0.184761531597469
0.18562904383754358
0.1863750545377843
0.18690915371757
0.18716676847310737
0.18902862172573806
0.19183147123549132
0.19346158425789325
0.19305296891136095
0.19411338758422061
0.1952393300854601
0.1959273172286339
0.19700501149287447
0.19842095705214888
0.19929672406520693
0.1992458099219948
0.19956003974191844
0.1996644641365856
0.19925615526735782
0.19857055480359123
0.199271853226237
0.19965546628693118
0.1990936250286177
0.20016761190025137
0.20220322969835253
0.20349220039788635
0.203309033382684
0.20373790389625357
0.20384108950849622
0.2037674459023401
0.20415996810887008
0.2044263958535157
0.20442651797784492
0.20452660927316174
0.2044958996330388
0.2046513049537316
0.20481551584322005
0.20476521055214106
0.2047456640820019
0.20474366792477666
0.20492111707571894
0.20498736430425196
0.20552817872492596
0.20586710192030297
0.20577527828747408
0.2058739773812704
0.2058661172259599
0.2059138313983567
