0.00995208854554221
0.00999524020589888
0.010038946156855673
0.01006101944250986
0.010060903360135853
0.010057562575675548
0.010070647241082042
0.010087515143677592
0.010077559493947775
0.010040122384671122
0.010000760741531849
0.009976552643347531
0.009970475009176881
0.009975381353870034
0.009975388552993536
0.009965241837780922
0.00996401762124151
0.009989730734378099
0.010034251783508807
0.010072565318550915
0.01008559250505641
0.010083271695766598
0.01009429995669052
0.010123270365875214
0.01014610510552302
0.010149583762977272
0.01014770618174225
0.010147528043016791
0.010131586883217096
0.010101131617557258
0.01008567659649998
0.010091929545160383
0.010097623956389724
0.01009218631312251
0.010088254830334336
0.010093113326001912
0.010095183569937945
0.010089287785813212
0.010079321113880723
0.010061282187234611
0.010039342031814159
0.010025840494781732
0.010012575339060277
0.009996355082839727
0.010010039624758065
0.010064268170390278
0.010112379300408066
0.010119075949769468
0.010107007171027362
0.010124357466120273
0.010178580044303089
0.01020568112609908
0.010155959506519138
0.01007731799967587
0.0100213254801929
0.0100090112676844
0.010039788375142961
0.01008034617640078
0.01009399050148204
0.010091952071525157
0.010102374884299934
0.010114993227180093
0.010108002887573093
0.010092471374664456
0.010086757144890726
0.010084019496571273
0.010085663786157965
0.010117145257536321
0.010171585120260715
0.010201735838782042
0.01018662947928533
0.010150785921141506
0.010124648846685886
0.010113819227553904
0.010107392547652125
0.010103040144313126
0.01010384374530986
0.010109126856550575
0.010120729154441505
0.010142334015108645
0.010176335584837944
0.01022170047974214
0.01026504613691941
0.010279884489718824
0.010251665201503784
0.010201683442573994
0.010167449878063053
0.010170358384493738
0.010209832834079861
0.010261389047373086
0.010283399883192032
0.010251436354592443
0.010189661851618438
0.010150756405200809
0.01016161661129445
0.010187173103913665
0.010195379350334407
0.010203625622671098
0.010227281313855202
0.010248314563650638
0.010258301158901304
0.01027917792322114
0.010312037623953075
0.010320680101867765
0.010302658972796053
0.010298701103311032
0.010319284279830754
0.010330825103446841
0.010310105485841633
0.010273101467173546
0.010246319563593715
0.010241147812921554
0.010256317332386971
0.010279468349181116
0.010295404752250761
0.01029944247333333
0.010296930505428464
0.010290310529526323
0.010277134631760419
0.010263703058008104
0.010260397645179182
0.010269738582428545
0.010285500991158188
0.010290558058768511
0.010275181992910802
0.01026017450261861
0.010273956635501236
0.010310166631825268
0.010331988758407533
0.010320924827829004
0.010294782279524952
0.010271655935794115
0.010251234530005603
0.010234197832178325
0.010224222056567669
0.010220395915675909
0.010225389848928899
0.01023664359934628
0.010240416284650564
0.01023659730097279
0.010239287710282952
0.01025316957384348
0.01027580707333982
0.010299943524878473
0.01031226249411702
0.010315805117134005
0.010328219141811132
0.010351169635541738
0.010366689926013351
0.010356626585125922
0.01032602831022814
0.010303428110200913
0.010301290238276124
0.010301379989832639
0.010290769534185529
0.010276331987697632
0.010263635842129588
0.010252999665681273
0.01024781928397715
0.010246306953486056
0.010238534130621701
0.010227235537022351
0.01022917262976989
0.010240663818549364
0.01023735552560538
0.01022158192936331
0.010213705559726805
0.010196678524371236
0.010159324314445257
0.010143446568399668
0.010159671120345593
0.010166411830577999
0.01015199278946966
0.010138627705164254
0.010139905668329447
0.010150853339582681
0.010156364471185952
0.010150316678918898
0.010142583614215255
0.010136369902174919
0.01012198781594634
0.010102686649188399
0.010091359461657703
0.010088936055544763
0.01009129585698247
0.010097213049884885
0.010101423196028919
0.01009584364714101
0.010076842391863466
0.010049973831046373
0.010031913544517011
0.01003664798103273
0.010063136566895992
0.010105065864045172
0.010154958374332636
0.010194839141331614
0.010199264478869737
0.010164539958350361
0.010136044474784285
0.010159825794398785
0.010197837718296797
0.010173951152246445
0.010098894410766661
0.010047326628118754
0.010042846612632274
0.01005388518096879
0.0100548677588813
0.010043226548004896
0.010037236248608679
0.010059300740249456
0.010100051381159573
0.010127502772957087
0.010132241600658745
0.010126068047247827
0.01011922003235668
0.010119743593968451
0.010123126828111707
0.010112951691262424
0.010087132991757244
0.010064542624168098
0.010058651356957852
0.010052165016531944
0.010021970896050334
0.00998380386736244
0.00997300690272823
0.009989808364771306
0.010002389878500252
0.009998635158408433
0.009999551430810242
0.010016557835042477
0.010033393166959286
0.010042919197585433
0.010051339438650757
0.010043034108821302
0.010007697527762503
0.009979377237614244
0.009989265096373856
0.010024881334975361
0.010058168754912913
0.010071550768334419
0.010064584114588796
0.01005570160690695
0.010064642124343664
0.010084122011903673
0.010085072207730264
0.010061588671524077
0.01003794308518991
0.010026944517157972
0.01001746523892507
0.009990593641996384
0.009945519543252885
0.009915867615491151
0.00992888817563653
0.009965576427057386
0.010010378574952484
0.01003595808520913
0.010016033793799579
0.009967481256462634
0.009937328768428415
0.009943825642112642
0.009965446139685809
0.009986369556281715
0.0100098497280851
0.010031545346137136
0.010034505191724748
0.01001019900199026
0.009972064427565784
0.009941279229242355
0.009920020760037005
0.009893675686325877
0.009859108347445727
0.009834514900576323
0.0098339052638039
0.009842786379158497
0.009841491880360992
0.009846623656339943
0.00988216428551823
0.009914202387444676
0.009895439553074538
0.009854579896200448
0.009845712727401406
0.00985751885920763
0.00985250380821526
0.009841592465527356
0.009858396027702838
0.00989727831678465
0.00992696532746777
0.009930495033040642
0.009902409184724093
0.009853418155107646
0.00982117855688557
0.009830447279382497
0.009861827022396028
0.009890030850656331
0.009905454032123088
0.009921244378201664
0.009948425202164799
0.009959646933712065
0.009928559861145913
0.009884760291315615
0.009858386176638305
0.00983489039586857
0.009813630902208388
0.009817004019860178
0.009828151622787117
0.0098159383633174
0.00979591975454241
0.00980207254877314
0.009836968118324876
0.009874668852426112
0.009894228165503591
0.009893501293845475
0.00987599468557164
0.009848609457258135
0.009819631108548492
0.009788887239992619
0.009759807868395
0.009754126851912587
0.009785073043312878
0.009825558450538665
0.00984880565200001
0.009870785558596253
0.009898715072777122
0.009900004034861923
0.009862366179004312
0.009819451817311347
0.009800405544228851
0.009802038855850697
0.009812018671073019
0.00981795164057985
0.009803817823994905
0.00977317315293476
0.009750881667714565
0.009748373702168465
0.009761919954326004
0.009787890885490924
0.00981405752710998
0.009831569425296038
0.009853234542533755
0.009881534886080772
0.009887437452562153
0.009861905032303185
0.009838120031636208
0.009830693039111793
0.009821408330462873
0.009805311418604105
0.00979333950439468
0.009789582600351423
0.009789242360275239
0.00979266221402213
0.009810830373317004
0.009841309709008783
0.009857712218072266
0.009847678672522307
0.009835774737875908
0.009842296128626913
0.00985558883054182
0.009867867366410791
0.009886552118696273
0.009896148424595595
0.009869067370891571
0.009823135996703059
0.009804069898091256
0.009814264185260982
0.00982839851640165
0.009846225613728166
0.009872747410554439
0.009898976096883417
0.009922277538571507
0.009943123303819447
0.009951139115728438
0.009939195909537376
0.009915944247040898
0.009889321972150356
0.009863472327124327
0.009854165071155876
0.009872923246584833
0.00991222694516182
0.009956494993530214
0.00998851217329502
0.009993749775458128
0.009970839244779199
0.009947955852840095
0.009961817334406077
0.009997899299487472
0.010001722245942802
0.009962575060781092
0.009930280689150094
0.009937845629174262
0.009961460011545568
0.009972257956396788
0.009975143885239958
0.00998079136479646
0.009982225811108946
0.009968995249364525
0.009938566039782017
0.009910952884238213
0.009927255280781538
0.009977898972574622
0.00998811327619478
0.00994334223214537
0.009923651325516402
0.009963294027838855
0.010002473169006407
0.01000237887725234
0.009986241748556494
0.00996986913960427
0.009953017008956521
0.009939480556640774
0.009916589464992284
0.009879859581124037
0.009854246031027287
0.009849470509216189
0.00985229442594573
0.009859344656579196
0.009879784644581377
0.009912515776231885
0.009938766085542738
0.00994895100593567
0.009950446041766554
0.009948807284235955
0.009949426476377993
0.009958609205204994
0.009969516173005104
0.009966154212597757
0.00994727021548897
0.009927133789751678
0.00991125267231837
0.009895729504060001
0.009887673542834818
0.00990151047706604
0.009932514019310475
0.009958446845412255
0.00996654671151191
0.009955780871678144
0.009938456495292484
0.00994329126784578
0.009969235865864902
0.009974267079960554
0.009950070162303745
0.009934740730095655
0.009942928289528936
0.00995055595645681
0.009939583302475512
0.00992425313219428
0.009929492648225277
0.009956721437629313
0.009983790251426398
0.009991359529085458
0.009984177572187036
0.009988034607376904
0.010022661234252155
0.010072760337498038
0.010101507836952805
0.010104193706065417
0.010112037796061487
0.01013722178991884
0.01016103800619021
0.010164181063883006
0.010131418751552702
0.010058555214200168
0.009978121821768582
0.009937696631532163
0.009941806516144425
0.009959922307170927
0.009984515877440571
0.010023410951253026
0.010057988103944808
0.010070387704763562
0.01008272903971374
0.010121611256618052
0.010170424049720168
0.010192428301088512
0.010186828887090087
0.01018404884263873
0.010185561839025468
0.010167298926971853
0.010146789657883347
0.01016104218782857
0.010189486294984817
0.010189846358262002
0.01016791646135971
0.010145088003482669
0.010122406224254518
0.010108222395647317
0.010116685749962925
0.0101349633699283
0.010134409398306161
0.010111472450662405
0.010095018204301595
0.01010813598986715
0.010137620938476175
0.010151182333938778
0.01013883231440559
0.010118039688095451
0.010096518783830105
0.010072285993956029
0.010065204554703087
0.010083821676671505
0.010095459145959466
0.010088478955440223
0.010089125542435795
0.010098985671065748
0.01010165673447773
0.010101943933404982
0.010110111155081541
0.010127956136129797
0.010145669393241406
0.010142425717785954
0.01012027705553919
0.010107719416264444
0.010116263213567435
0.010137220779433846
0.010159617341123521
0.010171211066190153
0.010178906321525573
0.010197102057281882
0.010203064049128442
0.010179585888981818
0.010162464540917427
0.010167209072969854
0.01015808728057891
0.010137027166783809
0.010152966647874564
0.010208443314768374
0.010250227586366236
0.01024913634872064
0.010227038853336125
0.010212207359727473
0.010205939733423293
0.010189237822778523
0.010157832505647092
0.010144925273489208
0.010176681219600142
0.010222221480216832
0.010233532676938922
0.010215697004459798
0.010207346160896122
0.010214006493333727
0.010220705263782293
0.010232937610708178
0.010252370887901634
0.010259132289793343
0.010242151010315866
0.010210226592607795
0.010179390267003327
0.010168481930159033
0.010183950373902916
0.010207749297842383
0.010218408307991922
0.010211363341659308
0.010199233798775822
0.010194564240518957
0.010185080026276409
0.010151557014323772
0.01010669418144971
0.010080029151868074
0.010080384279135615
0.010094293649308384
0.010109883199911565
0.010135957871098071
0.010170558628160506
0.010178242877591401
0.010157756530679763
0.010151988917496056
0.010161664402112365
0.010156178148463368
0.010140006188303232
0.010123833836987615
0.010094307556282728
0.010058833193033934
0.010050294583197682
0.010074621099047363
0.010108503997325897
0.010133303846232592
0.010139248182531447
0.01012427670415491
0.010100038882810622
0.010078006328549237
0.010061451166402549
0.010059418159071356
0.010075915025081485
0.010088390773162245
0.010073846778832376
0.010038936543278396
0.010006614695303142
0.009994611768051982
0.010004815550055356
0.010029769765678794
0.010059715630486608
0.010070065998006613
0.01004449742147699
0.010016098055057227
0.010019892265554518
0.010038802835624664
0.010052751824259758
0.010058341769035906
0.01004005670081824
0.010011663713958114
0.010020864463876933
0.01005898653762415
0.01005987758981064
0.010013033654540777
0.00998508277349174
0.010009482537861913
0.010046395568642764
0.010068175611086189
0.010083457680884748
0.010088367643766106
0.010087844289373607
0.010106796810869128
0.01013167949859053
0.010125256844330579
0.01009597378084436
0.010071481640916318
0.010042071060743183
0.010004887583199888
0.009993058394175023
0.010008220009040088
0.010012182123027742
0.009995132377371192
0.009980651708319783
0.00998090164968744
0.009991970912087709
0.010007862928323447
0.010015448920894414
0.010008704166393727
0.010005333567969501
0.010014849661383779
0.010015526285860688
0.009994094695430248
0.009970695332158356
0.009960833727382124
0.009958739783614874
0.00995952903991565
0.009955152820330113
0.00993026337120682
0.00989284276496619
0.009881709443870932
0.009913345098029823
0.009954351249616593
0.009973563926760107
0.009975343397818505
0.009969386418815703
0.009946983500849455
0.009903782894834876
0.009868608647957444
0.009872581977397203
0.009907746836543083
0.009947008301969618
0.009967649837490171
0.009960158697795122
0.00994408227270469
0.009937601394485683
0.009922696123830975
0.00988716731313616
0.009856852784287185
0.009855522927828132
0.0098758408986032
0.009899239395745099
0.009922156492248178
0.009947365790139884
0.009958531919401138
0.009943237707484514
0.009923145622015
0.009920111077371984
0.009924225793220103
0.00991839826107025
0.00990380446659401
0.009884746407624333
0.009857293290551752
0.009831137796863914
0.009825659848283977
0.009839731715619564
0.009862331645563245
0.009886461507994682
0.009895748645067214
0.00988190847216174
0.009866660644765943
0.009871018836274743
0.009883461731951683
0.009883000245317818
0.009876255004201084
0.009878672810737043
0.009874049024656415
0.009844070069957524
0.00981627416331321
0.009823099477216601
0.009844390081707389
0.009846679316833615
0.00984241507947445
0.009856942684855312
0.009872981088701636
0.00985836765030399
0.009820748758502305
0.00979256086749956
0.009782582563348114
0.009772281148470938
0.00975355926901102
0.009749645178671926
0.00977322438498959
0.009793261473532766
0.00978499157819897
0.009763010835740715
0.009745280952192842
0.009726515379734338
0.009694641642272472
0.009667020177002996
0.009673620567191392
0.009697616137564181
0.009698973761405796
0.009679209187161177
0.009663706263527274
0.009663620861247182
0.009679564908146858
0.009695945295970888
0.009688994605094195
0.00966699123615399
0.009654869532678276
0.009652949166484176
0.009654715762007982
0.009658371403347701
0.009652334293350577
0.009636615761555731
0.009633804047480226
0.009648017573636026
0.009652006761170924
0.009637030172161758
0.009629704351536929
0.009643563863355666
0.00966305861249566
0.009673192130867392
0.00966860311338678
0.009649436571635306
0.009623690526932478
0.009607583601027727
0.009612525284755974
0.009632523115724325
0.009652296875137835
0.00965400348417461
0.009631940983235837
0.009604772487655282
0.00959356082836166
0.009608987241517753
0.00964432468637824
0.0096743607474491
0.009690025723539292
0.009697748941835015
0.009694818852003663
0.009690173726994544
0.009697880179155618
0.00970425222069025
0.009699047692120075
0.009701064804103226
0.009718629277776926
0.009741693465039135
0.00977199838962406
0.009805011774878948
0.009810757013037802
0.00977667626226321
0.009730819584801794
0.009706960506737233
0.009717327640391887
0.009745360158849508
0.009760394205804913
0.00975362949538976
0.009742990096565336
0.009747075135819613
0.009768108383286744
0.009789966244716198
0.009789892754051835
0.009763805703260004
0.009740616453345865
0.009747718218713999
0.009766790985595434
0.009764074156992137
0.009744462694507093
0.009729065080173314
0.009720563418231904
0.009723399414215237
0.009746705249417573
0.009784345743246376
0.009818242744076998
0.009825636341702193
0.009806025244761258
0.009797839040402323
0.009817381447646767
0.009827154341619461
0.00980959385400638
0.009794476886745541
0.009793254595715553
0.009788877782411873
0.009777795092668384
0.009766283060889691
0.009750731557141989
0.009731669167522342
0.009738980680704118
0.009791848622262478
0.009837908139452338
0.009819065877236426
0.009768190691247583
0.009757802055682987
0.009800562974996865
0.009846699303016066
0.009841883503831923
0.009780121552757919
0.009709260875824839
0.009673807511571795
0.00967143325600773
0.009670499158091843
0.009651249805465341
0.009634278086014091
0.009655690444633365
0.009711665268987417
0.0097650498454459
0.009791625591460615
0.009786515929736197
0.009759829745162278
0.009737381958402694
0.009737425516359508
0.009754182298202067
0.009770773886702954
0.0097757448698394
0.009764659863431007
0.009740327431354672
0.009720913781784475
0.009724544561468065
0.009740995937027036
0.009748980982694775
0.009750313747208566
0.00975228319875896
0.009742724364623428
0.009722719276323915
0.009725331540685146
0.009763525060843676
0.009802773979026824
0.00981273163575679
0.009806568396743386
0.009806165811605752
0.009811129961162806
0.009820784670300781
0.009838097277097405
0.009855587198399008
0.009867465728893876
0.0098809210723266
0.009902967310044914
0.009913830948062242
0.009889504392631351
0.009853321893606335
0.009842645372264086
0.00984334230190143
0.00981078841490671
0.009742101929150522
0.00969390696613118
0.009707088572904468
0.00974049823358655
0.009733063264284282
0.009697494197171181
0.00968677131459117
0.009712972221896052
0.009750115785282105
0.009777109797578305
0.009789363006129861
0.009789164646063
0.009781028642319143
0.009763713730499148
0.009730208753608168
0.009692276064306497
0.009678254588507115
0.009699110917281359
0.009743622904643416
0.009787961977999658
0.009802481448277832
0.009781730994582176
0.009752493144478649
0.009738811417482793
0.009741507989820092
0.009743085163645446
0.00972403088118881
0.009682632193434983
0.009640371336136013
0.009623528365045786
0.009630706286989152
0.009639204749837517
0.009649407183751464
0.009668080604169517
0.009669473497197031
0.009647527299821377
0.009642672801855951
0.009663826818577945
0.009676282093860209
0.009674580122809856
0.0096806287067011
0.009696329315192997
0.009711336607579142
0.009728035458829254
0.009755080551840364
0.009785414023790509
0.009799381124321372
0.009791913614608348
0.009776568436063827
0.009763809244614095
0.009756347662769258
0.009761463296599686
0.009780903693754226
0.009803231214173138
0.00981757209636271
0.009814221384003759
0.009797368408180773
0.009792402596212923
0.009805150697939097
0.009815572937950491
0.009817835961002856
0.009819263466633857
0.009820071891881525
0.009820804407354444
0.009831987977959216
0.009861873553600162
0.009898439808748662
0.009915460289921612
0.009899487097281962
0.009868035996332765
0.009848877161275596
0.009838822707533836
0.009811901799403132
0.009770433877129107
0.00974836342735216
0.009761575148440898
0.009794256009627134
0.009826655916403979
0.009847114451695234
0.009855667666997761
0.009862928132060916
0.00987367146415636
0.009887252843473106
0.009902990583796054
0.00990602482110262
0.009880741348024458
0.009844391117803752
0.009833428186830133
0.009856712040491402
0.009883579888846725
0.009876845222897827
0.00983295458368957
0.009793803854845464
0.0097936267638579
0.009806772209703923
0.009801674669142812
0.009792709536850453
0.00979343566345051
0.009794735738541931
0.009789732419885695
0.009774442338384688
0.009754222887568175
0.009745889042969793
0.009752308493480086
0.009754456412047148
0.00973739089211449
0.009721324378624559
0.009739752905443311
0.009781869014259427
0.009806836917996407
0.009805709533393383
0.009801100841723382
0.009800005764700472
0.009791067272890358
0.009776597400195897
0.009766595717519522
0.009766095934901386
0.009781579987611621
0.00981160398805514
0.00984049215214327
0.009848116531502455
0.009826428412925452
0.009795201462693512
0.009784829104319215
0.009795079708565026
0.00979786878451705
0.009782930496148765
0.009759523023385555
0.0097349110734649
0.009725253328215331
0.009737656018696726
0.009755510874092578
0.009773879868444055
0.009796002237126232
0.009815927986055612
0.009831355097703635
0.009826692906208336
0.009787345342338084
0.009750645295716821
0.00975429407088086
0.009768314654938876
0.009755878217983991
0.009735226442571729
0.009732493930496276
0.009728162840474397
0.009691474933642894
0.009643314080312848
0.009632256112527103
0.009662163800094277
0.009704053937457501
0.009742617490701377
0.009765662718564272
0.009767891955561936
0.00976953059900552
0.009782491384539753
0.009792567482218146
0.009792953045107425
0.009794627288356424
0.009805958946235477
0.009820547557901592
0.009823370943777263
0.009812238800805062
0.009801700366660953
0.009801503631751984
0.009802987282164395
0.009789626623969525
0.009768554063048213
0.009767789838369935
0.009784884869586676
0.009788687569089233
0.009777489844709634
0.009775227247737349
0.009784328390378506
0.009793894346803427
0.009800959683489055
0.009797211377881468
0.009780531991273165
0.009774012758862227
0.009795284264255315
0.009832547244150192
0.009861914832144976
0.009867546644527466
0.00985681994119659
0.009852173847611993
0.009855905848089605
0.00985270133940503
0.009843387885484844
0.009831651817075909
0.009799542587716132
0.009742203764617444
0.009689155479427426
0.009666679075453431
0.009676500279456378
0.009705933090299369
0.009739604839123785
0.009766230420209467
0.009774030442349613
0.00975867114495486
0.009742574817501008
0.009754037347156554
0.00979062738828361
0.009825676307082176
0.009839066751301289
0.009843269914854317
0.009869530010037124
0.009907990721985697
0.009909985158592462
0.00987096715020016
0.009837285161484032
0.009828411119524389
0.009828996693249792
0.009831396888475865
0.009832557777408511
0.009828587046358734
0.009826953404117376
0.009836308520752936
0.0098520414554514
0.00985798091860488
0.009835909449029713
0.009788607349619269
0.009751168582588433
0.009746972268912942
0.009754591532982885
0.009758934339042753
0.009785808259621262
0.009842431333381682
0.009889892539940775
0.009908518872689455
0.009917184731457383
0.009925310490652919
0.009931516291107983
0.009939549590926617
0.009939782712608576
0.009921609666198492
0.0099055230547674
0.009911733851768077
0.009924720516428351
0.009925665019545704
0.009909982681274415
0.009875471461564303
0.009838388536591082
0.009827040194068104
0.009844553964212537
0.009863399213645607
0.00985459451097995
0.009825653035659344
0.009813361924607307
0.009826375201810152
0.009843205385841429
0.009861262002959847
0.009884036113508046
0.00989084217697382
0.009872532219160348
0.00985158683732152
0.009849042976275086
0.009868093375116587
0.009890764406882226
0.009891521078534424
0.00987516529392451
0.00986417250474915
0.009858836212661117
0.009849847278092056
0.009837860178668051
0.009825891281943768
0.009819099546875805
0.009819482585880905
0.00981226442148909
0.009786961732897908
0.009768576265778393
0.009787390576675534
0.00982979837572202
0.009863814287818969
0.009884709883481264
0.009901896750088781
0.009918149327859282
0.009929474876262247
0.009926525081973524
0.00991403445135802
0.009914455600082875
0.009930404492188245
0.009940494769252836
0.009936543395742774
0.009925226799678057
0.009905503033660352
0.00987830808153376
0.009863979059737175
0.009873881398234516
0.009875979360658675
0.00983989454805851
0.009802596720401197
0.009822578793391585
0.00988114637322724
0.009905669649597257
0.009886166318319739
0.009876953931525349
0.009888913871254772
0.009882003613747657
0.00984752411255613
0.009818787777330727
0.00982314057648182
0.00986034985166043
0.00991167788626626
0.009950502251740545
0.009947225893847644
0.009901099009439349
0.009860484509263188
0.009855538308620453
0.009852777030318975
0.009825710668228566
0.009798962646164
0.009791722651571036
0.009783542526420205
0.009762008683755994
0.00975030240835622
0.009761920436285437
0.009777497232425958
0.00978032176848501
0.009775622750166803
0.00977124772267416
0.009767719868104905
0.009767842567525805
0.009775197769049554
0.009784450866281985
0.009786919048056007
0.009785852022469043
0.00979338760720566
0.009811479763593525
0.009834675283636898
0.009856770895421505
0.009859498341102153
0.00983589348383248
0.009814176612999291
0.009821821718942374
0.009857522281818092
0.00989770244108513
0.009915127968415618
0.009909666790626943
0.009900706463959068
0.009888433460146189
0.009866343676112593
0.009854523234535008
0.00987746728817001
0.009926522606983781
0.00996843574102968
0.009982952559366822
0.009979342098813505
0.00997090472606942
0.00995496284449473
0.00993230436462909
0.009907349930144846
0.009871113137342036
0.009832667843438685
0.009828000562265515
0.009858622530009598
0.009884966923855244
0.009896871687378734
0.009920968033839017
0.009954303007107227
0.00996222068555653
0.009949412178248167
0.009954637102782726
0.009975490213837474
0.009988450584933162
0.010005089249461889
0.010031937854364514
0.01004565975861624
0.010039642071351409
0.010034001239109785
0.010040919205639511
0.010051846781279891
0.010056706343311817
0.010062496555037796
0.010080556902103126
0.010095206017140299
0.010075446953997015
0.010030585036147385
0.010001768455840648
0.00999358618631959
0.009980261311866342
0.009960403314325959
0.00994949326850474
0.009943632585927844
0.009927712762728334
0.009909357910510152
0.009915641939733178
0.009949918137863278
0.009975247173570097
0.009962120787240564
0.009936810680665075
0.009939995871391147
0.009966142380144448
0.00999457061290741
0.010019998429343105
0.01002418462652713
0.009991471089888364
0.00995057843392715
0.009950810249429197
0.010003127304371447
0.010064789904281496
0.010092079497408122
0.010084983196575194
0.010061659151688218
0.010031706998124718
0.010003594926092773
0.00998281967593357
0.0099720729701221
0.009974057332146912
0.009976073063444345
0.009965656450949609
0.009957294245250523
0.009964480574708431
0.009979922736529262
0.009996878183446824
0.010016967700794339
0.01003672122489661
0.010043490894604474
0.010035629984922707
0.01003584522055462
0.010065630853641778
0.010108920440543442
0.01013094627065584
0.01013039959827438
0.010123662455007433
0.01010229178937152
0.010058559230528771
0.01001710600219667
0.010006280702073126
0.010023644398897887
0.010048854812048376
0.0100658310810104
0.01006341348402202
0.010044717516284435
0.010035144304856658
0.010054627747740597
0.010084748140070588
0.010092870346270502
0.010077889105305075
0.010061758109368385
0.010065987466368824
0.010099967361893504
0.010143658069428057
0.010164940326940269
0.010160659537650645
0.01015363757032901
0.010158633904065937
0.01017376022413373
0.01018800781806931
0.010184409248176962
0.010157788740471005
0.010130170746706427
0.010128808310255408
0.010153978581074625
0.010180931240320205
0.01019082334358245
0.010188803216442466
0.010188193477224558
0.010194342250470072
0.010208203536458314
0.01022619956638664
0.010233434985857458
0.010216563458088785
0.010192389111034572
0.01019694296643138
0.010229699779301882
0.010247430987656117
0.010233046784996987
0.010221072693821043
0.010237036037724466
0.010262316903099417
0.010273300150875003
0.010270513088908046
0.010258401464670896
0.010241057004313915
0.010231380420736968
0.010225931913591921
0.010211834714282305
0.01020295160356909
0.01021154530113563
0.010223939584102481
0.010236187502741814
0.010255931378342211
0.010274993788916617
0.010279043111950159
0.010270084077492357
0.010264157550409436
0.010260148902889342
0.010242658543866127
0.010227900799363851
0.010238156493287534
0.010245968820527196
0.010219386224634945
0.010189988589845598
0.010208190651610494
0.010251685508992523
0.01025515521178022
0.01021732288878411
0.01019620977109298
0.010217075881082565
0.01024574311915785
0.010245237208437175
0.010224047598894686
0.010210604779422284
0.010212213289923966
0.010226649919059128
0.01024898563278839
0.010257428269833327
0.01024859941797331
0.010259705174248665
0.010300978072918951
0.01032918268814683
0.010327481939457357
0.010338291344232857
0.010387440081685781
0.010429474182892591
0.010410885422024875
0.01035264674341306
0.010314091802574693
0.010314170918427408
0.010330416946671903
0.010336800268851221
0.010329910749569536
0.01032284422311932
0.010313158002682031
0.010294737475924194
0.010283988267183304
0.010293660392053426
0.010313766899053008
0.010319419247098267
0.010292909913696349
0.01026157739572227
0.010265560620464385
0.01028809601906687
0.010285788939800113
0.010253529166802763
0.01021017320919782
0.010169899081811309
0.010152436196804046
0.01017056331736967
0.010209959119092673
0.010250155124813318
0.01027959431754425
0.01028909198474139
0.010274934859480708
0.010251005489844828
0.010246275295503437
0.010275519562419504
0.010316682467237114
0.010335098700597883
0.010329597610980273
0.010328054982237518
0.010336834923364221
0.010334313435014337
0.010319997719489039
0.010321892481297255
0.010342929558828474
0.010350511618889868
0.010330890133045613
0.010310211684554815
0.010307003483176232
0.010305166067555547
0.010293881085235625
0.010281408643350006
0.010260361523833125
0.010222664955072104
0.010196291212923824
0.010210108885075897
0.010244596267584711
0.010254908460192383
0.010227885802742094
0.010189027532469482
0.010160718550905586
0.010144404801540077
0.010138727561570703
0.010147604064550252
0.010173830108251423
0.010217890578787773
0.010273131811991333
0.010321990759111941
0.01035241900710389
0.010364730071742087
0.010358869484625756
0.01034573518205434
0.01035124774556607
0.010369528653100132
0.010359309033956378
0.010314183153677731
0.010278970408253372
0.010292687013279646
0.010347765206824988
0.010405117312911898
0.010433735020924359
0.01041852566646412
0.010365666449069976
0.010319763394072652
0.010321599594317377
0.010352726094424725
0.010362755157984793
0.010332570252940059
0.010288773758802564
0.010263414664659649
0.010263542898464949
0.010281215782742947
0.01030066260136664
0.010307264029979706
0.010308635060209782
0.010318754129111768
0.010328427786007524
0.010320083287078887
0.010290460421238094
0.01025004730327055
0.010216465594712645
0.010205201520584524
0.010222703237086534
0.010258842126931995
0.010293786653783173
0.010316588580608368
0.010318122210446746
0.010293269851244987
0.010263798825908452
0.01025895401602611
0.01026814010227099
0.010255065858364104
0.010227642969693989
0.01023059213301167
0.01026149103883654
0.010279397296253592
0.010281330889556557
0.010291031261440367
0.010306939394213259
0.010306159525644034
0.010280283072497697
0.010249674897640943
0.01023117907345295
0.010212452721316368
0.010182217522524297
0.010154613375198096
0.010149918422102928
0.010169213360641152
0.010183813362382353
0.010165639754850417
0.010128087403718383
0.010098851618822664
0.01007652752334252
0.010049698373768479
0.010024848051834852
0.010013796042185276
0.010018918169662357
0.010031879942398519
0.01003634478431195
0.010028228294104338
0.010018689250573516
0.010006460037548095
0.009986176849342882
0.00997372591868043
0.009981635329313576
0.009992678517010063
0.009993450420442968
0.009997933527920395
0.01000966210383922
0.010014813216403127
0.010020467804279178
0.010039137280546128
0.010050219637341797
0.01003252413123846
0.010005134055390955
0.00998963565332815
0.009976899139583112
0.009966286905109882
0.009974483840633184
0.009981273727025836
0.009952251841314137
0.009916641220916062
0.009922144745942205
0.009951088132802398
0.009962964639998972
0.009952102624811231
0.009928177394904196
0.0099002029071562
0.00987959307152778
0.00987128869863227
0.009867847019340842
0.00985888056922704
0.009852483961731195
0.009870887950528413
0.009910257426090538
0.009937555147334933
0.009935426726005971
0.00992712969891727
0.009944077376276254
0.009977142934221774
0.009998913493473083
0.010008945304434747
0.01001200603088364
0.010002019403036683
0.009988434803672135
0.009990589367225767
0.010007783400360494
0.010023148665204644
0.010027099824510515
0.010022010181564837
0.010012920605950057
0.010003453388344496
0.009997032962273807
0.009997418085113167
0.010004391313996166
0.010009466207120567
0.010005461908876896
0.009999550103675574
0.010005643439944834
0.01002349946880713
0.010037141549400986
0.010031180817168205
0.010003003547899425
0.00998169807717204
0.010011916472576559
0.010080168393906207
0.010120218337979167
0.010112303690984845
0.010093398832250387
0.010078465822152794
0.010046959130559117
0.010003028772771358
0.00999148673377931
0.010024347472935916
0.010052195268217474
0.010041198481339962
0.010005695845466107
0.009977618572302163
0.009984569596126676
0.010013254347722978
0.010021867512259633
0.01000826051691547
0.00999974534381181
0.010001745303161442
0.01001383354421705
0.010041694587562234
0.010063938959501684
0.010050878804177045
0.010015451023355127
0.009987550224177539
0.009964773254469038
0.009940984093118459
0.00993757343152538
0.009960660892538727
0.009976435294374824
0.009956178676802666
0.009917540086898952
0.009903242802247405
0.009926807472947986
0.00996593343326822
0.009998010485433043
0.010010938902851194
0.01000170449493453
0.00998437770176679
0.009976527555845677
0.009977214001119138
0.009974708037916571
0.009971639562863857
0.009988079709000886
0.01002289742231369
0.010040726526640356
0.010025658283848316
0.010002482328563928
0.009996902528218925
0.010006414102390409
0.010005456034559757
0.00998242717469111
0.009960841482970863
0.009969143006019294
0.010013083484955132
0.010067605467047542
0.010085376827046275
0.010048110450152309
0.009993442511186003
0.009960813391953706
0.009942499336320907
0.009912359290756284
0.009872565753757953
0.009843239940237255
0.009834920812863857
0.009849130138754845
0.009872912764549255
0.009880718186032027
0.009870036523789167
0.009865531155373902
0.009880054818931967
0.009902516098227352
0.009918137192726136
0.009921795197296888
0.00991226667771116
0.00989990437636152
0.009914810713380575
0.00996076202020049
0.009992740803863854
0.009988190850708633
0.009977819267660379
0.009978592423722147
0.009975078362040223
0.009965373785234988
0.009961741757579148
0.00996017195051536
0.00995176603551954
0.009949218181427568
0.009963420724961907
0.009980587754398584
0.00998263027286157
0.009964282028377056
0.009943790042307228
0.00994945276528597
0.009977164198644459
0.009996415020432324
0.009993137610144913
0.009969593486748635
0.009928060860838741
0.00988288020947948
0.00985671346541494
0.00985600022599101
0.00987277100328356
0.009894061340019107
0.009905456413980574
0.009910464980639517
0.009928953277412802
0.009961631598416716
0.009984642332419753
0.009984299731440842
0.009966999350581318
0.009934491752646863
0.009882918128278106
0.00983095902018249
0.009822924765758216
0.00987563816132024
0.00993762272875756
0.00995193671900779
0.00993671678006649
0.009947632022667676
0.009989478562492876
0.010026727127842605
0.010055184843949974
0.01009379400871694
0.010141725114081054
0.01019548452924937
0.010258100740611554
0.010310441053006799
0.010318677497562021
0.01028990142280236
0.010285875240806491
0.010335415543522686
0.010383409520145506
0.010377121763303876
0.01036618574289605
0.010319814335089177
0.010301932266447694
0.010328689019661396
0.010330966576002538
0.010293055800721049
0.010223543429747224
0.010211894235108048
0.010229122783057392
0.010234167091548443
0.010244402247481047
0.010281055851373821
0.010325837007258087
0.01035802838858217
0.010398203660733997
0.010485766751226039
0.010626244365703315
0.01079201472690329
0.010970377621706575
0.011170357782393694
0.011351911367382854
0.011381189716048538
0.011562469806522131
0.011862332746386529
0.01206573259551078
0.0121349375275895
0.012138616035226733
0.01214227506890893
0.012250065337866545
0.012441835766658187
0.012574029858224095
0.012556334557011724
0.012721291335765272
0.012869969934690743
0.012890304562170059
0.012831543406937271
0.012899883785285055
0.013355977803003042
0.01425623555900529
0.015118753558490426
0.015426177310291677
0.015498206513002514
0.01565035290783271
0.01566011009272188
0.015634994716383518
0.015784935450647027
0.016297073774039744
0.017216167820151895
0.018286046856082976
0.019112830844242125
0.01953805356286466
0.019586488027125596
0.01995842417702079
0.021024716363754123
0.022365649295970798
0.02286956717725843
0.0239020762196742
0.026066941733006388
0.028122629863210024
0.028979000076651572
0.029596290045883506
0.0313691923301667
0.033378669354133306
0.035156318224035206
0.036898019295185804
0.038897654425818474
0.04093539298512042
0.042348401804920284
0.042749399605672804
0.04307599264895543
0.043895402655471115
0.044785277692135424
0.045216628743801265
0.045290387859568
0.04546521054580808
0.04681883351877332
0.04886881111189723
0.050455035511404275
0.051359030469320714
0.05203578878659755
0.052594657526351514
0.053032786734402176
0.05350757170468569
0.0538948014145717
0.054068260805215686
0.05548589054727927
0.058034390115644784
0.06071795515017584
0.06277236003428698
0.06432248652447015
0.0655661066994071
0.06617798845516518
0.06651727826334536
0.06785910192877054
0.06962816460989416
0.07111429103184491
0.0719822899880819
0.07221092571504414
0.07243718965677544
0.07277150088455528
0.07281099774874747
0.07294547899626196
0.07343786825193092
0.07420994739513845
0.07481256002094597
0.07485059778904542
0.07501491140574217
0.07503974926425144
0.07575470648473129
0.07692279123002663
0.07769293006276712
0.07795157986227423
0.07922871510731057
0.08056511022150517
0.08147728590527549
0.08250718610594049
0.08424064742634073
0.0861623914539814
0.08710202454589307
0.0873527273000218
0.08801050930051132
0.08851178554119542
0.08936385778011754
0.09132331925677135
0.09401484192116186
0.09578489940613508
0.09604856810765341
0.09759730375371874
0.09864246545359492
0.09864706307416782
0.09892204799689353
0.09901524330256507
0.09928496357984841
0.09931393940234556
0.09936256561661139
0.10008695065742358
0.10212937805103138
0.1044785405532457
0.10540387502172961
0.10639609031844884
0.10960320109268651
0.11496766899246723
0.12080277872039005
0.12422410072525963
0.12419479202479124
0.12555215668398886
0.12599605998024344
0.1262726884149015
0.1281029939907603
0.13093484601471572
0.13289640874369069
0.13333185925381258
0.1335519309900701
0.13372167032677681
0.1338456038106233
0.13389870514860377
0.1340426776977256
0.1341417059721425
0.1347723221895285
0.13583817094098777
0.1363147923676297
0.13657671288121492
0.13722566671902314
0.13773177395109087
0.13790745861595496
0.13811667792266236
0.13887072251876817
0.14019646047847345
0.14151609082473443
0.14216091930167749
0.14230640565510838
0.1433882954507135
0.14517742971656844
0.1470565756317228
0.14838466719025745
0.14886594424955546
0.14912707262206823
0.15004786470206455
0.15145485259592534
0.15305955989984796
0.15394413576694205
0.1544500374724157
0.15593369541224092
0.1571239543450065
0.15733799731358886
0.15817068847594784
0.15970007214462384
0.1606700832489878
0.16081970939412712
0.16110048175556585
0.16148695916170255
0.16140793210826815
0.16339485736330972
0.16644491873215883
0.16830558592220768
0.16840619574766605
0.16881434496724979
0.16883750597015024
0.16892291110940277
0.16977661144919692
0.17112603067653254
0.1721839856938459
0.17253013778710738
0.17272488488582893
0.17359031130094082
0.17485383501742036
0.17547242016764358
0.1756406820565462
0.17581273378571496
0.17590758947189897
0.17662457811646162
0.17771588504314423
0.1782332708616741
0.17836503681261093
0.17912494731834158
0.1805620998237282
0.18165653646923602
0.18185873685171827
0.18172067658277227
0.1817871027183719
0.18171218647854404
0.18230456281686203
0.18343889225041493
0.18423934741644188
0.18426642630249263
0.18457174978917465
0.18488645633449777
0.18560796638950705
0.187720462041907
0.19030746604315937
0.19172511546406895
0.19249265488469974
0.19535402262117713
0.19950684562325477
0.20360362892970443
0.20617846983950586
0.20643879069248214
0.2072216469864361
0.2079471759707667
0.20792661000508816
0.20762845750432463
0.20769308979157358
0.20821920704329386
0.20876632172148674
0.2091113324649632
0.20974328137235715
0.21000425500795245
0.20951702827820554
0.20977807230316103
0.209601227119565
0.209430334395729
0.2098416117602028
0.2099011939833872
0.20967377548571675
0.20938165514729917
0.20932255772175268
0.20860974042210728
0.20701044755987824
0.2052798733417876
0.20455357481725514
0.20400256683584303
0.20226714631076903
0.20064978609094397
0.1991270424448885
0.19779924584552647
0.19683156631886958
0.19570120648946612
0.194635037756525
0.194213839659933
0.19389060450950638
0.19307704349281266
0.19247846972895785
0.19268647767370567
0.1933038405678235
0.19393704576883464
0.1936511360341683
0.19239053052850066
0.1911173651413992
0.191814456502907
0.19308232098584996
0.19381732384674252
0.19371899261604994
0.19329276679549368
0.19288185122655704
0.1927570903953165
0.19138637143420056
0.1892137805232778
0.18706208372022956
0.185345426320564
0.18388867697678507
0.18305801950162276
0.18333360631251708
0.18322288495255634
0.18318788619711995
0.18357819966971875
0.18343755797948688
0.18258388241520151
0.18321103760506957
0.1837454108451493
0.18373525204369798
0.18389260847587138
0.18440534259658306
0.1851504837581888
0.18533258890267462
0.18511153377359732
0.186554318445269
0.18749677387997507
0.18777710417751223
0.1874708373309113
0.18704894005786626
0.18645554264541717
0.186920257313177
0.18663031922420487
0.18556050078012049
0.18472426985390483
0.18428184896474703
0.18396765794139355
0.18294353903271257
0.18266463609645142
0.18402319865766914
0.1846499010408297
0.18511206011287867
0.1856429884303361
0.1851713717728853
0.1829827035521157
0.18181280952878295
0.18226839254144578
0.1807721254345961
0.17981557371560483
0.18024973299819977
0.18082762749865652
0.18126666471362113
0.18128129734424875
0.18156074379105122
0.1815347784315236
0.1813925624708645
0.17971656535752117
0.17766470529139042
0.1773825118667446
0.17637447778368368
0.17447656537406148
0.17088517251657323
0.16604903151048347
0.16259225335204974
0.1634053291985765
0.1633326370199211
0.164217943449039
0.1648703411128372
0.1634448551852256
0.16069131051423027
0.15959330605110153
0.16050139364553614
0.16121084585087375
0.1611356135061942
0.16117842858657241
0.16121117061935364
0.1612578045995906
0.16171619621571154
0.16168542036553846
0.16082626212853937
0.16034907521447167
0.1601084782835096
0.15968326564645394
0.15955521502299233
0.159494840442203
0.15929496072698385
0.15915077627403662
0.15893048823811115
0.15819893671665342
0.15784742219140754
0.15847713185241447
0.15821093429578467
0.1573043610737659
0.15615007776767015
0.15498749078018592
0.15450169131392613
0.1546573399961926
0.15404965206980706
0.15326075887773186
0.15314360573422164
0.15398493399610744
0.15500886542955414
0.15444401507033034
0.15330064667155965
0.15354051544796676
0.15317503218539058
0.15193581257248298
0.15112020024331285
0.15096146561205387
0.15062559283338486
0.1503933329228312
0.15078203947283328
0.148956951291766
0.1458440063893795
0.14408237794879825
0.1441786375292577
0.14389223993057385
0.1437583354022354
0.14392413046909497
0.14380442181834951
0.14339942362392322
0.1432827125536278
0.14347591354046016
0.1436255287169479
0.14405162351671608
0.14384626707993448
0.14339744177414104
0.14431330213090404
0.14461942463647573
0.1459535860316828
0.14811741473153234
0.14904370747739448
0.14850424943258986
0.14940208496525884
0.14962745646713302
0.1487219004309736
0.1480669157556258
0.14865383876720442
0.14973182445159183
0.15008972194977105
0.1499547492573038
0.1498315323353745
0.14945902347331866
0.1498815702670254
0.15150532885687426
0.1525075742509216
0.1525878705456853
0.15194301421986892
0.14969157820101828
0.14689096826827153
0.14560656182467938
0.14543273121351377
0.14277955907629802
0.13850749580189586
0.13458378698443993
0.13229421691736207
0.1330886104470119
0.13337185342563315
0.13241512643406167
0.1325095375138335
0.13439192367019132
0.13531176846241577
0.1351318661868572
0.13557338600512595
0.1353642500587739
0.1350155388494022
0.13431138820014893
0.13421403247630223
0.13313733624992893
0.1324595287628472
0.1321549351210706
0.13183547298191114
0.13168881552061065
0.13092945942422374
0.13012772221351043
0.1300830279919319
0.12990184573223815
0.12931189773837104
0.12906951383221896
0.12910099980188533
0.12923729224363342
0.12960822550114245
0.1297121676057577
0.12958322767168284
0.12948980542831123
0.1291613732278347
0.12925911175087093
0.12978581464616581
0.13003472895827145
0.13175544600700959
0.13359258317155764
0.13388014557072891
0.13393963155336677
0.13426947742234915
0.1336516669439152
0.13343538399320096
0.13366835785564035
0.13357966925948858
0.13235052734380587
0.13091616422170774
0.12994725097436458
0.1295846430840902
0.12959787558298558
0.12970145815517753
0.12995727539295332
0.13006543153431266
0.12963849413208664
0.12908379606436937
0.12902538012480363
0.12938470455119386
0.12894330969313159
0.12893801602069288
0.1299040645849891
0.1291273761447519
0.12694584456738084
0.12557303697336464
0.12580629344796762
0.12506153569789602
0.1252795965783298
0.1262236456363462
0.12669378069927917
0.12621714955661445
0.1260207169689238
0.12628437087638303
0.12649400871945546
0.12497156966011971
0.1238099616067484
0.12379692418500782
0.12361067733960227
0.12298904546769336
0.12314583422383293
0.122617694796063
0.1216091508534737
0.12158976772334426
0.12190558110363782
0.12129362542880699
0.12066201217006892
0.12076636554906145
0.12034204205963761
0.11927281839540228
0.11873158114496618
0.11832584928255528
0.11711599390022456
0.1158592562424019
0.11568692561704666
0.11509385781129822
0.11459929039701819
0.1147252797265537
0.1148178245103918
0.11466500950744375
0.11441397041780874
0.1154239770770073
0.11591152834706009
0.11639105363516138
0.11771541859023273
0.11762216831091792
0.11763978522038088
0.11800521745113655
0.11799874019809067
0.1187101613660343
0.1179009870137088
0.11610214696498587
0.11538373566232622
0.11539279790595174
0.11455643001943827
0.11377836376195774
0.11334748208522796
0.11317800093907864
0.11317913536448032
0.11319006954319775
0.11230580562027172
0.11104134927038103
0.11018287409329787
0.11008707490982488
0.1099446448031813
0.11002809510333464
0.11070768315112219
0.11178422151366249
0.1126488928962499
0.11284974259557203
0.11327275949297473
0.11382173805264756
0.11400461185257882
0.1138961214479059
0.11381917604710906
0.11403031639521942
0.1136344168940559
0.11258522822987288
0.1122777124401182
0.11196257644565775
0.11150293769780546
0.11099406383698807
0.11010967512615025
0.10957829367835074
0.10947273818776011
0.10947580190608278
0.10914596599759534
0.10899916811380535
0.10860713059082627
0.10729213995393366
0.10566359328338876
0.10456966407829896
0.1037780050188303
0.10428334163501858
0.10465826500440016
0.10455716411350295
0.10424156622495502
0.10427769971778617
0.10487060945481062
0.10601201883517206
0.10702152886195108
0.10737931023584679
0.10726758892415092
0.10747779738157988
0.10774189049378037
0.10797560743289068
0.10818797531304881
0.1084796453313902
0.10834948748350143
0.10780742906499655
0.10700581685174257
0.1063200647989288
0.10667108564870433
0.10737492851680144
0.10661465880693868
0.10557033127639442
0.1054507591156289
0.10445965177612379
0.10406743827974424
0.10301241157576442
0.10021682711085304
0.0983945553493686
0.09851098644779994
0.09761145138880238
0.09706685548648238
0.09720362219726666
0.09747409012401477
0.09689544481923804
0.09608650769339874
0.09618143371073529
0.09702684126794338
0.09741277521243319
0.09733707816340029
0.09644912672927602
0.09452785762259737
0.09407742663053796
0.09478895967127755
0.09478690586984158
0.09548923194408417
0.09582240669988096
0.09580650213640184
0.09547402635915204
0.09509274553740397
0.09539945964934304
0.09601652373094112
0.0960152615350671
0.0959245605347678
0.09605007509468123
0.09643701822031289
0.09569957552943378
0.09392844329588115
0.09307483528740704
0.0927984087029472
0.09222228832542896
0.0926996481511742
0.09266923920949921
0.09274510886287317
0.09253180368104949
0.0922606305568479
0.09269013669807463
0.09353548088343815
0.09378545703133569
0.09410966944647953
0.09546632357873022
0.09613584799692035
0.09640757049899548
0.09807078132405878
0.09949673012597486
0.09979882993735373
0.09959870033664629
0.09957960775354877
0.0993694892572239
0.09912531523732468
0.09961903436342254
0.09958639212651178
0.09885974479373544
0.09779724009567872
0.09700850372202695
0.09675903611117974
0.09510079559870065
0.0936077026813291
0.09397317779716104
0.09444364128401503
0.09383264443138614
0.09407175021246075
0.09377339220838621
0.09295490727061406
0.09291912048589439
0.09318182755727321
0.09350916397059336
0.09350889828056097
0.09363922221120446
0.09359680783003568
0.09374525486957282
0.09356005439069122
0.09365408939542248
0.09419114526128397
0.09459549955325201
0.09479558773105964
0.0951179491286166
0.09578329583629966
0.09492202343884855
0.09422126517165452
0.09444259233539924
0.09492089262232184
0.09518458432750776
0.09598345674574375
0.09681130264420063
0.0958266077702865
0.09525786753743887
0.09507604024372995
0.09502241390291602
0.09426066716201603
0.09351443980354816
0.09303463653894141
0.09343473538290709
0.09405758543172851
0.09402831428451464
0.09406613532686606
0.09449550929013639
0.09427558089373633
0.09434392185416073
0.09436984692467376
0.09446940869558602
0.0945242119836621
0.0964119502925314
0.09749470276525245
0.09692621028516442
0.09740834418917074
0.09780655077658594
0.09773526090430096
0.09745998409111052
0.09723217962309719
0.0970011012465693
0.09698055943474174
0.09721382360206916
0.09719597155926749
0.09748282398330048
0.09749531220179052
0.09725954829249531
0.09710404960205779
0.09624739824328571
0.09563231790205463
0.09521671106806025
0.09415472777327523
0.09378478767350316
0.09359408714110032
0.09291134421946481
0.09246452044695616
0.09205286856507883
0.0918974505062215
0.09209143672836945
0.09192308571888134
0.09210652547655628
0.09227066972991452
0.09184184531448408
0.09144163500983268
0.09143940584734082
0.09130312661640345
0.09127344525419176
0.09131833643885329
0.09130799487698824
0.09129465428413823
0.09126962403999642
0.09121959356823936
0.09103184475097806
0.09043348108418287
0.0892255879775621
0.0879989617317915
0.08775404628366232
0.08763109970139339
0.08705634495476261
0.08725307956803591
0.08783227255335077
0.0882420110842213
0.08814351197099313
0.08805070978589356
0.08801238052314148
0.08790177844231949
0.08796306896489113
0.08820627681910992
0.08894758883630857
0.08943475875537843
0.08960177452070639
0.09012225460028275
0.09050582974916324
0.09091736185131595
0.091349471390713
0.09118880993919447
0.09164007724262774
0.09218729787506164
0.09173658616608009
0.09208949104882777
0.09225593222305178
0.09193369395798072
0.09167083496227861
0.09247490079840645
0.09303804636467249
0.09252856449922547
0.09159278043312952
0.09035351833561435
0.08984590981155634
0.08982941217720508
0.09026634758105502
0.09039669058285654
0.09035728139802814
0.09126160133630037
0.09218686625827104
0.0923003185307607
0.09257124797673896
0.09318664850201458
0.09350524451816454
0.09273047997849063
0.09181147323688492
0.09159332989482209
0.09189538655336946
0.09193186186952516
0.0920621286216192
0.09229102761717513
0.0919128373498097
0.09229657050222158
0.09294452673988417
0.09329636828508228
0.09351697828620673
0.09401029661530629
0.09383367370115593
0.0931540334946476
0.09327964616706595
0.09340995366452262
0.0931968030333519
0.09291730559663847
0.09225795640842989
0.09147392326267437
0.0910125117120333
0.09133107350906357
0.09082902470370754
0.09015187148936094
0.09036867163376883
0.08986915136920288
0.08951270274352283
0.08952870986890048
0.08959233592730015
0.08978797413641587
0.08973279566736891
0.08930268767056987
0.0892726561310701
0.08823862516554072
0.08658042071852833
0.08550496917683631
0.08527856007451191
0.08524648550665007
0.08517643484519795
0.08492812131764367
0.08479770022677258
0.08465370097896084
0.08450538476696239
0.08446436383295804
0.0848403976438567
0.08556078086607158
0.08568027216242627
0.08488468774594367
0.08506075294222683
0.08490496327169239
0.08348678658483549
0.08255494760349393
0.08212064596125856
0.08044653478777036
0.07938822155818342
0.07970633484655991
0.0803042019228451
0.08015612031565979
0.0803865152481012
0.08081006388645619
0.08048398044425994
0.08044955215184019
0.0809519572975114
0.08121558796847239
0.08114756558556109
0.08126798297278583
0.08118959094863384
0.08112601784756407
0.08063695142278447
0.07965807628817856
0.07946801968617365
0.07974032955011352
0.0803275199700147
0.08121866076253355
0.08145264973165467
0.08105924977688118
0.08068593789823353
0.08063707064371556
0.08061227030586451
0.08067019030684605
0.08063650772208347
0.08075442232191563
0.08055885987821966
0.08012782133882865
0.07974036193219945
0.07955984452739358
0.0793334212549962
0.07916162185836584
0.07916853986913339
0.07930723622674123
0.07966055564815179
0.07995174642885104
0.0798127210768871
0.07873208292061463
0.0777999302209355
0.07783049530116841
0.07719775150995702
0.07666511848568916
0.07667072131764144
0.07649211958050728
0.07619856960140169
0.07665605795569717
0.07675482831895351
0.07620275194523857
0.07611691768979653
0.07617710986407474
0.07604481044225395
0.07628762630280107
0.07612614223035052
0.07616752715082839
0.07592656476888805
0.07546980194048956
0.07360381720587611
0.07190749603323639
0.07198012059554458
0.07165325614856556
0.07072714037029072
0.07018344088690355
0.07005764688830823
0.07071790496818721
0.07110603043111041
0.07120497760362923
0.07181412894977257
0.07192081489833071
0.07148568380391225
0.0720151893980801
0.07366313808830455
0.07451360653154553
0.07399029537336901
0.07394438652554527
0.07359744936460628
0.07334387746173889
0.07407804030925036
0.0752779211406596
0.07621793929254636
0.07598161045461893
0.07616916874656454
0.07635922015178949
0.07660138603299856
0.07656044208211825
0.07660922580398619
0.07670268441084772
0.07666934692300856
0.07634228785755112
0.0756158463144675
0.07532379747368395
0.07529394081560895
0.0753268737019971
0.0753118748497218
0.0753140252106823
0.07546698596794159
0.07565523193217814
0.07569352150894701
0.07548351053381339
0.07525156614836305
0.07522895560599864
0.07534823326161132
0.07553071114467456
0.07596824576845393
0.07556811059126631
0.07588515108916909
0.07664333110908046
0.07683136736974121
0.07701246942393482
0.07728789969813078
0.07712984352372587
0.07714364633429796
0.07660395578714088
0.07553543464280665
0.07506806878373026
0.07472525246441364
0.07418623098405078
0.07392875618534163
0.07397160857683048
0.07388668536907061
0.0738748551835306
0.07343600820051506
0.07300414771540091
0.07345905067166314
0.07373718233080581
0.07366004588780925
0.073256270873826
0.07338487318716944
0.07281364823691547
0.07208754346007482
0.07194164685439318
0.07174308549147099
0.07189376419177279
0.07192273363238201
0.071999009270221
0.07152490387205035
0.0718137766723521
0.07257520010694861
0.07198332398198545
0.0710415755934082
0.07158501949859783
0.07187630481086671
0.07147168331081048
0.07095791707746685
0.07081612180918455
0.07071528449188919
0.07044753178488464
0.07054111689329147
0.07153263383312151
0.07226181147852913
0.07204815746750683
0.07245913746301084
0.07251958061009646
0.072132684183307
0.07216842813184485
0.07231889326591044
0.07157932045403868
0.0713548214524053
0.07212905708234757
0.07262488563777879
0.07293709601275623
0.07305443486897274
0.07305139674572274
0.07296288038836792
0.07337795317405835
0.0742083949316293
0.07505018448922783
0.07545249693328515
0.0752770150033757
0.07538134271046147
0.07605234194081277
0.07681522928876802
0.07680553273763507
0.07650840565795079
0.07657035326818004
0.07693890107097104
0.07707775463582948
0.07703336916631087
0.0777214362914674
0.0780649963929318
0.07823305908823386
0.07832608444383368
0.07844046143116429
0.07859428474446759
0.07867594252340496
0.0783335919235833
0.0780320374458097
0.07799839854706078
0.07793877177406103
0.0778481075912714
0.07755855112569407
0.07725257847690954
0.07738445516210049
0.07698828036198392
0.0765672756638378
0.07673365396214649
0.07710480634821579
0.07720430044922978
0.07741028428077698
0.0770963127235882
0.07699744891142472
0.0773865327402018
0.07791442760266364
0.07751757620135322
0.07682148670544847
0.07668411042541265
0.07638786640949548
0.07626627065008507
0.07635425213258713
0.076296397424303
0.07620863993186504
0.07642906651366502
0.07660392337245867
0.07675352758029476
0.0772513159061782
0.07726987388217822
0.0771758439252153
0.07708181736059487
0.07671354675199836
0.07670233623590321
0.0768357755872421
0.07666489369003102
0.07662479358492419
0.07687430795282126
0.07707156830001623
0.0768814747268334
0.07703137278556824
0.0774993876926601
0.07786303727189078
0.07805779551155866
0.07775045574642718
0.07736915927380324
0.07719439155422152
0.07760503435041756
0.07736434035003185
0.0762167795933783
0.07594337883172557
0.07638455024687574
0.07663242805516347
0.0766455541853793
0.07678943366045132
0.07695493122329936
0.0772740274760872
0.07734783061547205
0.07722952607786283
0.07715280222473667
0.076733655158896
0.07640079681994394
0.07640902535989881
0.07674235282698647
0.07699522745097057
0.0766843768930994
0.07639322007074952
0.07637622346635908
0.07656474868534133
0.07696189341600984
0.07743378468323499
0.07748354445211589
0.07762527178507299
0.07777323285117746
0.07807111951056868
0.07844503886532038
0.0783434126060456
0.07878217281773686
0.07886254630284384
0.07851547389291227
0.0787404089444317
0.07850871184607967
0.07835212379693984
0.07833930900320411
0.07764526809565724
0.07623562765773385
0.07536176937399432
0.07553496901644394
0.07555547047173604
0.07549937605159357
0.07558183669112623
0.07484076488995925
0.07352478076005355
0.07271847557742149
0.07295005586929619
0.07268696203827858
0.07230682026594877
0.07199866366107016
0.07208499567350372
0.07208751915488393
0.0718506870791316
0.0721780279208906
0.07248152188258246
0.07264509378001094
0.07265947846928611
0.07259010292822494
0.07256671469891444
0.07264186795568094
0.07334665514295921
0.07418770995922387
0.07425010071368889
0.07479588072746993
0.07544452883535996
0.07541686919052154
0.07548659043386578
0.07551315798424184
0.07508020721375942
0.07481027155881748
0.07512198070064187
0.07455783453769982
0.07364981778664514
0.0733184004132636
0.07318239195039496
0.07338091657496988
0.07443148973863573
0.07580828258534894
0.07684659332269803
0.07685399058274925
0.07786019207444042
0.07907374878181145
0.07924185779411345
0.07989828990073874
0.0800419582799077
0.07970384066924453
0.08031432991148904
0.0806495896819979
0.08079331379150972
0.08078202839475125
0.08054181972751394
0.08009648238774389
0.08040553370723501
0.08068889601388946
0.08049212358426303
0.08043947002617642
0.08147788424277679
0.08295617281692103
0.08339640038087964
0.08338213061681017
0.08336378024425357
0.08330537223257124
0.08253161654807627
0.08166005184175447
0.08145554812857882
0.08164824208710343
0.0811199736292474
0.08056836418807506
0.08028115327237174
0.08027422099141404
0.08043074160814286
0.08060580351157114
0.08088002001168207
0.08091611288255081
0.08031979732448236
0.07947305137990042
0.07940733209252357
0.07920861252816394
0.07949691594578326
0.0796657316526398
0.07916449640877544
0.0790929445810616
0.07923088734736666
0.07906858168542386
0.07833423810545355
0.0776288238260895
0.07708558165701106
0.07656714994227513
0.07627279759850353
0.07634202257031575
0.07633576284395531
0.07652855050982907
0.07623189598089083
0.07544697199715301
0.07551524481270462
0.07523505541263148
0.07485927320551128
0.07434927557827904
0.07431296340655535
0.07481933855917305
0.07504014278762043
0.07480565584264695
0.07491040908731521
0.0755875028972514
0.0752425000932999
0.075682501278352
0.07707952169002966
0.07819065018789843
0.07848453527782112
0.07842590486397967
0.07839047895744443
0.07859586339676752
0.07865959502290934
0.07839947847416624
0.07858092799317092
0.07836064056260511
0.07797754684695973
0.07817181432852521
0.07850645646452904
0.07841465117642656
0.07854388769483193
0.07830901324981823
0.0784078855579719
0.07860754491761326
0.07842517554527148
0.07853727213107049
0.07829555791104212
0.07810839962214232
0.07853466234868392
0.0789008677424863
0.0793236189847812
0.0797582379495725
0.08006646083435044
0.07984583592275157
0.07953872065525502
0.07987333146389573
0.0803914675116539
0.08048187649343162
0.07997857042821124
0.07946867109276354
0.07878123671049252
0.07854207572992891
0.07795852974755689
0.07694410269847139
0.07619102780940011
0.07582910675089806
0.07561022288398817
0.07538213845808059
0.07583370604319498
0.07648375739343465
0.07692811641842127
0.07716711075510829
0.07731257237726823
0.078453011023812
0.07964175002649426
0.07948685057461262
0.08111932930536568
0.08257977860746905
0.0831755966390483
0.08314143216935918
0.08275108890607953
0.08316849979339168
0.08324799025431276
0.083082252854947
0.0830578454514034
0.08311652132309973
0.08298399411374703
0.08288062834180891
0.08262887429445982
0.0823949050041847
0.08254894544836133
0.08266894046450034
0.08248120033182203
0.08258818516042084
0.08277583369752392
0.08235318042337894
0.08193828726420178
0.08217060833238066
0.0824112063110806
0.08229463862720877
0.08251121525187045
0.0824249410815537
0.08201416036579758
0.08202823259169235
0.08213458225131035
0.08197687013773247
0.08154812406050041
0.08130173175828531
0.08128029125975444
0.08090082593495027
0.0807138469745405
0.08096811282681302
0.08042585383169353
0.08009390743682161
0.08014727077446877
0.08015893458854408
0.08017606018576771
0.08016106156632304
0.0799629237060435
0.07971918981056661
0.07992564280517399
0.07995838342467324
0.08020510577829555
0.08032087417552247
0.08048120690044015
0.08062144159106538
0.08075229921611025
0.0812227859441191
0.08137036341009661
0.0812285163672641
0.0811032221466303
0.08127731164451689
0.0820536950766109
0.08218678175006061
0.08176557303871959
0.0819513040361926
0.08217603688361123
0.08219533189898356
0.082168851015158
0.08201857173349708
0.08150192335015163
0.08112036482430994
0.08144003992434591
0.0809827525075525
0.0802544773905538
0.08020322591299191
0.08020360036520287
0.07994878147961572
0.0803654399397783
0.08045156074222178
0.08023415418574587
0.08005586842773482
0.0799246834171936
0.0806848327559419
0.08139173108153046
0.08182495869230479
0.0814063382265158
0.0802638361416757
0.08063164195511491
0.08228647609706968
0.08210004900814966
0.08099942331667989
0.08151774535188451
0.08149348192382604
0.08113468654220923
0.08137922702822835
0.08184969338821248
0.08250499720219523
0.08283229720313103
0.08253569555236026
0.08204544628737494
0.08183363035088405
0.08157297736499458
0.08104756653541699
0.08139616935281083
0.08191863738698885
0.08117633365793153
0.07975923608522863
0.07943469256861135
0.07991872104816139
0.08087076113093644
0.08162136473460123
0.08177441747393459
0.08281141090439632
0.08381877047009766
0.08405012676957994
0.08379574404330924
0.08383494294714183
0.08385138042038306
0.08383279487024993
0.083797523137182
0.08356008749920875
0.08346288462635129
0.08338799869874493
0.08327936676796525
0.0835225199512206
0.0835539667471312
0.0838902141340077
0.08416263191960752
0.08415061593055725
0.08422376550268382
0.08391228802502156
0.08377991637913511
0.08398099762853235
0.08387748245615512
0.08356776336673648
0.08342259082011878
0.08328836746048182
0.08315789441810921
0.08316335476003588
0.08282433594577014
0.08167343580396846
0.08082728954032063
0.08082559099420905
0.08049454116728157
0.08054447225760669
0.08006134779425338
0.08017157479654997
0.08039905643556267
0.08006005302537232
0.07961215833900497
0.07933519004145637
0.07887987327761949
0.0782683441019617
0.07800889076432213
0.07741587325232104
0.07602794786449522
0.07526219102554023
0.07570180558366701
0.0761216037068516
0.07606545665999874
0.07607472913572565
0.07621573037700728
0.07746672486653551
0.07922572575742379
0.08051592608215287
0.08068463128758595
0.0806841172114946
0.08058942934963852
0.08058067520381883
0.08039637520210817
0.08050645989365876
0.08042905894108117
0.08039712496567518
0.08055664512561635
0.08051398609299212
0.080218759146519
0.07946138590807095
0.07860374591080471
0.07866243755910546
0.07871638268232345
0.07834404479013755
0.07837817425839604
0.07886599789606408
0.07927523705642671
0.07928282336797565
0.07961072985548526
0.079974221449811
0.0801643718755804
0.0801073605264537
0.08035634399857372
0.08099317709682509
0.08141436763806269
0.08137313343584537
0.08157636169577018
0.0815465049748309
0.08155380909796804
0.0820570699730888
0.08205705646658316
0.081600049987901
0.08127045582048595
0.08127956136828289
0.08073031433159486
0.07928929636720568
0.07799453221494332
0.07796968606067821
0.07657409553881735
0.07497674292186275
0.07471726294606924
0.07498768301215022
0.07507135435240343
0.07500648542074487
0.07468116040574387
0.07426184146432206
0.07426069235894829
0.07499545329017565
0.07600141815841198
0.07652125367661938
0.07660445796092973
0.0766501284390688
0.07657728034537285
0.07643347036326303
0.07661961436271668
0.07652326821815222
0.07627676454838365
0.07639836471760646
0.07635671499418095
0.07617167931282892
0.07631610662909225
0.07702560542384163
0.07740692449500784
0.07737123596016318
0.07783060144865886
0.07844396607019007
0.07803023009561003
0.07793587535619735
0.07779438291443512
0.07829912766348571
0.07885268833022564
0.07897680309368298
0.07880787429632619
0.07874042277690023
0.0788543433812447
0.07913660670397803
0.07925205067032948
0.07938528939848766
0.07969257628777995
0.07953710212139413
0.07927421560976654
0.07913017102982849
0.07872851442312821
0.07873940694145859
0.07857996785780415
0.07856562502915039
0.07828427951550111
0.07803936910117044
0.07779788181651384
0.07722191731678323
0.07687918793642894
0.07693683592835442
0.07688526063458995
0.07659670541761443
0.07611482889624313
0.07597577951382846
0.07609333500964567
0.07573905390454456
0.07571014884393662
0.07593380659585819
0.07614121321588754
0.07643826715881005
0.07653992919949815
0.07630232801428065
0.07589604098815471
0.0759050718252547
0.0762864642497152
0.07642175424844026
0.07620341124478727
0.07640330447116866
0.07596324155339972
0.07583286211360246
0.0756121448869817
0.07515131840482354
0.0749751401739195
0.07420906152809038
0.07348731866572052
0.07312975691165775
0.07340328749036416
0.07396013367688284
0.07290776303270832
0.07123616612516344
0.07057147881947458
0.07055916091427207
0.06983967527281493
0.06910792883485556
0.0690512645849958
0.06923507999628782
0.06889077784726397
0.06849309698678553
0.06835062305442989
0.06823815725045279
0.06867995519191027
0.06968315398087725
0.07072625515749678
0.07176899462705479
0.07202298430725933
0.07167509271064773
0.07145564042963087
0.07152831454295665
0.07140877555822954
0.07086915464373306
0.07001895853085444
0.06941294013522566
0.0694387211301364
0.06831533659016714
0.06691306683002039
0.0662825548183173
0.06618443059036508
0.06616773694287986
0.06617278720019386
0.06657410190440714
0.06708297573029995
0.06732873070286587
0.06718417702242732
0.06700765549438074
0.06682563437148929
0.06664519926533102
0.06672447467921301
0.06622297349153086
0.06506736687384546
0.06438413843279704
0.06424794891383499
0.0641360565298237
0.06412668084958568
0.06409135730471462
0.06434346832102164
0.06473661437863484
0.06512546118814498
0.0656000417470932
0.06569557608803735
0.06567716705380007
0.06609128445386886
0.06634862502571195
0.06644473374588415
0.06651360526215284
0.06657103066099808
0.06671517350478098
0.06739312732359394
0.06792502307565883
0.06762503817444668
0.06842660477152095
0.06976912091253325
0.07032138548092917
0.07016762669663876
0.06992479852633551
0.06992840542923659
0.0699557308619842
0.06990530812414363
0.06962320589227602
0.06916254916228354
0.06913970380090177
0.06974891987629235
0.07003393094288185
0.06980735565535724
0.06910061172908172
0.06837992682820186
0.06828701996942982
0.06878181179985404
0.06849985437933355
0.06861456831917166
0.06855030698236078
0.06880880322074517
0.06898593434831128
0.0694661091431044
0.06932059115963057
0.0694916541222483
0.06990512731717899
0.06987803691998123
0.0698570197308436
0.06977749278070405
0.06950786520494148
0.06966915626544505
0.06992803345201537
0.06960285487584769
0.06915937843034044
0.06892447527730837
0.06875646370695904
0.06798592172563075
0.0672936937934719
0.06713545295409858
0.06732627670746297
0.0674341082223691
0.06698063662275672
0.06649681916227564
0.06665300292661414
0.06680660776793956
0.06699906890047715
0.06701979987556114
0.06687437290325761
0.06643663386115804
0.06602629795204848
0.06583724839845673
0.0658301780396141
0.06601568354060873
0.06594046464422718
0.06574737361166626
0.06575998005690054
0.06586218832293525
0.06612693422008306
0.06554595790570601
0.06498263439396396
0.06541714807972313
0.06578677225392311
0.06593491171486676
0.06592617789749056
0.06612060795305297
0.06615859672427177
0.0661674301349558
0.06641281507210806
0.06684985418338328
0.06709446778288111
0.06729037549579515
0.06755889125633985
0.0674313308368437
0.0678866630117409
0.06898774452274666
0.06965022361371666
0.06974822539603337
0.06990048937266692
0.06999263088218868
0.06970054557546973
0.06903425655560567
0.06869783822912723
0.0682970893708989
0.06796690992079675
0.06837468313984572
0.06822402757126839
0.0681996041839011
0.0679554133163765
0.0676670347340405
0.06737675459356979
0.06725279351463541
0.06743345705326646
0.06737934183096513
0.06707811269443482
0.06699733707355335
0.06705175207462162
0.06709213573485613
0.06718706358689815
0.06812183612724766
0.06859875827794895
0.06923382964450867
0.07007487537106499
0.07004357162630186
0.06994122496806085
0.07015255777165294
0.07070007318630815
0.07114221177529544
0.07121281346771866
0.07120974587276578
0.07121220888337121
0.07130095418542623
0.07137618044158443
0.0712571725086309
0.07094970541540534
0.07083394844317809
0.0708429980603978
0.07064814581070095
0.07052028657868505
0.07058983296854421
0.07079182284418493
0.07089746336918325
0.07068321615923195
0.07071996393846348
0.0710546544007957
0.07124878590228036
0.0716067931149155
0.07216623710002751
0.07235836917767301
0.07233454947592691
0.0724903259659186
0.07270087661920116
0.07281856957823038
0.07282151124905795
0.07299336011288687
0.07327906149905175
0.07324570128694177
0.07246263881213963
0.07177504118997603
0.07133594436571002
0.07167009211378172
0.07147727824514732
0.0720681397547014
0.07306461237370968
0.07380323922727257
0.07395960576599464
0.0734811016288586
0.07384066477883607
0.07462064654566347
0.07474596843821928
0.07492552089737728
0.07456823778571561
0.07393403785768897
0.07305062609957531
0.07224546779412776
0.0720779553707689
0.07194422385189682
0.07220162791432813
0.07228807851439342
0.07218884920235723
0.07206779034575447
0.07192884611431509
0.07183388994308189
0.07170895732473583
0.07183147188741713
0.07196935267653316
0.07194213106762617
0.07208288179012015
0.07188889273907989
0.07191778176929801
0.07163973338901997
0.07141352685866878
0.07135996360797435
0.07148959727259353
0.07177109580021351
0.07187228468479588
0.07172628477681428
0.0718611715361476
0.07235083532519639
0.07305135013535619
0.07345644744345918
0.07350809532916174
0.07345844890689478
0.07358417456969618
0.07354287676047534
0.07355142818531021
0.07398524254793301
0.07413594726240262
0.0739838273706846
0.07386266173096373
0.07380123214330524
0.07373330059694126
0.07395663325674832
0.07415976100601256
0.07415544208372012
0.07435033180052414
0.07434779888484627
0.0736624793871306
0.07343530389945954
0.07404474577866495
0.0730360619048588
0.07238743123831227
0.07211300002411009
0.07221914703492076
0.07240457714535296
0.07245494903298094
0.07248660502256826
0.07254550512181596
0.07294012584257871
0.07263495107647032
0.07231657003983855
0.07217539569130167
0.07199493123218417
0.07214625291759148
0.07191581713734195
0.07070603135041892
0.06945749754318968
0.06896829647943377
0.0687975218007341
0.06865831276634708
0.06919671218842267
0.06929981213063002
0.06919379400787876
0.06858309277100488
0.06850083721335977
0.06818729674676433
0.0683137237932533
0.06868701339233667
0.06869526464724914
0.06863945527235046
0.06874456136720256
0.06863416336942464
0.0684340159362182
0.06884881862904876
0.06966208948986605
0.07027187348576262
0.0702243646606803
0.0704541707294993
0.07102279019076377
0.07146774410968647
0.07128966114949435
0.07117488755146041
0.0712303759623319
0.07142301005544141
0.07137742828577757
0.07110685653518885
0.07108746314188466
0.07136301407124847
0.07141669671284034
0.07127951502567158
0.07137133455602453
0.07171848601195961
0.07223072664346546
0.0726969574438408
0.07261584497988224
0.07288416236639023
0.07341079155914486
0.07361480701714754
0.07394332735799253
0.0742796503053978
0.07447847086004913
0.07479731369763613
0.07472318969201297
0.07453935409896076
0.07458733181934804
0.07457048263400794
0.07486430485267193
0.07516903048846871
0.07500162655953319
0.07446772946510465
0.07477318381424994
0.07518694789148866
0.0754444674262777
0.07613724051043391
0.07633107282686978
0.07544812900014222
0.0754849860817194
0.07696062462870032
0.07807205125223846
0.0782364634750411
0.07804194148164242
0.07808379576541484
0.07869840273167938
0.07914680643007159
0.07893022299278528
0.07847779449541122
0.07836175450589508
0.07864631704986096
0.07871144504286348
0.07864046074450017
0.07880833497736603
0.0793794115446508
0.07986212459858506
0.08022901560179889
0.07994504827540368
0.08001724332105369
0.08022161816246808
0.08022587511688471
0.08045557364821435
0.08002444165758789
0.07969810621347279
0.07949032469186931
0.07922644416801632
0.07946698690298945
0.0794804581394419
0.07953586915042252
0.07965811136644334
0.07997223392594606
0.08050554409157484
0.08064747092779725
0.08175728941336274
0.08393525132909417
0.0856006466364488
0.08596811369992792
0.0860168291023001
0.08599570211954415
0.08629740541800857
0.08637425113003701
0.08663448554463685
0.08696698808576912
0.08730391988530756
0.08772831864655017
0.08791439348831773
0.08819303737953305
0.08858274841215462
0.08864344387315214
0.08811188087332994
0.0879456387553364
0.08806949447374791
0.08817302634008228
0.08812558268196881
0.08812621811870486
0.08801030935719609
0.08851629584096372
0.08906847139820456
0.08890487982425839
0.08847632205113769
0.08841421037912368
0.08835115881636739
0.0884071075823158
0.08834648947697132
0.0887229074165225
0.0882291809655726
0.0875236226245761
0.08729105772450567
0.08719043273478747
0.0873551644012332
0.08685390717815608
0.08566578224301338
0.08518530750181526
0.08508117231540382
0.08554711312521249
0.086766202095896
0.08763419825583696
0.08773563266266138
0.08864684393629432
0.08970626534428447
0.0895859436551109
0.08980366575531662
0.09045386978890747
0.09096539412159473
0.0912578886281699
0.09152546567376703
0.09193331511691212
0.09188958762679249
0.09182512409053743
0.09213147118221969
0.09216262616217136
0.09216306970920414
0.09203652740921825
0.09211496974807233
0.09210594927426427
0.09196150573901832
0.09215176960453392
0.09218261098489165
0.09221457425970585
0.09251162970904261
0.09268953516613693
0.09242340832948685
0.09176349385641515
0.09142360700294376
0.09146738290321083
0.09211744461208582
0.09259187004994601
0.09250829226803034
0.09329469583928585
0.0926186907151714
0.09346294741611928
0.09490226400550456
0.09562477272469551
0.09547901205252857
0.09528310279827565
0.09497666270937771
0.09486776997800916
0.09492230121046305
0.0949622746789828
0.09518844428006559
0.09582652628887445
0.09543176043778658
0.09490992854349316
0.09544953067786992
0.09532352820038796
0.09555110584013164
0.09575509326998144
0.09578836698085069
0.09613270495086908
0.09611870594788342
0.09598930810112506
0.09546002444345504
0.09546706918627024
0.09544459048192948
0.09496067717671394
0.0951362081291154
0.09551686854567379
0.09548381991684436
0.09578234932385385
0.09608845147304237
0.09583829309791327
0.0959849144751206
0.09568703119177371
0.09522575169801711
0.09512407929636538
0.0954054294526577
0.09511707795318217
0.09536136615555733
0.09565459196455776
0.09511962943244726
0.09524706645868719
0.0958655828749761
0.0965789288142696
0.09704987301491201
0.09685527135152369
0.09697247262578458
0.09748141960706562
0.09726495198439807
0.09679740902036428
0.09673262848053127
0.09660669911187142
0.09604113986250012
0.09598143673036247
0.0964153095241636
0.09641993792727589
0.09651986337732524
0.09756647390313447
0.09907356437761336
0.1000882291747257
0.10012919188942761
0.09973462297581136
0.09932366594206542
0.09935712303500623
0.0994077626708895
0.09903976315632462
0.09832036594860255
0.09777216645888984
0.0980445658043027
0.09835017219185829
0.09880935943685472
0.09916227553039789
0.09866511458996684
0.09902264001313597
0.09997641031164677
0.10055605966597796
0.1012445550179109
0.10191303726751358
0.10210115616675466
0.10225523781497031
0.10227338068187236
0.10196131195873022
0.1013597642723471
0.10194479861762375
0.10190866540651769
0.10126544368918985
0.1011424206616357
0.10087064189370722
0.10055854354053735
0.10077823108062148
0.10011516373604536
0.09936390524264425
0.09847626307047903
0.09795286249369382
0.09828725217375904
0.098528521056287
0.09805072054732591
0.09776446871459483
0.09819651708006859
0.09843833787366747
0.09857868938706815
0.09857712859753519
0.09820043776649982
0.0979385954607278
0.09767738106194884
0.09696114167105406
0.09667677194811404
0.09744377608411015
0.09894803512841463
0.09949011731427163
0.09915895935148
0.09953101022168993
0.09997288460377604
0.10016515951603651
0.10036208285484463
0.10008271615486591
0.09970900933258235
0.09957195209804923
0.09946307660546154
0.09923347018193454
0.098583555216901
0.09777480693534017
0.09709028858691454
0.09738653365522623
0.09736983063165099
0.09693765664473177
0.09697354651521892
0.0974580430984497
0.09774840564932674
0.09913320565596223
0.10010009109042585
0.10082773746922612
0.10116789980791509
0.10120454476680607
0.1006910761864856
0.10005324774887413
0.10052262391895056
0.1010753853013739
0.10101229361258447
0.10059779138769954
0.10083339921198785
0.10096106126438827
0.10060412171296776
0.10085129328537733
0.10098853744100779
0.10088157712481916
0.10140739873982967
0.10088872896973043
0.1005230686860159
0.10039776884019375
0.10025232947897166
0.10028241137973964
0.10050879968795925
0.10084175521973521
0.10083655364345759
0.10074760075192898
0.10056988435797393
0.10075909438543022
0.10117215087171644
0.10153331035748124
0.10138886484317482
0.10084547708276659
0.10091080931946635
0.10109462739899755
0.1011278183106333
0.10136254362296312
0.10069600632879883
0.09990785490255803
0.09957332995720208
0.09839787263888866
0.09779622748494149
0.09823285834863782
0.09782476173713803
0.09766425742767751
0.09711179831065238
0.09794736631214619
0.09863887700252234
0.09834753883071244
0.0986653804127127
0.09895728138275445
0.0998156906105578
0.10017760581336915
0.10073088822420687
0.10170189755037427
0.10222751912195235
0.10238206749781967
0.10237949034199119
0.10264740996062756
0.10291778814978897
0.10263884815387428
0.10297492226585746
0.10304162160493434
0.10292893464211375
0.10322697029914707
0.10434644544497132
0.10574543530121445
0.10564261545892804
0.10550298916175961
0.10650867722928524
0.1061981530347839
0.10646668125875294
0.10546045070048421
0.1043743477994576
0.10399956807959825
0.10432783060707151
0.10517387051600963
0.10608563811983913
0.1063808576343581
0.10646599472034722
0.10695846246089787
0.10699002691544593
0.10649707809556276
0.10690465748310089
0.10740470728371293
0.10781489898916334
0.10831822169013322
0.10828652714379132
0.10840685037896038
0.10993174626026303
0.11173674305900931
0.11283399431034923
0.11348849614150822
0.1154683973826468
0.11683998273685575
0.11699114453978837
0.11719504067674279
0.11685979164205491
0.11655870969872922
0.11724804960656911
0.11774851382244378
0.11727320636622608
0.11826637120451779
0.11917582052759826
0.11928725594189019
0.11934286180883646
0.11928568827454
0.11913500335533173
0.11923124778084457
0.11875261191278697
0.11863830484915525
0.1191229287488386
0.11921782447956503
0.11920298938173801
0.11858672264963388
0.11861000987235457
0.11995134266559035
0.12124779891222716
0.12121062861289829
0.1204096432728693
0.12046878286171704
0.12095581681933254
0.12141424625646323
0.1215213635377586
0.12222470355220139
0.12346342055127024
0.12429194235242903
0.12394067093264312
0.1233345952583477
0.12254167506471277
0.1222722543310374
0.12269706689286977
0.12312483517453074
0.12325535535346717
0.12337356870993972
0.12372989158611744
0.1236006348952651
0.12473968323785811
0.12661171019542963
0.12753760270308703
0.12692668216768652
0.12701758035924285
0.12758359744679182
0.12907441023737193
0.13003167734481394
0.13016914849169553
0.12933569735847414
0.12819636630360037
0.12777738279663026
0.12807181519456207
0.12840191684197635
0.12835938476957381
0.12786496124230326
0.12797783971298485
0.12786780951544643
0.12767567434813828
0.12792934061959385
0.12762448290362954
0.1273049277579412
0.12736175522673876
0.1275798006542027
0.12750501848291607
0.1269688612408936
0.1270538598531857
0.12713982541579752
0.12666342028882355
0.12634893335867672
0.12629606078844519
0.12628434546291828
0.12578419752884656
0.12556931214872746
0.125413358961232
0.12521778066642583
0.12532077178359033
0.1256558365235105
0.12596558136865496
0.12589462486095726
0.12560649768915028
0.12473774371668696
0.1233219708641991
0.12283062379807234
0.12324833940714598
0.12255513093899935
0.12203926561400294
0.12166410493198782
0.12166392699349672
0.12212808832060545
0.12217240733094513
0.12326370204798877
0.12454286734573543
0.12485740884672851
0.12522274598944932
0.12580035117454827
0.12614740330725907
0.1256919001787901
0.12481751865707338
0.12298328724224121
0.12200924079865218
0.12231988473329693
0.12272245873231441
0.12158050890546292
0.12042482365854085
0.11980341111775487
0.12001169386785478
0.1200446517020464
0.12013461694587022
0.12110875628888607
0.12140374802518636
0.12073397207539528
0.12025571329053492
0.12048166345339269
0.12019673723261803
0.11964650423265993
0.1202927043568343
0.12173195349983872
0.12338861210737377
0.12470325804315507
0.12477760962676257
0.12534612216521054
0.12669272556435318
0.12879597285296768
0.13086788105778396
0.13195392641238868
0.13186117166187614
0.13179475916083902
0.13215185689739883
0.13256198849529027
0.13274635170586407
0.13285923829767854
0.13331448954064398
0.13406461853999643
0.1345899300230667
0.134804656826891
0.1352497965283692
0.1356156558357179
0.1358732567774132
0.135160025046207
0.13443369580432774
0.13447256971150637
0.13463662170805038
0.13464748415164648
0.13463467580731958
0.13467118637170641
0.13532106700353325
0.13522586412727833
0.1352015548106283
0.1342521602474153
0.1332482843939215
0.13325305320788175
0.132786181634292
0.13252713131252677
0.13152963064145295
0.13100923961028457
0.1305405322276056
0.13005522444378584
0.12973575732205064
0.12917523672338574
0.1291611959738657
0.1290228086709976
0.1293035189108923
0.1299613109230995
0.129441245123744
0.12955981473904102
0.12990046062972396
0.12961130197625606
0.12871831566095351
0.12742476464714855
0.12699111700989307
0.12674158610403538
0.12606891694944353
0.12560288419481366
0.12521321111824363
0.12521606314461678
0.12511211382225157
0.12500328602269292
0.12476004834286869
0.12370299441739917
0.1229833588236943
0.12289198623038829
0.1233170529967174
0.12459306796081364
0.12625094210729004
0.12782149850856514
0.12864531450904906
0.1285963111836463
0.12883320047985763
0.13046889853198082
0.13235573773737996
0.13344025381840766
0.13326658599078656
0.13286689413245767
0.1325191851146519
0.1321970472857356
0.13075283772777765
0.12928015174344182
0.12958131401333958
0.13156018658075483
0.13418105124961585
0.13633715039584784
0.1378486856352538
0.13937388426158578
0.1405214213952422
0.14073255150578917
0.14258086232468486
0.14480512391310185
0.1446496620029211
0.14630984873510897
0.14625478480476886
0.14892927154898644
0.1513272413657978
0.15109759987797589
0.15172973944339901
0.15648828551638871
0.1627484344318509
0.16642250895034522
0.16636349639389664
0.165977207259275
0.16699982304126024
0.1667595399171114
0.17099407360423358
0.17743558796588332
0.18174471472389997
0.18261772013269365
0.18249335389584304
0.18140942862257362
0.18005886999890208
0.17919629712589086
0.1792004641517997
0.18021223270799966
0.1836744031542912
0.1869851561728865
0.1863840453000739
0.19055559061001986
0.19748528581578284
0.20402933623176067
0.2080415307963267
0.20960633208975196
0.20985174026340248
0.2120839739451185
0.21621237335726617
0.2200636884663254
0.22015410189982504
0.21874356389511376
0.2178955246275291
0.21831841385923326
0.21939625037368388
0.22047132500447333
0.22041828921996057
0.2213472201814875
0.22342551580164582
0.22597784734796733
0.22881986721418798
0.23198185756336898
0.23396310138516127
0.23342822972219437
0.23486816799268126
0.23700713032856582
0.23877516412641853
0.23994948391336948
0.24054862135089933
0.2409669598005712
0.24113208005204798
0.241568172685802
0.2427102972054854
0.24385664029046894
0.24409781246446072
0.2466227891482413
0.25035966764204204
0.2534417189098895
0.255116927055642
0.25516277918592095
0.2561226323945448
0.2579388092877343
0.2603589578624815
0.26251578180119395
0.26394874753430486
0.265434383302927
0.2673348466772586
0.26994177273940295
0.2724263502145186
0.2728250149311498
0.27312645406927916
0.27426261809654534
0.27494060890283434
0.27592981977853925
0.2771532244607806
0.2778645914699882
0.2784692958462983
0.27762214208487423
0.27629579591099174
0.27620364201720804
0.27605477537959816
0.27641611590050164
0.27695130683016034
0.2774989859014749
0.2777018863754347
0.27827446145471185
0.27758062138687817
0.27682583147194234
0.2774668848514557
0.2789053046796471
0.28001259004231543
0.280642028125003
0.2809971879795194
0.28248305127955975
0.2843378048809245
0.28420799191109836
0.2833135678851977
0.2840422006137669
0.28541869467590003
0.287137360596098
0.28947139089461416
0.29152056691702455
0.291728359288536
0.2900984644982964
0.2888132910663262
0.2878939289553091
0.28778284473810345
0.2878949058894068
0.2868868300644681
0.2849645486008376
0.2831827091472223
0.282510630665347
0.28280847527552394
0.2828731009690091
0.2827053967723623
0.28266867545433344
0.28290620524436233
0.282259328449145
0.281581292245537
0.28167168140877036
0.2827533262595534
0.28363730522803965
0.28327951960265635
0.28264240534976126
0.28241520260460673
0.28289008236955854
0.28347514022141695
0.2838246352225542
0.2845447810785845
0.2853611548244953
0.2858203898090869
0.28583364316262305
0.2856275015557185
0.28567053682170807
0.2860763185610995
0.28593289556447415
0.28585178955458107
0.2858531060582027
0.28617194226011633
0.2867544164089486
0.287583863530308
0.2886629279470071
0.2895049806917086
0.2898234038753435
0.2899832237139344
0.2903087842557579
0.2902722398471087
0.29006592731922864
0.2895674349134788
0.28958822682499885
0.2902958344528452
0.2906565553555265
0.29127506115939467
0.29232650017365813
0.2928863423317671
0.2932498984457925
0.29336723309010265
0.29296833239030096
0.2929079426452518
0.29336843274533747
0.2943210788583383
0.294851407604292
0.2952192287147045
0.2956736408825964
0.2961782267782837
0.2963669803971425
0.2959264467144385
0.29581954013090583
0.2956668607564643
0.2943947100453079
0.29312233889009803
0.2924227611161768
0.29189343157224357
0.2920051925443113
0.29144740459043533
0.2890688149351627
0.2866559160966426
0.2851900680549443
0.2839504534425214
0.28255598321557046
0.28221163552254436
0.2825799142057076
0.28283859345130624
0.2835081683192402
0.28337604346685114
0.2816474150167778
0.27908136716112497
0.2765813603950664
0.27451602498535066
0.2728093462018296
0.2725417442852631
0.27231060761027037
0.2703638645913452
0.268774478728883
0.26939778903499245
0.2679293685220182
0.2678257299028337
0.2651544057624415
0.2630115709733218
0.26339681522455066
0.2628572325780988
0.25822488552425055
0.2520844700979069
0.24892348376102746
0.2486749887280166
0.24769941763021053
0.24502339834813028
0.24453427170868963
0.24068577645812184
0.2344426582287997
0.23035116596147417
0.2296368797076866
0.23047083568293603
0.23119943203870208
0.23144323456566782
0.2316246311692521
0.23170507963746786
0.2302319109486416
0.22629558159038424
0.22268781781662256
0.22324123369064183
0.21920434325933458
0.2127394981915131
0.20679087648168207
0.20325384389143436
0.20257538608275355
0.20132938378490509
0.19784561088774352
0.19358347759582104
0.1904699146747589
0.1897386156860739
0.190215611490421
0.19007748567033558
0.18846031746361405
0.18644538378808648
0.1853668307280168
0.18585311633069068
0.18513462032657116
0.18337948345579208
0.18041052070911973
0.1768404066003859
0.17411280414555222
0.1727886455692351
0.17348938858136534
0.17231002525892108
0.1704235915048048
0.1687510591978207
0.1674378066137433
0.16644284405279905
0.1656195267289877
0.16567519184667617
0.16540162819903345
0.16423609849996865
0.16333534521516413
0.16343865145929157
0.16100196259096264
0.1571579808415845
0.1539109337842092
0.1523797045275569
0.15268560823518784
0.1521064589638263
0.1506804834585637
0.14857962317764759
0.14652152050752193
0.14505135541316122
0.14367369644343853
0.14146086495835333
0.13862783945165574
0.13640611867420374
0.13610606274567544
0.13589021700434387
0.13535644001327454
0.13497853551991285
0.13426045242697002
0.13313628064934163
0.13209837419446557
0.1312601186800748
0.13081508170813322
0.13106158406008034
0.13117393489927054
0.1313737253146246
0.13093166294042022
0.13050980251748115
0.13037753155454992
0.13014772242400796
0.12967213658150287
0.12942818326409905
0.12904472516849638
0.12795903146266938
0.12671734012197702
0.12602786920499057
0.1258309221593663
0.12514505657367408
0.12342040691990405
0.12148170843254774
0.1204854035936296
0.12033367556985468
0.11940248344559222
0.11789081750437617
0.11597375964280218
0.11396383912302553
0.112326978915371
0.11170375615824014
0.11186768789310009
0.1112985130911693
0.11075587840285152
0.11029364099726081
0.10975393822416663
0.10933345328550786
0.10936495143454522
0.10958697556052358
0.1096235790848732
0.10961905635427684
0.10969337632879615
0.10954614241607487
0.10909432950429618
0.10868892757222057
0.1087262538727373
0.10815356090199202
0.10690450819209218
0.10551296951714903
0.10471222194377333
0.10459021363873035
0.10482970130164176
0.10490594985894859
0.10444217113312333
0.1036347447708249
0.10301227173302323
0.10241430202964694
0.10173049718607217
0.10117002893704921
0.100943064247258
0.10092821968719363
0.10088791641406715
0.10081809235736727
0.10083451343234628
0.1007978294417262
0.10071062114555389
0.10053389975801111
0.10019340944476425
0.09965571854729205
0.0988771760603413
0.09796689110342413
0.09719678807072342
0.09669275687541813
0.09636760537046939
0.09653160822577775
0.09643206681590527
0.09607910037506372
0.09557246272917837
0.09489023032132536
0.09399744784459471
0.09307451805565506
0.09237030128482729
0.09195280134212226
0.09177336309105158
0.09180959599092603
0.09185474395751952
0.09143102194182574
0.09085981060285121
0.09016938290558756
0.08942884194664658
0.08875928521156311
0.08824871779419481
0.08791926668956876
0.08778049705550074
0.08779009737540036
0.08758816567249596
0.08723968035541475
0.08672344464808703
0.08606669830158353
0.08538303472567349
0.08478912023361772
0.08431477271020413
0.08394566011615097
0.08369380871299655
0.08358636268414557
0.08352687975857406
0.08330294244922698
0.0829639460798353
0.08254820090252907
0.08201759331393987
0.08134635454043745
0.080663046319969
0.08015533563215285
0.07984422876965254
0.07965624179225415
0.07967347445897759
0.0794377703918144
0.0789957792731002
0.07844213827513158
0.07782923812512309
0.07722572227474302
0.07672023067716509
0.07634876294992864
0.0761232679290697
0.07607410317752511
0.07597974626813084
0.07572231387719512
0.07533606050070375
0.0748280948633328
0.07426125111058354
0.07371814403682947
0.07325497002340853
0.07290629099588841
0.07269213279243558
0.07262343677226454
0.0725331307714805
0.07228213858790696
0.071897958740592
0.07142425753176213
0.07091431040782481
0.07042231610510498
0.06997714201454074
0.06961277721449732
0.06940248868428171
0.06939023957122117
0.06922756093088538
0.06892576878890395
0.06853179602883756
0.0681285877013579
0.06775391784962266
0.06727952567394822
0.06650290762074292
0.0654497882630676
0.06452707494609058
0.06431046989746392
0.06365515570156276
0.06265829026233405
0.062040287153795365
0.06183827967848629
0.06159630564972758
0.06122715544886887
0.06094227741472423
0.06064368196297437
0.06016887775156647
0.05959759745746851
0.05888351135421544
0.058087866017594934
0.05770068174228072
0.057405776870436964
0.05655867453664541
0.0557699932390824
0.055145043623633684
0.05452652961015701
0.05398042993620038
0.053707784353755415
0.053712077615782616
0.0536521505843848
0.05360666227992624
0.053446470736525954
0.05308188464026898
0.05256823716685176
0.052009120383299884
0.05155116602778435
0.051322883651591836
0.05136584041174501
0.05134547197259962
0.05120088473428041
0.05088852910790592
0.05035381897352636
0.04980323451571166
0.049252133183181286
0.04886945641133934
0.0485761004127562
0.048483078517019745
0.048513681492768225
0.04832465446088463
0.04803966473788023
0.047630965053103866
0.04710149299819023
0.04651346973609179
0.0459580707270652
0.045496443049050865
0.045146888429298995
0.04492858237586916
0.044864073158241806
0.04476934758946299
0.044532428327947855
0.044270228664390746
0.043905729227699336
0.043347560120746496
0.04290994703304023
0.04263638546224684
0.04247796191368252
0.042429899233393374
0.04246972897090018
0.04225839253049344
0.0419789128145203
0.041647278633899984
0.041224040505476296
0.04074375106021762
0.04031464692670852
0.03999734091106802
0.03981858864426613
0.03982310343533754
0.039821254061535
0.03966948620043695
0.039439430590718985
0.03917397267185151
0.03884805456269533
0.0384815612109378
0.03811919123865664
0.03781495070550591
0.037612635563127696
0.03753981558140367
0.03756147746462375
0.03749458512291312
0.03735021898522973
0.037140340101905166
0.036796807036735116
0.036284639374352994
0.03575750888790935
0.035396375581622126
0.03517901806626469
0.03500109068118036
0.03491138960700482
0.03491832192521542
0.034808447011746464
0.034535865616053346
0.03417751254979521
0.03383193326182663
0.03348009570967406
0.033132320758886634
0.032830808977596465
0.032658460298553106
0.03268460417166352
0.0325638491474092
0.032351401406340304
0.03209808714222163
0.03180604869499803
0.031472152713686224
0.0311282620113343
0.030810109521262348
0.030560172055847944
0.03046136535704136
0.030554540157318115
0.03050558406393975
0.030254696155898275
0.02983865048736334
0.02940607465803623
0.02917370630428195
0.02914610005915165
0.029105931436643005
0.029012269233353438
0.029023776324465872
0.02886058807373047
0.02864237303379923
0.02847737225703895
0.028361232159659265
0.028296658163890244
0.02826837436761707
0.028145436053164302
0.02784583894535899
0.027476462558843194
0.027145837335847318
0.02687898196745664
0.026772950976155698
0.026700910297222435
0.02646597655490041
0.026199925006367267
0.02592109202872962
0.025628210282884537
0.025296990708447993
0.025028089354746045
0.024876914941705762
0.02488041799981147
0.0248435337562114
0.024699947643093766
0.02445730980951339
0.024169375323690474
0.023872985406778752
0.023581446269527077
0.023346169563010336
0.023208382739685476
0.023152265222743152
0.023176930947229266
0.023181369798257946
0.0231185181485489
0.022971034962683917
0.022754232077859343
0.022534104394726456
0.022370758056640624
0.022252962831407784
0.022129697855561972
0.02201641562860459
0.021991418749094008
0.021928020212799312
0.021819810098968447
0.021689404207281767
0.021476371055468915
0.021145491767674683
0.020775049794465303
0.020441582701168956
0.020211958698928355
0.020065023628994823
0.01999754535034299
0.020045869122259318
0.020042872135527433
0.019959537065587937
0.019808155042119323
0.01961954095866531
0.019429839146323503
0.019255184726789595
0.019108926407061518
0.019046090194024146
0.019120264523662625
0.01913051158655435
0.01904597900342196
0.01884788759984076
0.018546686796471475
0.01827030036132783
0.01799247831571847
0.01767533448059112
0.017474401108920574
0.01735996287781745
0.017342018033377826
0.01742015407886356
0.01746168637648225
0.017440031557343902
0.017316617802716792
0.017129468941129745
0.016974933817982672
0.016894586817361414
0.016855190838687122
0.01683165431022644
0.01683852025307715
0.016744194938801228
0.016587450373917817
0.016377879409119486
0.01610926945693791
0.015810371479019522
0.015539385871961712
0.015308665749616921
0.015138385184109211
0.015018930840305984
0.014969011154025793
0.014981557843275367
0.014953368967399001
0.014941278551705182
0.014911023913882673
0.014830390866845846
0.014758710921742023
0.014742369721643627
0.014741100198589265
0.014722923547960818
0.014726856099441648
0.014741961262188852
0.014632644364610314
0.014413571669720113
0.014157555103302001
0.013923423336818815
0.013784839981235563
0.013751766975037754
0.013747483198530972
0.013739456231705844
0.013717904346995055
0.013702803966589272
0.013703038776293397
0.01375344063155353
0.013889246475882829
0.013951617842540145
0.014034130517393351
0.014052202682942152
0.014117147140204907
0.014143758490681647
0.014161629541777075
0.014178419383242727
0.014127023494802415
0.01407388849183917
0.014004534124396742
0.013913165237754583
0.013807054525241256
0.013694595298729836
0.01358711658976972
0.013569402052089572
0.013636931930668651
0.01372056602500379
0.013824568823911249
0.013846170813776553
0.013850228912197053
0.013974356469698251
0.014001223049126566
0.013972515435889364
0.013961634738370777
0.013945070221088826
0.01390324735082686
0.013903548261150717
0.013789660590700805
0.013596711247228086
0.013405889356508851
0.013254393632523715
0.01312731315381825
0.013002565042115747
0.012867684178054332
0.012760115168057383
0.012759932461194693
0.012842791033908724
0.012968403841368855
0.013060807823203504
0.013133881520479918
0.01318981749471277
0.013227129192091524
0.013267246061004698
0.013321899212896823
0.013358571082353592
0.013348990799859167
0.013323238878510892
0.013241336373612285
0.01305615935008973
0.012907736767083407
0.012876558979041875
0.012891941778361797
0.012862759390845895
0.012806783202104271
0.012777923252433538
0.012793677411973476
0.01281861069612205
0.012844990803860128
0.012946273782290518
0.013094304148107767
0.013217430328950286
0.013331347531639039
0.013447526306845248
0.013577511999756098
0.01369106424972415
0.013732319050468504
0.013702045008540154
0.013717330987565219
0.013716944186016917
0.013680561096407473
0.013620759090408684
0.01353017384186387
0.01339648156426847
0.01335566454101354
0.013362193093635143
0.013350926106795669
0.013342921086587013
0.013409187803044915
0.013518523070961236
0.013613623664714396
0.013681059652008117
0.013759306343272328
0.01388656790368259
0.014015662502497434
0.014108485709875822
0.014129239530302585
0.014099305318668485
0.014087371844798326
0.014057279727421702
0.013987463884986936
0.013891241978853941
0.013805426117032766
0.013754579471424222
0.013719885013997554
0.013667876874096692
0.013647382822819054
0.013699069716967643
0.013809669706970453
0.013933151364326476
0.014061101074330508
0.014215888236649335
0.01435149107594043
0.014489980447106064
0.014607062716968357
0.014703265000134707
0.014738831925205887
0.014690776518546046
0.014619234362617134
0.01460771372076124
0.014651798987761139
0.014701509508304298
0.014704502155072987
0.014628801154904067
0.014502559793181718
0.01442017843015492
0.014408756126649679
0.014414723170921207
0.014440561668016017
0.01452795729972422
0.014675293415784836
0.014855047487653792
0.0150526880659163
0.015235379519872368
0.01535414248239249
0.015401557395234704
0.0154075719229877
0.015389629052951931
0.015335742114111782
0.015239014346152545
0.015176014336757361
0.015217711804434658
0.015305948355235159
0.015377783300355077
0.015395690188743174
0.015377825084142387
0.015361669803969562
0.015390925561077892
0.015446064514108002
0.0155532256513834
0.015724929464049638
0.015921406075358392
0.016091891964897513
0.016222798572853206
0.016319634560495615
0.01636715035419911
0.016343122543767095
0.01626189806032926
0.01616840096656233
0.016148953684605657
0.016251073912717403
0.016346315937116742
0.016403367402963342
0.01645746957976371
0.0164221515879035
0.016388505636714398
0.016354353469796478
0.01628346657380462
0.016263921489007772
0.016300309454090892
0.01637668675277382
0.01650527022778988
0.016687755188904703
0.016870552585460247
0.0169929062994197
0.01704490351956338
0.01705982393119484
0.017056538704782725
0.017021674453280865
0.017003862443380056
0.017068618293851614
0.01719947140198201
0.0173073932249099
0.01736158605199307
0.017356745963916183
0.01732277347240597
0.017323472732678057
0.017372690811753272
0.017468706360086798
0.017600058298557996
0.017760636880993844
0.01793285861145705
0.018087179958820344
0.018202376598492265
0.01826062850188464
0.018265974740497768
0.018258363637141884
0.018251835233531893
0.01824632222764194
0.0183177283545956
0.01840294220019132
0.0185162613959983
0.01865604581311345
0.018788166739977897
0.018874002257362008
0.018870229320600628
0.018840980608947577
0.018852414614520967
0.018896274464204908
0.01894975068513304
0.01901733119506389
0.019117723512463273
0.019238597815856337
0.019353153235279023
0.019447882757522166
0.019505943260155617
0.01951646901667118
0.0194996117381379
0.01952166561037302
0.019558003381825985
0.019624542589299382
0.019714680993929506
0.019811437632888555
0.01990051295608282
0.019963650554418563
0.019917732393369077
0.019883834016509352
0.01988208928145468
0.01991025827359408
0.019965355647727848
0.02003786463290453
0.020111345569603145
0.02018079549074173
0.020249950466677547
0.020309280971996486
0.020343606397509574
0.020351760918274522
0.020374214639887214
0.020433409456163645
0.02050814820919186
0.020581331592984496
0.02064962077420205
0.020711842463351785
0.020761590097099544
0.020809829258359967
0.020832133651711045
0.02075735479593277
0.020721974996849895
0.02076054462697357
0.02084758191369474
0.020938253616914152
0.021032984713092447
0.021149354353547097
0.02127291727811098
0.021378952129743993
0.021446036007255316
0.02143947535660118
0.021408320521004498
0.02139871582388878
0.02144070815294981
0.021501640575006604
0.021586096128448844
0.021676235450431704
0.021717827343381943
0.02169360442087054
0.02167779496870935
0.021685174307785927
0.021673280326649547
0.021672743684612215
0.021682261056266725
0.02169415118172765
0.02172805026639253
0.021806241660378874
0.021909296005032955
0.02198996299877763
0.022024368033744395
0.02203785449732095
0.022011854043230413
0.02199830879457295
0.022034919932484628
0.02209383878391236
0.022144181043840944
0.02221563278697431
0.02233440459240228
0.022339802188798785
0.022234991802833975
0.022183017572388053
0.022209233827888964
0.022278451859019697
0.02234786469489336
0.02241262183524668
0.02249217304866761
0.022585195186547936
0.02266590476036072
0.022713346187956632
0.022727259718813002
0.022726462744176387
0.022721559735946358
0.022715411521494387
0.022732290364801885
0.022781453970819713
0.0228511209692806
0.02292520044837147
0.02298916461877525
0.02303521117195487
0.023063308810815215
0.02304638301488012
0.02302872486412525
0.023017387920990586
0.023045737971551718
0.023128887903876603
0.02323706557042897
0.023332653753459453
0.02340527240652591
0.023457309999503195
0.02349102880805731
0.023513498054817318
0.023518140106461943
0.02355508447624743
0.023625653078779577
0.0236689429031685
0.02365302260965109
0.023647489715367554
0.023723734836094083
0.023835603184998035
0.023863863698206842
0.023858374319970607
0.02388571197167039
0.02393535221926868
0.02400105049367994
0.024065362438559532
0.024103125878609716
0.02410918754991144
0.024114413298666478
0.0241442115791142
0.024186411686241627
0.024215753520838917
0.02421549869235605
0.024251125827431677
0.024314527730457485
0.02437659231480211
0.02441094654612243
0.024422188312746583
0.024423738587647677
0.024419206245802343
0.024420997695997357
0.02439862717408687
0.02436045616865158
0.02433020848315209
0.024330360591411592
0.024352678572759034
0.024376223529689014
0.024399956953711808
0.024421228165738284
0.02442970069590956
0.024431939772330224
0.024433514033444226
0.02441511084791273
0.024491435210220517
0.024571106252260506
0.024583364431746305
0.02454900941811502
0.024540033200755717
0.02456975490786135
0.024590392066165805
0.024562522331252695
0.024560598144307732
0.024606339600868523
0.02461231641471386
0.024619010286405684
0.024651476363651455
0.024672728963196278
0.02465414266567677
0.024616051940247418
0.024598384727723896
0.024623740366660058
0.02466342946514487
0.02466255996376276
0.02471230011433363
0.024760227999649942
0.024764244169928132
0.02474657550919801
0.02475689706392586
0.024804859957657754
0.024858726812526585
0.02488606170285493
0.024894156740047038
0.0249295950261876
0.024967630351893602
0.024970835326239466
0.02494015799369663
0.024913923698477447
0.024902800587005912
0.024905461482703686
0.02493803949095309
0.02498284566681832
0.02499254260212183
0.024972438300028443
0.024974732641130686
0.02496099434327334
0.02495981260202825
0.024940648013725877
0.02487646132707596
0.02482422761619091
0.024832201371900738
0.02486021223012358
0.02485592435579747
0.02485057696700096
0.024818719471804796
0.024793688892386853
0.024808332393877208
0.024843338187783958
0.024868964180350304
0.024883168642409147
0.024893100284971298
0.024896587994880974
0.024884392824023962
0.024893968254327773
0.024953505783341826
0.025023496728390455
0.02507359187118709
0.02507758012972772
0.02504415818955749
0.024999457155354322
0.024961759811267258
0.024964756383560598
0.024960733354091644
0.02496393980458379
0.024973865570500492
0.02496196092572063
0.024920071782544254
0.02487141700927168
0.024852189361117782
0.024869265272282063
0.024893772788345814
0.024916950119659304
0.02495067223906517
0.024920643172226847
0.024890980795025826
0.024888778096064924
0.024917343333363533
0.024955447260290385
0.024976729275658728
0.02496915802359581
0.024941070801578463
0.02491094622761011
0.02493276323657483
0.024939605477266015
0.024923433675430717
0.0248882459057495
0.024846510379575193
0.0248005590448156
0.02474435307085514
0.02468379429541528
0.024648442286998033
0.024673456735908986
0.024752734736539425
0.024768285462632777
0.024759293673560022
0.0247861711634323
0.024793099304661156
0.024759855805896222
0.02471205899026245
0.024693284165114165
0.02471774207893759
0.02473182385787368
0.024709485708735882
0.024701098925434053
0.024705519946292043
0.02473699066322297
0.024769589467905462
0.02475169255398214
0.024686477277427912
0.024612499163486064
0.02454427076037973
0.024480417179875077
0.024431273457594216
0.024436041261069477
0.024376015020534395
0.024278902732767164
0.024192636371590196
0.02413737661205232
0.02411278777755797
0.024110484099946917
0.02411502318456769
0.024115531328134238
0.02411868367344141
0.02411309734918177
0.024086632053367793
0.024048155080527066
0.02401783929206431
0.023999503580853343
0.02398187917191535
0.023957918123342095
0.023937949850223957
0.023941352725960315
0.02396243195980787
0.023970459569245577
0.02397491728886962
0.023973615281283854
0.02396017961204052
0.023949494515545667
0.023948961393907665
0.023949445420876146
0.02394284836947918
0.023921825303696097
0.023960790825076402
0.023998914738185703
0.02401262055616826
0.023995492714457212
0.023949687974527477
0.023890227978117764
0.023846371727995575
0.023831511521711944
0.02383497852832079
0.023829459813423454
0.023775027892552317
0.023814871865324674
0.02385766162071377
0.023805377245880662
0.023739879787899553
0.023732237317599356
0.023722473876550795
0.023639643960632385
0.02353895591571927
0.023511960660107432
0.023469440252520145
0.023418222423642873
0.023384832437150182
0.02335207086522132
0.02330738210119307
0.023275913316756488
0.023270819913595916
0.023255977095104755
0.023219565963372588
0.023195873592048884
0.02319091866724193
0.023185725593939423
0.02314713506028056
0.02307494984474033
0.023020643824711442
0.02301144880242646
0.023014033352956174
0.02299643789883703
0.02297029101289809
0.02296396023128182
0.02296368342358619
0.022967457305639982
0.022998617310076953
0.022999647743999957
0.022937744981609286
0.02285622214432806
0.022798462100327016
0.022773328041657805
0.022772825649008156
0.022768665137700737
0.022750419420190154
0.022753134844824673
0.02268264330457896
0.02258702731691301
0.022505077081732452
0.022439974853768946
0.02238988960161805
0.022359803407453
0.022353930659592153
0.022372688758186998
0.022349212779663504
0.022351164645515384
0.02236508939880878
0.022337901475839316
0.02225970070809126
0.022184852813370525
0.022154676900245248
0.022148447483778
0.02212756995111704
0.022098241676576435
0.022097234716638922
0.022132986537180842
0.0220893683237955
0.022066830219700934
0.022059211661107837
0.022031975607387722
0.021972339395433665
0.021902126828208565
0.021843878217041493
0.021823130776174367
0.021841896316036582
0.021827139146625995
0.021761041567660868
0.021669073882512747
0.021591991484165192
0.021536259395070374
0.021499522351659833
0.02148592452518642
0.021491529839113354
0.02150944684166461
0.021532809790223838
0.021550415670499205
0.0215492646722123
0.021567191923968495
0.02159927038475871
0.021633781092241407
0.02164390083402395
0.021596692320890724
0.02150217128917575
0.02146722126286477
0.021484613581560553
0.02148509557824582
0.021488136281259358
0.02145904118195176
0.02139091745018959
0.021319324653595685
0.021270919321104885
0.02123812080360949
0.021190190217457713
0.021127373622730376
0.021102533377707004
0.021103095319122075
0.021011529695242642
0.020905757136642934
0.020804693181999026
0.020735404063016175
0.02071297321934253
0.020722761638462543
0.020734305293299258
0.020741935367695988
0.020752013181336224
0.02073087080847472
0.0206807418493554
0.020632203412242235
0.02060403720475733
0.020590967731550336
0.02056793963070959
0.020523757780902086
0.020484428200870753
0.020473390496335925
0.020487893335521222
0.020517309769056736
0.020482267015613616
0.020439317235723137
0.020373590188100935
0.020277798543684184
0.02017286396585405
0.020106503535062076
0.020110176508314908
0.020167538775131107
0.020178358885459602
0.02010969830211252
0.0200490857148543
0.01999145108740777
0.019927789401263
0.019862107113003732
0.019824485941790045
0.019829314700327814
0.019844733267091214
0.019828212545253337
0.01978007887955755
0.019755421853624285
0.019720308925025166
0.019637595950625836
0.019563746321946383
0.019517057440243662
0.01947945635765791
0.019434994738548993
0.019384403484873473
0.019387584226205946
0.01943156394176185
0.019434824003838003
0.01939199922606349
0.01932500530499965
0.01926524150185287
0.019227237193845212
0.01919228539802134
0.019146222411654888
0.019107404639944436
0.01909167554695159
0.019094953867606818
0.019094388009980322
0.01905164124444127
0.019000074877403676
0.018982967189513148
0.018978503411635757
0.01893670844845474
0.018856694558635353
0.01879372315481305
0.01879663408268243
0.018806216148659585
0.01882838680408895
0.01882294879294932
0.01876164972782135
0.01867773854639381
0.01861474886536598
0.018564789071679116
0.018501835609786212
0.018441499387845398
0.018415422709658742
0.01843071773182601
0.01847027178388089
0.0184308009641245
0.018390993778593837
0.018328103213571013
0.01823925176169723
0.0181463203439489
0.01806377847213298
0.017990973396226764
0.01801463251002133
0.018028150494210422
0.017970216064713895
0.017852315297350287
0.01774288491345942
0.01769332061521709
0.017668801182880996
0.017604294512420893
0.017498556855134666
0.01740593942813575
0.01736758101731539
0.017396867177449166
0.017355909273028373
0.017282835440710187
0.017232047696597873
0.017177360779605806
0.017119868542067707
0.017065877704881133
0.017050075973384083
0.017058957144618036
0.017043777923099697
0.017083124057389796
0.017090900563634933
0.017031071302480997
0.016934104822576047
0.01684768382459879
0.01677466870751232
0.016705371965654196
0.016659480230882765
0.016650650426745416
0.016665569352917374
0.016699700555764137
0.016752025857567788
0.016762392912060022
0.016736058620736002
0.016684567048214374
0.016601696177385748
0.016525470716878772
0.01648474906105548
0.016468312051147224
0.016451495150104165
0.01646013231482357
0.016459242408163845
0.01642005156725645
0.01637159724254161
0.01632028219755739
0.016243222984485328
0.016160505106672645
0.01609622159041464
0.016028969711624087
0.01596549983602017
0.015955938850529493
0.016002898984588683
0.01603078708052635
0.016032731086015703
0.01602623295970261
0.01595562456175685
0.015920874690636994
0.015884374673478304
0.015840580174699425
0.015821135612204672
0.01585337516386062
0.01583479644730687
0.01577039305586368
0.01570342158898711
0.015657596816308798
0.015611231457442046
0.015544849433936178
0.01547899829223752
0.015431605097837746
0.015386345852166415
0.015339704165235162
0.015328201688826084
0.01535990513395518
0.015315025178715587
0.015243997755460441
0.015195393566973508
0.015151947173289954
0.015102868019603193
0.015087803406640888
0.015102980993688106
0.015090014068409801
0.015064705004915595
0.015044314949773253
0.01501881261356175
0.014960084920749067
0.014870769088156521
0.014779848773032426
0.014703950611874461
0.014651313913054765
0.014630120149813592
0.014635700238868595
0.014653579969890416
0.014652740866877139
0.01457380136474967
0.014439247050322592
0.014305867622606456
0.014235911848954856
0.014225814449600875
0.014231023783795536
0.014239665395580232
0.0142483632825315
0.014226234783418477
0.014181999480351806
0.014143309500068426
0.014099855814129114
0.014033686062321067
0.01395624041557312
0.01388461736496538
0.013831220353022217
0.013807179173454642
0.013816851731389761
0.013861932177096605
0.013911655806005
0.01391120367217809
0.013878202089108527
0.013811183138750493
0.01371479719877243
0.013625443000346422
0.013586126025766134
0.013595161088742315
0.013602098627015948
0.01358828625176102
0.013538820492103696
0.013483583545312285
0.013438594401814044
0.013391070109792054
0.01333624911494553
0.01327218150254339
