0.010173134114593268
0.010187940753530711
0.010187664816621691
0.010175259863026441
0.010176971545442939
0.010210102051496505
0.010268729003146291
0.010327747592236846
0.01034993349807337
0.010323700739536434
0.01028450621990487
0.010255233079660683
0.01021490735700354
0.010166316784452647
0.010149735340382904
0.010171519708819687
0.010193808323238044
0.010188414275180548
0.010167749032843858
0.010164292964618652
0.010183838719967753
0.010205103354528546
0.010223664834629744
0.010248703793622553
0.010262919361703099
0.01024382362375036
0.010222617792896927
0.010249046711251139
0.010300559450406581
0.010314963229466229
0.0103037752606906
0.010297226789407431
0.010271885520778597
0.010206333848182113
0.010155192811507731
0.010158057662192733
0.010163033206481487
0.010128969326615334
0.010094750502612443
0.010105161794926971
0.010157559511717408
0.01020898112328723
0.010213597910478711
0.01017936484888196
0.01015601540217176
0.010167962650302797
0.01020239532692358
0.01024398360401392
0.010277579128742219
0.010281725390814244
0.010266417583916337
0.010238645721692592
0.010198257344309241
0.010195755222812295
0.010233819207642228
0.010276733625214547
0.010290685500949621
0.01027094996534288
0.010237427446991205
0.010221520757768303
0.01024229421513155
0.010279676606878639
0.010294576925225556
0.010278312333393842
0.010260554272681474
0.010281116729602217
0.010342973668593913
0.010392382151912898
0.010387815076392144
0.010358413248322904
0.010351724815554917
0.01036766639444977
0.010383956003934144
0.010410411804914475
0.010467677812557667
0.010544036612845958
0.010610834427643568
0.010643591596744955
0.010630017237272114
0.010589467538520693
0.01055728152161464
0.010543987872079014
0.01054134301841259
0.010542236636392772
0.010531354488339275
0.01050147505942732
0.01047353021800518
0.010457341026049108
0.010436784906778485
0.010411127747502177
0.010387681282591075
0.0103551934636198
0.010314694903790951
0.01029252883978188
0.010296289490070195
0.010301064145751297
0.01030314433388412
0.010332336672581733
0.010375692180823536
0.010383786021266132
0.010366888707503677
0.010363950885366648
0.010363752888515591
0.010356689624022692
0.01037353499326855
0.010422475815284998
0.010465329405851662
0.010460640739183872
0.010404062473680824
0.010337953404523433
0.010302191532682628
0.01028436288703233
0.010248754508793353
0.010194359812885523
0.010158030155580491
0.010155391895677894
0.010159857554826885
0.010166374135296792
0.010200282246805727
0.010243824494536966
0.010247164047323168
0.010214279892388732
0.010201069107279182
0.01023187995189801
0.010274671665392816
0.010299159595742822
0.010314077497459948
0.01033364521805197
0.010338887020479888
0.010311328668612986
0.010276367061305792
0.010269325319677591
0.010288485067430884
0.010299443018157035
0.010276727764867245
0.010242699526716024
0.010214595755096525
0.010207618945278227
0.010213301233015955
0.01023153412155807
0.010264047959353775
0.010285827645566315
0.010267108692787588
0.010224335063248872
0.010197077502962202
0.010196236928459257
0.010204073833301663
0.010198414369951933
0.010181278404779733
0.010180391860194505
0.01020344055723399
0.010217365974094719
0.010190876240376383
0.010138043712358921
0.010099868967663496
0.01008770594606176
0.010077719714026899
0.010060388138517737
0.010052850202191621
0.01006620952161029
0.010086276296060532
0.010086147098336369
0.010060289935208857
0.010035180060658604
0.010036914837546646
0.01006182816810906
0.010088436340447515
0.010106309428811073
0.010110058032441884
0.010095845588948578
0.010086093430873007
0.010096266998443753
0.01009097263449803
0.010061332911718637
0.010034450688399374
0.010020474321208894
0.010061446195468306
0.010109322767239064
0.010140366568230093
0.010195126298349351
0.010286898366175593
0.010353548163548111
0.01035585030214861
0.01032019691541791
0.010278792399913073
0.010247541239950806
0.01023418077500537
0.01023514715489
0.010247724025975912
0.010275726313702762
0.010305975878145546
0.010317167090252042
0.01031908008735627
0.010336557787377387
0.010373028407339007
0.010404642682988196
0.010391859754454344
0.010329429949633777
0.010257662115618587
0.010232704910449683
0.010204995288513602
0.010133767507504672
0.010129073059652001
0.010202880282886326
0.010295266401953995
0.010349040236324072
0.010347582250833511
0.010301677365787328
0.010256915006320923
0.010268474305048585
0.010318729875143618
0.010341036105528474
0.010333771028090268
0.01033587688812986
0.010341584221459926
0.010339546122122557
0.010352382923010738
0.010391365785617382
0.010438548238016664
0.010471447915770114
0.010468448232859372
0.010414189829025417
0.010370927462354303
0.0103278705640696
0.01028000004356727
0.010263556926511229
0.010270175370387734
0.010271897963248193
0.010273759935516864
0.010303774087224155
0.010347291438374668
0.010365735259838402
0.010362767037004233
0.01036635461030528
0.010383659908547997
0.010399408619850874
0.01039133793208748
0.010369189158082008
0.010374499296303838
0.010394699953030795
0.010370186578948051
0.010309511115774512
0.01027354106772691
0.010271726453211158
0.01026885986328125
0.01024950856808573
0.010218335103709252
0.010175795119721442
0.010136246259789913
0.010134699759073556
0.010177992966491729
0.010254032406955958
0.010331629042048008
0.010353387887589634
0.01033088519005105
0.010281029120087624
0.010230516467709094
0.010237785161007196
0.010309963482432067
0.01036917908117175
0.010367291949223726
0.01034267976647243
0.010336831661406904
0.010332845763769001
0.010297571008559317
0.010229361329693347
0.010161450614687055
0.01015646310057491
0.010188941017258913
0.010218230444006621
0.010251923874020576
0.010306782729458064
0.010352461324073374
0.010336878101807088
0.010253850913140922
0.01014432930154726
0.010043797257822007
0.009976656574290246
0.009962079511024059
0.009984300583600997
0.010010617638472467
0.010032089366577566
0.010046943586785347
0.010054363512899726
0.010068674532230943
0.010093998545780778
0.010115693442057818
0.010136943063698708
0.01017470693681389
0.010218763293232768
0.010245674073230475
0.010254658218473196
0.010255168892908841
0.01025320718763396
0.010264278831891715
0.010298248883336782
0.010319866214413196
0.010277149176690727
0.010189283227082341
0.010128229737747461
0.010105670483317225
0.01008601902751252
0.01007563723018393
0.01008964043110609
0.01010438445257023
0.01011125332210213
0.010136521274689584
0.010191901689395308
0.01025132115231827
0.010274181088898332
0.01025865321746096
0.010250051498878747
0.010272099566645921
0.010292341334279627
0.010277351187542081
0.010242097326554359
0.010200904952362179
0.010191026092506945
0.010174942878074944
0.010145373169798404
0.010135667119175195
0.010141532530542462
0.01012214730028063
0.0100733051286079
0.010025702277198434
0.009997469887603075
0.010002711955457926
0.010050745834596454
0.010119475317187607
0.010176927079446613
0.010202289023436607
0.010179165853187441
0.010100915837101638
0.01009872626978904
0.010216100933030247
0.010280434715095908
0.010382178204599768
0.010565157737582922
0.010677997968159617
0.01073118556290865
0.01084267518017441
0.011006210087798536
0.011105071373749524
0.011115590492263436
0.011117962594144047
0.011121798928361386
0.011067313649691641
0.010988040186930448
0.010970181226730347
0.010988232814706862
0.01097849104553461
0.01098704586038366
0.011074787136167288
0.011174144095275552
0.01117658231407404
0.011135594700463117
0.011090247342363
0.011103094662539661
0.011113403390627354
0.011074468477163464
0.011051203240640461
0.011002419162541627
0.01099398590857163
0.01099436732241884
0.010969449300318956
0.010960104207042605
0.010977165391668677
0.010951977986842394
0.010893625437747688
0.010837109000422061
0.010857434759382159
0.010945011568255723
0.011047159188892692
0.01110379712190479
0.011151209813542664
0.011310592694208026
0.011551465205848217
0.011755670499987901
0.011760736957658082
0.01181076442822814
0.011899516293779016
0.011931990238372237
0.011957283853553236
0.012026356558781117
0.01211234777700156
0.012153151237871498
0.01211992560653016
0.012207288364879786
0.012374356461223215
0.012530551198869944
0.012635982343927026
0.012694699263665826
0.012715842686593532
0.012705180640332402
0.012677152811083942
0.012777924898546188
0.01293304881779477
0.013013211847282945
0.01302789778681472
0.01309987043729052
0.013189636936876923
0.01340261726640165
0.01369325844803825
0.013912023820448666
0.013925563145894557
0.013840414527803659
0.013792835215572268
0.013775878835003823
0.013804778875783085
0.013782442472875118
0.013743383043911308
0.013715721061453223
0.01369747297372669
0.013715952420607209
0.013701217481866479
0.013650787668302656
0.013598702512681485
0.013529337793588638
0.013478065112140029
0.013484428934752941
0.01346166675677523
0.013512038809712976
0.013522550023626536
0.013508181711658835
0.013531959420070051
0.013520412461366505
0.013576746438629925
0.013769083709921687
0.01413321589352563
0.014567270574625582
0.014920956348069012
0.015153742746915668
0.01527354902587831
0.015288230543956161
0.015267546696122736
0.015258569798897953
0.015236905741039664
0.015450415888335556
0.015761110151652248
0.016004177376162262
0.016217287650797517
0.016424235890153797
0.01652752871159464
0.016486526941880585
0.0165173237840645
0.016548811679240317
0.01656625747680664
0.016613714622799307
0.01671072738710791
0.016813471063505857
0.01685438304906711
0.01681766324909404
0.016758898666594177
0.016737472554668783
0.016794898728840053
0.0169549949048087
0.017135577674489467
0.017185026435181498
0.017101782325189562
0.017054293840192258
0.01712635769508779
0.017178582821507006
0.01722309256903827
0.017448212914168836
0.01763151151826605
0.017634689502883702
0.01769497036235407
0.017794574259314685
0.018007878337521106
0.018274455000646412
0.01845344373025
0.01851188575383276
0.018507350946310907
0.01849551733350381
0.01848459496628493
0.018465310155879707
0.018457991401664913
0.01850135507527739
0.0185710737016052
0.018615164097864182
0.018594939468894154
0.018561394694261255
0.018527334523387253
0.01849003369687125
0.018490973422303797
0.018485492412000894
0.01844705850817263
0.018410219470970334
0.018427228492219002
0.01840524704894051
0.018412903291173278
0.01852721074363217
0.018643693043850364
0.018661046572960912
0.018704468929208816
0.01873294481774792
0.01866661019390449
0.018760352719109506
0.01896532388869673
0.01919672979041934
0.0194189142761752
0.019611794748343528
0.0197391558624804
0.019790210181381555
0.019775984827429056
0.019707452047150582
0.01962199334288016
0.019505809899419545
0.019474884341470898
0.01961100931512192
0.019798715838696808
0.019870474403724074
0.019842707051429896
0.01983943661209196
0.01987888474948704
0.02000354929128662
0.020217467611655594
0.020456956904381512
0.020728558488190173
0.020965100624598564
0.02107287772698328
0.021099986722692848
0.02111219065496698
0.021120817423798142
0.021278268492314966
0.021542002379428594
0.021762399389408528
0.021763066796120258
0.021694644540548324
0.021629376516211777
0.021692436074372382
0.021662491839379072
0.02192834221990779
0.022375505606178195
0.022783788053784518
0.023074752062093466
0.02310495775192976
0.02295186526607722
0.02281086629955098
0.022836587713100015
0.022903234926052393
0.02283377463929355
0.02272839530836791
0.02285692168865353
0.023008061710279436
0.02305205460404977
0.023060641321353614
0.023191073329653592
0.023243107846938074
0.023193689114414155
0.02320929942652583
0.023372739593032748
0.023604280431754887
0.02380519061116502
0.023898800630122424
0.024033002513460813
0.024430948002263905
0.024937808457762004
0.025447283601388336
0.025838953962083907
0.02597027374431491
0.025987736177630723
0.026047621998004616
0.02601071096258238
0.026157342798542232
0.02633267760509625
0.026360053329262882
0.026368908951990306
0.026478620767593383
0.026559396388474852
0.026483633739408107
0.026368615184910595
0.02623474709689617
0.026205410056281835
0.026180482038762422
0.02604106897721067
0.025798394724261015
0.02561081958003342
0.0256788545823656
0.025779230617918075
0.025885630992706864
0.02597048457711935
0.02593720968114212
0.0262877958570607
0.02683083190349862
0.027427149214781822
0.028084807242266835
0.028565046426374464
0.028711596960201858
0.028525844663381577
0.028516942576970905
0.02852111219894141
0.02855414548423141
0.02870718572521582
0.028897237919736654
0.028798940400592984
0.028724292849656195
0.028711550016887487
0.028735044428613035
0.02880698736291379
0.028837511246092618
0.02869173333514482
0.028670549797825514
0.028627717688214035
0.028535147265065463
0.028759632192086427
0.02890085143968463
0.028895846009254454
0.028944133291952313
0.029179236388299615
0.029459785448852926
0.029568853052332998
0.02961134775308892
0.029583703328389676
0.029714946786407383
0.029980412092991172
0.03012356942286715
0.030165242746006696
0.03035601019160822
0.030476723730098455
0.030518658955115824
0.030513370833359657
0.030540992149617523
0.030602242217864842
0.03071715369820595
0.030941558703780174
0.03106903814477846
0.030945567435119302
0.03052172805648297
0.030240338924340904
0.03018943560309708
0.0301651433063671
0.030030011935159563
0.030287479949183762
0.030538926639128477
0.03061324139824137
0.03070449671475217
0.03066578757017851
0.0305353188351728
0.030429116145242005
0.030398560403846205
0.030461843356024473
0.030640333697665483
0.030849317845422775
0.030785088741686194
0.03094177027232945
0.031200464374851435
0.0313957941508852
0.03148459371179342
0.03151930225547403
0.031484982355032116
0.03154518024297431
0.031687234910205
0.031721675724256784
0.03163650299655273
0.031477395275142046
0.03135110553121194
0.03133409743895754
0.03132816470228136
0.031266479201149194
0.031239217862021176
0.03141420506173745
0.031574895703233775
0.031329253758303824
0.03137545859208331
0.0315322040184401
0.03153529692441225
0.031633568778634075
0.031557546372059736
0.031330305133014914
0.031270036732312295
0.03152181275188923
0.03192178812809288
0.0322193172108382
0.032248864616267386
0.03249167320085689
0.03286853746511042
0.03319553102133796
0.033478483445942404
0.03372638821834698
0.03382394826039672
0.03392605306813493
0.03412210176931694
0.03424354893621057
0.03421680005034432
0.034280155261512846
0.034327829321846366
0.03430216773878783
0.03434595508500934
0.034665278389584275
0.035131724514067174
0.035357030238956214
0.035247104722075165
0.035351435183547435
0.0352778459736146
0.03531477473909035
0.03531360034365207
0.03541007968597114
0.035517574865370986
0.03564738515298813
0.03575246479362249
0.035671302615664896
0.03644661783473566
0.037641747153829785
0.03850195013219491
0.03888578749028966
0.03904851356055587
0.03904640864115208
0.03924347879132256
0.03954130599275232
0.03989346611546352
0.040470982585102316
0.04121771653415635
0.04171528921229765
0.041753742669243366
0.042421412616968156
0.04344369184458628
0.04427069664699957
0.04447237721877172
0.044285374868195504
0.044505021921359
0.04473461215849966
0.044812959253322335
0.04487299249973148
0.044891755955759435
0.04484199608908966
0.04473979915957898
0.044777096128091214
0.04485988030442968
0.04485150916967541
0.04486779636470601
0.04496704306686297
0.04473744253860787
0.04435194479301572
0.0439800177840516
0.04364456145325676
0.043569064717739824
0.043520687187556174
0.04364981346065178
0.043640029721427706
0.04344369355589151
0.04333058078074828
0.04335829528281465
0.04321759813465178
0.043076220143120736
0.04300045265816152
0.04305687925312668
0.04301161710405722
0.042942056737374515
0.04295947252539918
0.04292487006634474
0.04280647861538455
0.04259546607965604
0.0424307532212697
0.04251826980151236
0.042623128443956375
0.042378293629735705
0.041838064698968086
0.041324520893394945
0.040994723888579755
0.040872590630315245
0.04085164276650175
0.040771650169044736
0.04081356349634006
0.040748472122941165
0.04072983826743439
0.04103615912375971
0.04150508961873129
0.041640502808149904
0.04189953525085002
0.04297890284331515
0.044528825792949644
0.04588317427318543
0.0462701895693317
0.04667959159007296
0.04730274068424478
0.04767730748280883
0.04781966673210263
0.04784397214651108
0.047710033191833645
0.047399750519543885
0.047148609780706466
0.04714331473223865
0.04684251520782709
0.04649397670989856
0.046354878167621794
0.04620951659977436
0.04566957136616111
0.04579220211366192
0.046668836777098474
0.04762140097096562
0.048507911004126075
0.048807629426009955
0.048923791644629094
0.0492731330008246
0.049542239673901346
0.049461801522411405
0.04939608718035743
0.04936597908847034
0.04930963440798223
0.04927135420031845
0.04922453847248107
0.04891963982023299
0.048671562313102185
0.04878251259448007
0.04884504897054285
0.04898694602539763
0.04919983608648181
0.04929160299245268
0.04915585637325421
0.04885832566767931
0.04881617777515203
0.048878516850527375
0.04897368302801624
0.048912847749888896
0.04871553885750472
0.04859862343640998
0.04853326345793903
0.048413711821194735
0.048433795596938584
0.04859217849094421
0.04868239115457982
0.048700494994409385
0.048713949422817676
0.048689989189151676
0.0485832175728865
0.04842156930826604
0.04829933999106288
0.04831042104167864
0.0481141145224683
0.04784175031585619
0.047728555873036385
0.04784459994407371
0.047660808633081614
0.04750121478922665
0.047459006430581215
0.04735073891701177
0.04723935400368646
0.047269618508871646
0.04740667027188465
0.04741858746856451
0.04717624910408631
0.04687825601780787
0.046858350317925214
0.04713951110839844
0.046978510606568304
0.046911365448031574
0.046942127775400876
0.046802038915921
0.0468807063694112
0.047183746681548656
0.04728050235193223
0.04723775918828323
0.04745615491177887
0.04778875242220238
0.047889613208826634
0.047865118882618844
0.04777588527649641
0.04778364019934088
0.04797911932924762
0.04807703886181116
0.04784162106225267
0.047835161718539895
0.04803796977037564
0.047897903562989085
0.047807129409629855
0.0478458681772463
0.04777946950867772
0.04773332766257227
0.04773857158841565
0.047815258817281575
0.04763847136404365
0.04728100279113278
0.04698628818383441
0.0469321543071419
0.046692801581230015
0.046320389092434196
0.04604904355248436
0.04589874178171158
0.04578095851698891
0.04576473413966596
0.04565637488616631
0.04546033524675295
0.0454041127092205
0.045628850818611684
0.04592418461339548
0.04604340434074402
0.04645794844953343
0.04726008373545483
0.047776309910696
0.04756732285255566
0.047452178664971145
0.04785719642415643
0.04797812902601436
0.04807020295411348
0.047960609735455365
0.048155792225152254
0.04822660467587411
0.048058604770340026
0.047743609924800694
0.047426308635622264
0.047462931140325966
0.046746638217009605
0.04556449111783877
0.04468013828154653
0.044308932826388626
0.04421048709424213
0.044332359789405015
0.044157646461389956
0.043780049146153036
0.04340397987049073
0.042757984267082064
0.0423690420598723
0.04240155524108559
0.04272781137144193
0.04218525500036776
0.04113242341671139
0.04003116983920336
0.039835570580326024
0.04015425639692694
0.04000150566454977
0.03972621193621308
0.03961786096682772
0.03959486689651385
0.039555403259582816
0.03948556727962568
0.03942812887718901
0.03936146546155214
0.03923880405956879
0.03931418350432068
0.03928653922630474
0.039245370170101525
0.039279863885603845
0.03931280328892171
0.039308530846610665
0.03930514349369332
0.03938806999009103
0.039618845537770536
0.03977789463708177
0.04000799466855824
0.04030393810477108
0.0405331049580127
0.04067571779014543
0.04081526612862944
0.040864200477954
0.04084041644120589
0.04076439401367679
0.04067463297164067
0.04070603802334517
0.04086755378870294
0.041083982239943
0.04115516148274764
0.0411016771197319
0.04095273067243397
0.040811076948884875
0.040710917862597854
0.04074019104940817
0.040903934575617314
0.04099716618657112
0.0409916389384307
0.04097406215267256
0.04104781447444111
0.041181499720551074
0.04124882352538407
0.041153076228220016
0.04096879663644359
0.04069781566038728
0.04032786360243335
0.040070007387548685
0.03984423437621445
0.03892115973634645
0.037545306666288525
0.03636839076410979
0.035989959312137214
0.03586416527396068
0.03562159121502191
0.035455614598467945
0.035292365795467046
0.03553685111459345
0.03579187695868313
0.03580699536483735
0.03612078964710236
0.036141680048312995
0.036270245851483196
0.0359938567597419
0.036089442090597
0.03629549990408123
0.03641852532979101
0.03599231412867084
0.03532631378388032
0.03466803863178938
0.03379197529051453
0.03361358602065593
0.03358572478638962
0.03325536659220234
0.03313520267838612
0.03313520876225084
0.03324188569094986
0.03343783521093428
0.03355281637981534
0.03368983783060685
0.033846059408970175
0.033849240199197085
0.033934999557677654
0.03397457777056843
0.0337953452882357
0.03356258200481534
0.03349494230467826
0.03334321290254593
0.03341049431823194
0.033413761134725065
0.033519668602384624
0.033511068834923205
0.033401476284489036
0.033328178094234315
0.033289261830504985
0.033288552535232156
0.033577160735148937
0.03382228174479678
0.033719109611120075
0.03364943958353251
0.03359972830163315
0.03369939646450803
0.03390794213628397
0.03394115653354675
0.033847604929469526
0.03383545313961804
0.03388675341848284
0.03391283397795632
0.03406348885502666
0.03414434192935005
0.03413051432697103
0.03413310049334541
0.03419057059334591
0.03424900581128895
0.03422028144355863
0.03434816861758008
0.03455432700458914
0.03464664883213118
0.03463511833222583
0.034653593767434356
0.03476213001878932
0.034848408927209674
0.034743160074576736
0.03451836291933432
0.03453217745758593
0.034448733013123276
0.03429032278247177
0.03429410095326602
0.03440563983516767
0.034423677367158234
0.034414422258269045
0.03428443050477654
0.03415031457319856
0.03403355167014524
0.03406340853543952
0.0340964136319235
0.034225450698286294
0.03440368291456252
0.03443492072634399
0.03443148704944179
0.03454948904924095
0.034378883955068884
0.03418330452404916
0.03412176409270615
0.034110142271965745
0.03397677930304781
0.03391168178524822
0.03398375239456072
0.0340729750925675
0.03386726330732927
0.03371286133304238
0.03372092225356028
0.03381764139980078
0.03392285449197516
0.03395728104747832
0.034204307915642856
0.03435424679890275
0.03423668551724404
0.034495242414996026
0.03490296910982579
0.03534022715175524
0.035736672666389496
0.035937649679835884
0.03574605823261663
0.03541318690404296
0.035303310584276916
0.034941177307628093
0.034072410482913255
0.03326958470279351
0.03303446321049705
0.03286921232705936
0.03253520300844684
0.03236203923821449
0.03232067452510819
0.032316186979878696
0.03218519659014419
0.03195844587404281
0.031887641523499044
0.03197731409454718
0.03217570208245888
0.03223618181189522
0.03214720784453675
0.03204921306343749
0.03205827715341002
0.03204416010528803
0.03198028813116252
0.031875729931052775
0.031859765290282664
0.031889153504744173
0.03174028961220756
0.031912196967750786
0.031816037320531905
0.03139591412851587
0.031075844978913664
0.031054100880865007
0.031105419925879688
0.03127654836047441
0.031109190706629306
0.03087939923396334
0.030800013891421257
0.03079157470492646
0.030827957880683245
0.030756574932020157
0.03076524331700057
0.03083242936525494
0.0308237162954174
0.030839339864905925
0.031023191586136818
0.031040539250243457
0.03100834064884111
0.031077604428865015
0.031050840194802733
0.030910849359352142
0.030768747236579658
0.030766578011680396
0.03060912832384929
0.030411997358314694
0.03025284055620432
0.03014501408673823
0.030061660197097807
0.029971621711738408
0.029859433113597334
0.029755507211666553
0.02979677693452686
0.029846512253861875
0.02993277187459171
0.03012714795768261
0.030236991762649268
0.030105894946027546
0.03000650710426271
0.030117568026762454
0.030276143033988775
0.030323481557425112
0.030330842081457376
0.030321462547872217
0.030388808296993374
0.030537123025860636
0.030597761394456028
0.030547165181487798
0.03056338189402595
0.030563874770887196
0.03057214035419747
0.03056315709836781
0.030589926212560386
0.030624750186689198
0.03057061805156991
0.030463143575470895
0.03051052238093689
0.03051057564560324
0.030452781224157663
0.030255934400483967
0.030178001248277724
0.03022729925112799
0.02995909469900653
0.02958569295005873
0.029370193919166922
0.029349179277196526
0.02896233489969745
0.0285975959780626
0.028582399936858564
0.02826797552406788
0.028271366301923992
0.028148078850936144
0.028234728204552084
0.02765634636161849
0.02699279868742451
0.026887383775319903
0.026870717566926033
0.02665342836640775
0.02621592721901834
0.026121348100714384
0.025888550821691753
0.025647117216140033
0.025416156998835503
0.025301698877010493
0.025318146503996105
0.025182277786079794
0.025028198866639286
0.024965048506855964
0.024900874576997013
0.024827203452587127
0.024809936583042144
0.024761973458807915
0.024577268585562705
0.024555058458354324
0.024566645892336966
0.024449803174939007
0.02449658347759396
0.024392000308725983
0.024641558388248087
0.024769690113607794
0.02496080287732184
0.025127233522944152
0.025124247705098243
0.02510270453756675
0.025074840455781667
0.02483882613712922
0.024614603712689132
0.024754006976727395
0.024909014455042778
0.024941395903006196
0.025013942916411906
0.02529443413950503
0.025711649307049812
0.02591667219530791
0.025934641868807375
0.02602885276544839
0.02609637374524027
0.02605566354934126
0.026046761092729867
0.02601161102298647
0.025850427451077847
0.025811257055029273
0.02586127238580957
0.02603436378063634
0.02605833642417565
0.025768279270268975
0.025496322917751967
0.02521782222436741
0.025019126865081488
0.025053939977660776
0.02520294754533097
0.025345512223429977
0.02541457593208179
0.025344055409077554
0.025231644357554615
0.025131647523958234
0.02510087118251249
0.024802464987151326
0.024478637552820145
0.024282097627874463
0.024367518578656017
0.024329958020243795
0.024187990599311888
0.024057657688390462
0.024004150077234953
0.023861601310782136
0.02367230299394578
0.023479285091161727
0.023290438689291478
0.023137058950960635
0.02310308564454317
0.023149170645046978
0.023170456127263605
0.02318864332512021
0.023359159671235828
0.023449798470828682
0.023366621686145662
0.023266831231303513
0.02339666021289304
0.023328685441520065
0.023464302450884135
0.02367273787036538
0.02375220593297854
0.023748179769609124
0.023605574558023364
0.023392524209339172
0.02333411917788908
0.022948974380269646
0.02248374802293256
0.022033191630616785
0.02164628719910979
0.02137792929308489
0.021366063763853162
0.021368799577467144
0.021323950334917754
0.021289057191461326
0.021243553690146653
0.021345973000861704
0.02151129791047424
0.02152410184731707
0.021494793666061014
0.021478520375676453
0.021475765297655016
0.021566493643913418
0.021522919298149645
0.02144664299907163
0.021422617151401938
0.021450786932837217
0.02135748145636171
0.0211398879555054
0.02104450301500037
0.02108372773276642
0.02112916929880157
0.02116732040885836
0.021201034937985242
0.02128380918176845
0.02134021625854075
0.021318359274882823
0.021328039262443782
0.021173928757198156
0.020921496795490383
0.020801579114049673
0.020805986574850978
0.020776410426478834
0.02066435516346246
0.020598518890328706
0.02080995693570003
0.02099935428937897
0.020916063932236283
0.021127744731493293
0.02121771149802953
0.02129433476831764
0.021218167992774397
0.020981908321846276
0.020906485905870794
0.02100214413134381
0.020978957754559813
0.020881743177305907
0.02086010066093877
0.020821566085796803
0.02098718527238816
0.021163051873445513
0.021250221321824938
0.021307012422475964
0.021374946972355247
0.02137607936281711
0.021272383395116775
0.02103722847532481
0.02078498377697542
0.020598567528650163
0.02054391832789406
0.020556425841059534
0.020498576278332622
0.020630353325977922
0.02063520185649395
0.020520323147065936
0.0205038820207119
0.020498677589930594
0.02043796980055049
0.020297049283981322
0.02022104205796495
0.020275056359823792
0.02023086681496352
0.02014610415091738
0.01994777108775452
0.01960398240480572
0.01943624815903604
0.019446063158102333
0.019485128878150137
0.019493597028777003
0.019429895174689592
0.019459364218637348
0.01954112807987258
0.019505549769382922
0.01943335355259478
0.01945395565358922
0.01951195488218218
0.019438157288823275
0.019350324568804353
0.019357464127242565
0.019257980715483427
0.019245922523550688
0.019358825699891894
0.019428915921598674
0.019362403857521714
0.019343611975200473
0.01934241591952741
0.01939659527502954
0.019373381494078787
0.01941718239337206
0.019336045305244624
0.019270982719026507
0.01929891845677048
0.01939053212525323
0.01941042949212715
0.01933091684943065
0.019284641535487024
0.01927767207380384
0.01930462435586378
0.019379422583151607
0.019518777653574945
0.019536106162704528
0.019546000198461116
0.01947910330025479
0.01951764540746808
0.01965683588758111
0.01971501947613433
0.01957444567931816
0.019470798822585494
0.019482754247728735
0.019607891209889202
0.019643551360350103
0.019644711944274605
0.019713711519725622
0.019897293883841486
0.020104501666501164
0.020183335007168353
0.020190005560871215
0.020002049531321973
0.019777186375577002
0.01956029298249632
0.019398498851805925
0.01937431339873001
0.0194012834248133
0.019410491408780216
0.01937028397573158
0.019268826390616597
0.019036443589720876
0.018755869502201677
0.018642419478856028
0.018465481433086097
0.01805079196812585
0.017675356855615974
0.0175755896512419
0.017496117867995053
0.017495999643579126
0.01754294770071283
0.01746436286950484
0.017497541513293982
0.017647455527912824
0.017956984925549476
0.018045509601943194
0.017860989540349693
0.017832756652496756
0.017811350049450992
0.01782081138109788
0.01773538569221273
0.01772517754463479
0.017708116346038878
0.01759564371779561
0.017493536872789265
0.01738106264965609
0.017328860801644624
0.017418142296373843
0.01747344484552741
0.017483615328092127
0.017441417025402188
0.01738910094136372
0.017374245401006193
0.017414407597389072
0.017325217358302326
0.01722168313106522
0.017166957983281463
0.017152788154780864
0.017216086857952177
0.01734157701022923
0.017403433625586332
0.017425829849671573
0.01746245832182467
0.017505819618236274
0.017492105686105788
0.0174456796515733
0.01743588686687872
0.017473641908727588
0.017471988624893128
0.017364129768684507
0.017252980980556457
0.017188522019423544
0.017086803768761455
0.017191860391758382
0.01691112593980506
0.016694675222970544
0.016596528359223157
0.01669960718136281
0.016822664530482142
0.016958415654953568
0.01708250883733854
0.01714190122438595
0.017106144055724144
0.017233494468964636
0.01733031782088801
0.017506982709746807
0.01771602688822895
0.01776751559227705
0.017853300930000843
0.01813441411126405
0.018428092822432518
0.018470483396667986
0.018397855784278362
0.01846994553692639
0.01850851621478796
0.01846620365511626
0.018521876374725254
0.01851123163709417
0.01849213836481795
0.018568110296037048
0.018656343047041446
0.01862738883588463
0.01857090021716431
0.0185839669033885
0.018591872302349658
0.01861277368851006
0.018603429158683866
0.018598664689343423
0.01857586227124557
0.0185034636920318
0.018387579738628118
0.01828303542919457
0.018286662839818744
0.018261126491706817
0.01833786938805133
0.018466731691733004
0.018526952783577143
0.01842768555972725
0.018299067837651818
0.018223840112332256
0.01786054408410564
0.017542493543587626
0.017543394623789937
0.017368286463897674
0.017301066073123365
0.017326798336580396
0.017355674603022633
0.01749980581458658
0.01760825840756297
0.017446466262917966
0.017430130410939455
0.017593814476858826
0.017577460883185268
0.01755255435127765
0.01741365879541263
0.01734453622950241
0.017412302093580367
0.017444299540948123
0.017393312386702747
0.01735363694606349
0.017368744048289954
0.01744552677962929
0.017527845399454237
0.017676485425326974
0.017797919476870448
0.017844250749330968
0.017880432517267765
0.017824657077435403
0.017826460930518807
0.01778451360762119
0.017703891545534135
0.017826656440738588
0.017915064420085402
0.017815354014746845
0.017694478388875723
0.017733485780190676
0.018005751403979958
0.01825207788962871
0.018254207458812743
0.01834704721579328
0.018394378749653696
0.01841035265242681
0.018372162808664144
0.0183091447269544
0.018272652439773083
0.018259042904246597
0.018218926317058504
0.018199326284229756
0.01818999103270471
0.0182342608156614
0.01828349774470553
0.01836723875021562
0.018496152905281633
0.01863957391353324
0.018727102121338247
0.01865219899453223
0.018517120834439994
0.01848593591246754
0.01856588579947129
0.01855249034240842
0.018548223357647657
0.01858414228539914
0.018709778112825006
0.018752951342612505
0.01877343107247725
0.018757831356488168
0.01877249068347737
0.01880281395977363
0.018846221328713
0.01893909414066002
0.01905439513735473
0.019135312335565688
0.01915169272106141
0.019107310532126574
0.019082799952011554
0.019127788252662866
0.01913968245033175
0.019204719436820596
0.019217405319213867
0.019126585696358233
0.019075540064368398
0.01925064145354554
0.019391260384581985
0.019376796574797482
0.0192600785754621
0.019158270307816565
0.019208969704341144
0.019100791006349028
0.018865470017772168
0.018645933095831423
0.018529565492644905
0.018496175347827375
0.018463610471226275
0.018376069751102477
0.018291655487846583
0.018277529515326022
0.018299687227699906
0.018326912412885577
0.018360801150556653
0.018369458597153426
0.018357510128989816
0.018376114340499045
0.01838591730222106
0.018398765539750457
0.018342461893334983
0.0182060184632428
0.018045756435021758
0.017923610382713378
0.017926410145591945
0.017774549927562475
0.017740313839167358
0.017872465080581604
0.017806128272786735
0.017598482379689813
0.017329954265151173
0.01718712269794196
0.01729196782456711
0.017282566514331847
0.017340374127961695
0.01738400884438306
0.017482091134879738
0.01759667884092778
0.01768702978733927
0.017699537298176436
0.017568431852851063
0.017519129263237117
0.017518683755770325
0.017482151926960798
0.017459660635795446
0.017573454030789436
0.017830242628697306
0.018094432540237904
0.018241762781981377
0.01829211408505216
0.018348181969486177
0.018357441346161067
0.01833021723665297
0.018386185597628356
0.018375010825693608
0.01834729594178498
0.018348899376578628
0.018306575550232084
0.018383016476873307
0.018545535407029093
0.018699520379304887
0.018766872147098185
0.01873830259544775
0.018666669360827656
0.018515035624150186
0.018426145154517144
0.018485154043883085
0.018608041466213764
0.018682377131190153
0.01874292772030458
0.018921136723365636
0.01884779151994735
0.018876123407389967
0.01894232685910538
0.0188100329390727
0.018677567103877663
0.018637659510131924
0.01864903227891773
0.018814113619737328
0.018868424007669093
0.018829164968337864
0.018719123436603695
0.01865805541165173
0.018686121294740586
0.01858397452859208
0.01837560033192858
0.01811446259263903
0.018002810734324158
0.017986581122968345
0.017814200702123344
0.017877207573037596
0.018096375197637828
0.018254973066505045
0.018377496951725334
0.01843900881242007
0.018377195342909543
0.018250119348522276
0.01827601666562259
0.01837578817270696
0.018384806979447603
0.018430418686475606
0.01841229762416333
0.01838596020359546
0.018465611981227995
0.01855450143571943
0.018555815792642535
0.01853733681840822
0.018611821099184453
0.018728046217001974
0.018867206135764716
0.01890124734258279
0.018819767313543706
0.018722942539025098
0.018700872496701777
0.018699434825684876
0.018713589278049766
0.018756312339100988
0.01873058563331142
0.01869819847168401
0.01868018014356494
0.018626183776650578
0.018550316041801126
0.018481082753278314
0.018326781664509326
0.018235599987674503
0.018302793367765843
0.018255298431031405
0.018192297923378647
0.01830962219275534
0.01847670672694221
0.0186435571545735
0.018625587860587985
0.018503239396959543
0.018493099291808902
0.018503498991485685
0.018501648628152907
0.018462615041062235
0.01838221396319568
0.018291568213608115
0.01814279475947842
0.018028690326027573
0.018015008247457446
0.01801530621945858
0.017963898135349154
0.017892313376069068
0.017850371589884163
0.017782037812285125
0.017680164522025733
0.01766159136313945
0.017743573500774802
0.01781088564777747
0.017796805340331047
0.017543535539880396
0.017306848261505366
0.017310228173155338
0.017241517188958822
0.017237723537255077
0.01723412794061005
0.01721194787416607
0.01724365448113531
0.017242079647257925
0.017134775610174985
0.01708982097916305
0.017153123014140875
0.017167168736923488
0.01715450604213402
0.017192800536286086
0.017267685541883113
0.01727070627035573
0.017187385417055338
0.01712095089722425
0.017129490037914367
0.017096585929393768
0.01708383588353172
0.017122818438801913
0.017162832585163414
0.017157041160389783
0.017097764739301056
0.017029212121851742
0.01699072352144867
0.017002838503103704
0.01696877891663462
0.01684368187794462
0.01670927869156003
0.016630464021582157
0.016549714675638826
0.016428961115889252
0.016340969088487325
0.016361731016077102
0.0164138546702452
0.0163780102529563
0.01631693937117234
0.016371481192763895
0.016357882658485322
0.016252806689590216
0.016233573802746832
0.01617447498021647
0.016020217314362525
0.01589395775226876
0.01591735315741971
0.016009755195118488
0.01605507413856685
0.016009507072158157
0.015970118860714137
0.01599387906258926
0.016025192530360072
0.016012520629446955
0.015987371602095665
0.016007650126703084
0.016063400320708753
0.016084899420384317
0.016104134193155914
0.01607734288321808
0.016043942424003036
0.016032051197253167
0.016047440241090952
0.01605525060556829
0.016032790110912173
0.016022979547269642
0.0160250785225071
0.016047716818284243
0.016139611089602112
0.016223624525591732
0.016289803215768187
0.016337741734459996
0.016362492551561445
0.01629470101557672
0.016202539594378323
0.016137198759242893
0.01610486863646656
0.016102632468100637
0.01609692026861012
0.01604011153569445
0.015901641910895704
0.0157357913791202
0.01568436827277765
0.015579645154066384
0.01542982303071767
0.015318293976597487
0.01524709685239941
0.015304030657280237
0.015350125636905432
0.015352039211429656
0.01530750591075048
0.015252914156299084
0.015198750887066126
0.015082274887245149
0.014873752936255187
0.01469183808658272
0.014654236170463264
0.014696781653910876
0.014721091380342841
0.014709186877589674
0.01467347659636289
0.014601717083714903
0.014541805838234723
0.014551119080279023
0.014663222921080887
0.014603437108453363
0.014402247976977377
0.014247541357763112
0.014223585175350308
0.014238352603279054
0.01420702319825068
0.01427281939657405
0.014383606831543147
0.014418402980081737
0.014371787563432008
0.014297999660484492
0.014192354890983552
0.01404875016771257
0.013992455848492681
0.013911628944333643
0.013759324918501079
0.013689232920296491
0.013642172610852868
0.013526247756090015
0.013443578633014113
0.013356421855278314
0.013230313761159778
0.013164828224107623
0.013100169701501727
0.012919146076310426
0.012784412638284266
0.012806760363746434
0.012760133061092346
0.01275719892932102
0.012719560982659459
0.01267164044547826
0.012778485014569014
0.012694117214996367
0.01252800710964948
0.012353626780677586
0.012215594423469155
0.012200079439207912
0.01221580293495208
0.012210326539352535
0.012055527700576931
0.011905273317825048
0.011895590648055076
0.01182592834578827
0.011801316672936081
0.011788796598557383
0.011684683603234589
0.01158597090980038
0.01160932305501774
0.011677186351735145
0.0116660395427607
0.011621730360202491
0.01160940253874287
0.011587405987083911
0.01158400870859623
0.011561081572435796
0.011505236371885986
0.01155453835381195
0.01159840039210394
0.01165304669411853
0.011687951625790447
0.011685478596482425
0.011667317524552346
0.011652647601440549
0.011640221672132611
0.011608919745776802
0.011717910629231483
0.011777747892774642
0.011707315982785077
0.011648121427278967
0.011566006601788104
0.011537028569728136
0.011434023494366556
0.011270425983238965
0.01121304212603718
0.01120982636930421
0.011177098006010055
0.011219232650473714
0.011275073979049921
0.011321710606571287
0.011364431891124696
0.011383779083844274
0.011398242448922246
0.011424666175153107
0.011402828919235617
0.011321770776994526
0.011335239375475793
0.011388855399563908
0.011448409447912127
0.011502525941468776
0.011539259816054255
0.011545324015896767
0.01152518241899088
0.011444550030864776
0.01133677724050358
0.011337515199556947
0.011343897122424096
0.011334708335343748
0.011350127407349647
0.011292943698354065
0.01127466520993039
0.01126711482880637
0.011224411746952682
0.011198564753867686
0.011232847659848631
0.011247235685586929
0.011247265359852463
0.01133516357280314
0.011367020113393664
0.011273975137155503
0.011139574858825654
0.011057787642348558
0.011043416615575553
0.01106971048982814
0.011083443383686244
0.011103066811338068
0.011036208358127624
0.0109316819277592
0.01088846526807174
0.010891628046520054
0.010859049318823963
0.010811434148345143
0.0108284726832062
0.010882562554907054
0.010897553511895239
0.010884780166670681
0.010882617163006217
0.010900653714779765
0.01094563223887235
0.010996966185048222
0.011019247795920818
0.010990517647005617
0.010933097605593502
0.01087370524648577
0.010829238810110837
0.010795940167736263
0.010849717815872281
0.010948239280842244
0.010972832783591003
0.011023755485657602
0.011033540933858603
0.010974035253748298
0.010888527715578675
0.01084232531953603
0.010843177433125675
0.010855404671747237
0.01084876985521987
0.01082432593917474
0.010820805742405355
0.010863805715925991
0.010905429928097874
0.010890743213240057
0.01087737277848646
0.010958554546814412
0.011035310118459166
0.011061823484487832
0.011020092598628253
0.010995038773398847
0.011023065159097314
0.011056341459043323
0.011097263153642416
0.011158097116276623
0.01122177048586309
0.011233026327099651
0.011154727360699326
0.011082669268362225
0.011054368990007788
0.011051925893407316
0.011052750067319721
0.011022446902934462
0.01095022847643122
0.010899347588419914
0.010872698263265193
0.010848934308160096
0.010817711823619902
0.010801929417066276
0.010820184072945266
0.010861417774576694
0.01092916811350733
0.011010458765085787
0.01105766274034977
0.011090791593305767
0.011125545098911971
0.011084440860431642
0.010972712766379117
0.010895878549199552
0.010912623526528477
0.010930075966753066
0.010852896231226624
0.010733135868795216
0.010683386342134327
0.010695130610838533
0.010663609644398093
0.010571364974603058
0.01051933717681095
0.010579677193891256
0.010651949781458826
0.010724946521222592
0.01073125320021063
0.01066716416971758
0.01059120659949258
0.010585245375987143
0.010658501726575197
0.010723284292034806
0.010735843228176237
0.010747270321007817
0.010766158741898835
0.01072855960112065
0.010625293764751404
0.010518821857403963
0.010455532874912023
0.010437732920981943
0.010445736665278673
0.010458384701050817
0.010462042707949877
0.010446176941040903
0.010405091140419244
0.010374956373125315
0.010377046337816864
0.010367819285020232
0.010321548925712704
0.010295149008743464
0.010338600312825292
0.01037792763672769
0.010367829997558147
0.010382164693437517
0.010451866541989147
0.010506654249038547
0.010510358039755373
0.010496526316273957
0.01047844039509073
0.010447215596213937
0.010423802596051246
0.010420533032156527
0.010412103447597474
0.010395749690942466
0.010395613403525204
0.01040065175620839
0.010385362619999797
0.010366526159923523
0.010379519904963672
0.010430946887936443
0.010499547582585365
0.010549218256492167
0.010550105788279324
0.010542913707904517
0.010576066209468991
0.01065749820554629
0.01073266601189971
0.010781210043933242
0.010791601268574596
0.010734777497127652
0.010639295049477368
0.0105930884485133
0.010607119156047702
0.010614187854807824
0.010596537014935166
0.01058005671016872
0.010548523080069571
0.010482141645625234
0.010458413551095874
0.010490491029340774
0.010473013140726834
0.010527464423794299
0.010627620599698274
0.010709990146569908
0.010660191378556193
0.01059540944872424
0.010665712000336497
0.010726833604276181
0.010780267778318375
0.010734784740488976
0.010713381243404001
0.010759249879047274
0.01081889541586861
0.010867575670126826
0.010919501294847579
0.0109738724026829
0.011012263086158783
0.011012695985846222
0.010970547455362975
0.010968465991318226
0.010959891302045435
0.010928115632850677
0.010871652550995349
0.010865070323925466
0.010812207995913923
0.010799523780588061
0.01081045636208728
0.010801721245516092
0.010759372243192046
0.010710955234244465
0.01069595550186932
0.010714832416269929
0.010731356753967702
0.010725775596220045
0.010706742207985372
0.010686114928685129
0.010678589311428368
0.010687630381435156
0.010687636039219796
0.010689896529074759
0.010697567455936223
0.010678553644102067
0.010675873784348368
0.010670468444004655
0.010636293669231236
0.010547610162757338
0.010428768726997077
0.010347162447869778
0.010324647023808212
0.010324671135749667
0.010320877567864954
0.010315266428515315
0.010306337948422879
0.010298539143987
0.01033686429494992
0.010471810239832848
0.010667596776038409
0.010813729297369718
0.010859154975041746
0.010849166933912784
0.010807590279728174
0.010752387754619121
0.010723936420399696
0.010742679322138429
0.01073504753643647
0.010710395833011716
0.010651448681019247
0.010607603355310857
0.01059860673500225
0.010564639333169907
0.010506059066392482
0.010489199212752282
0.010516524901613594
0.010524344372097403
0.010461777821183205
0.010410106859635561
0.01040589777752757
0.010409776717424393
0.010408566566184163
0.010415794958826155
0.010419181347824633
0.010403010458685458
0.01038238897221163
0.010382132523227483
0.010392447765916586
0.01036444942932576
0.01031412134412676
0.01024110013851896
0.010222029061987997
0.010275391852483154
0.010325021669268608
0.010337085276842118
0.010362047019880265
0.010431016450747848
0.010494962153024971
0.010522905813995748
0.010519932149909436
0.010520600411109627
0.010524931568652392
0.010499730966985225
0.010450580313336105
0.010423387726768851
0.010417371049989015
0.010387907058466227
0.010331721138209104
0.010296656403224915
0.010309878785628826
0.010343180680647492
0.010376433611381798
0.010406276111025363
0.010456150060053914
0.010501744507346302
0.010541869127191603
0.010576942404732108
0.010577396734151989
0.01053319831378758
0.010460218202788384
0.010392367246095092
0.010363302011974156
0.010352760932873935
0.010314764720387757
0.010317759118042885
0.010344873708672821
0.01042904181405902
0.010468450572807342
0.010422973714303225
0.010370959432329983
0.01035457297693938
0.010344507964327931
0.010331360958516597
0.010396443763747812
0.010535926260054111
0.010627977836411446
0.010633882849942893
0.010640574740245939
0.010691859924700111
0.010734186780173332
0.010732202823273838
0.010710956500843168
0.0106803453178145
0.010625720445532352
0.01057080879341811
0.010553968478925526
0.010555737621616572
0.010534736956469715
0.010504244829062372
0.010510504466947169
0.01057088845409453
0.010654684489127248
0.010716891507618129
0.010754832550883293
0.010801676472183316
0.010865435937885195
0.010921335455495864
0.010961840085219592
0.01099014882929623
0.011019762144424022
0.011056139855645597
0.01106777896406129
0.0110205801948905
0.010929004207719117
0.010879803313873709
0.010894328546710312
0.010887664202600717
0.010830390478949993
0.010793533322867007
0.010807618272956461
0.010819315041881055
0.010789814696181566
0.010743611918296665
0.010719291204586624
0.010715704895555973
0.010696770877111704
0.010637202064972371
0.01055960651487112
0.010521998293697835
0.010560332983732223
0.010652743987739086
0.010736834085546433
0.010763120211195201
0.010745315679814666
0.010727005254011601
0.010717481218744069
0.010708148805424571
0.010683233877643942
0.010613795514218509
0.010516636008396744
0.010453445597086101
0.010443505058065057
0.010456140534952283
0.010476427820976823
0.010512603987008333
0.010560859723482282
0.010609181027393787
0.010644659034442156
0.010655284884851426
0.010655340356752276
0.01067581985378638
0.010679618325084447
0.010659131531137973
0.010686019144486636
0.010646896560210735
0.010561758317053319
0.010484314961358905
0.010438665417023003
0.010411147382110358
0.01038125840947032
0.010332890939898788
0.010277344891801477
0.01025005693314597
0.010248422569129617
0.010226498832926154
0.010164567597676068
0.010091299505438656
0.010032769562676548
0.009975509149953724
0.00991076476406306
0.009886598056182265
0.009946421603672206
0.009997760078404099
0.010043384658638388
0.01005866389721632
0.010113090560771525
0.010164960562251508
0.010180411031469702
0.010143034574575722
0.01011500325286761
0.010118239568546414
0.010120749676134437
0.010104713165201246
0.010090074848849327
0.010087857889011502
0.010096663252916187
0.010128063871525228
0.010178096406161786
0.010211028128396719
0.010207309308461844
0.010195827651768923
0.010210864099208265
0.010213035307824612
0.010198460570536553
0.010192883680574596
0.010173302725888789
0.010165724619291723
0.010166477304883301
0.01018739168997854
0.01023669662885368
0.010278802500106394
0.010281769682187587
0.010261530939023942
0.010244853070471436
0.010246208782773466
0.010277323364280165
0.010323037644848227
0.01032251482596621
0.010216462267562747
0.010034998671617359
0.009898394190240651
0.009868813783396036
0.009875224104616791
0.009872971680015325
0.009889248118270189
0.009930644694250076
0.009943247265182436
0.009945849501527847
0.009941982608288526
0.009997884219046682
0.010066901380196214
0.010085135097615421
0.010090500391088426
0.010121217814739793
0.010164811434224248
0.010185067430138589
0.010221090996637941
0.010305993207730353
0.010392335462383925
0.01041633367538452
0.010397314969450235
0.010394225406926125
0.010409464733675123
0.010412359074689449
0.010408771615475416
0.010415010016877203
0.010410077369306237
0.010386946427170187
0.010393520938232542
0.010412670143414288
0.010445104932878167
0.010440985194873065
0.010402888639364392
0.010372098220977932
0.01033132936572656
0.010255039606709032
0.010184559551998974
0.010166021944023669
0.010189096983522177
0.010222025224938988
0.010234320864547043
0.010219023872632533
0.010215612039901316
0.010247498513199388
0.01027406501583755
0.010266855363734067
0.010265786091331393
0.010301454842556268
0.010335819027386606
0.010336766736581921
0.010332478685304522
0.01034089043037966
0.010341376706492156
0.01033612099243328
0.010332860127091408
0.010310561177320779
0.010270346677862108
0.010244016803335398
0.010248676764313132
0.01027655762154609
0.010304079095367341
0.0103173992712982
0.010346566494554281
0.01042099500540644
0.01045858807861805
0.010476420931518078
0.010419053330551833
0.010359927490353584
0.010358812555205077
0.010384483856614678
0.010418327518273145
0.01047688216669485
0.01054470692994073
0.010534573297481984
0.01045837752521038
0.010415415880270302
0.010396876439917832
0.01032523825764656
0.010225303517654539
0.01017463071970269
0.010169978563208133
0.01016287378501147
0.010149630934465676
0.010150697876233607
0.010157934587914497
0.010157109808642418
0.010166373965330423
0.010203334498219191
0.010240882532671094
0.010235972304362803
0.01017939513316378
0.010108384322375059
0.010075021963566543
0.010082284219097347
0.010077379187569022
0.010037346766330302
0.010010283964220434
0.010030886381864548
0.010064380397088825
0.01007239859784022
0.010061327714938671
0.01005815879907459
0.01007660653674975
0.010100188932847231
0.010115816516336053
0.01014780254336074
0.010201971435453743
0.010224173560272902
0.010185289178043604
0.01013849162030965
0.010130570610053838
0.010140989429783077
0.010144586679525674
0.010132191453594714
0.01008488287916407
0.010038480816874654
0.010077551677823067
0.010185243065934628
0.010256205387413501
0.010265283090993761
0.010261144684627653
0.010252525354735554
0.010226838488597423
0.010201266752555966
0.010186306012328714
0.010169663031119854
0.010160643709823489
0.0101838633348234
0.010241154078394175
0.010281784899998456
0.010268580997362733
0.010224592029117048
0.010193096562288702
0.010175486237276345
0.010140518485568463
0.010089912163093686
0.010059537324123085
0.01006140112876892
0.01007815022720024
0.010089837037958205
0.010082916389219463
0.010064519385341555
0.010064571108669042
0.010095016846898943
0.010121534150093793
0.01012267400510609
0.010142294703982771
0.010206926404498518
0.010254539505112917
0.010239325193688274
0.010217169590760022
0.010228877945337445
0.010220422451384365
0.010164367861580103
0.01011977611342445
0.010118681970052421
0.010121252101380379
0.010100118331611157
0.01007983427029103
0.010081753639969975
0.010079466453753412
0.010046012045349925
0.010012331460602581
0.010021658139303327
0.01005151382414624
0.01004863936919719
0.010014639762230217
0.009989831591956317
0.009986350920516997
0.009978962012100965
0.009943230170756578
0.009889304041862487
0.00985698803095147
0.009876146423630416
0.009923420220147819
0.009934056983329356
0.009877705748658627
0.009792835023254155
0.009735868349671363
0.009722381667234003
0.009728615100029855
0.009743574520107358
0.009785221563652158
0.009840332646854221
0.00989988962886855
0.00994749948149547
0.009984977843705565
0.010010202445555479
0.010005744232330471
0.009979179825168103
0.009953486789017916
0.009938265103846789
0.009935474407393485
0.009944031352642924
0.009954559018369764
0.009955098864156752
0.009946850086562336
0.009943462926894426
0.009949099491350352
0.009963580644689501
0.0099956618482247
0.010041865494567901
0.010080313622020186
0.010101451850496233
0.010119253599550576
0.010136744331102818
0.010137368049472571
0.010122808604501187
0.010103911962360143
0.010076978676952422
0.010058085813652725
0.010075718250591307
0.010107016002293676
0.01010362307773903
0.010066600611899047
0.010019033174030483
0.009951966069638728
0.009866368882358074
0.009817242657300084
0.009844234180636704
0.00990028856555
0.009926921054720879
0.00994451426435262
0.00998756559100002
0.010029842855874448
0.010044046335387975
0.010051827456336468
0.01007393183419481
0.010101787780877202
0.01011955164372921
0.01010402248473838
0.010070335292257369
0.01001818642951548
0.009971452539321034
0.009975658350158482
0.010028247816953807
0.010105508270207793
0.010157871218398213
0.010141075716819613
0.010065655489452183
0.009997619159985333
0.009985333979129792
0.010004863161593675
0.010010369969531894
0.010007536362390965
0.010027223208453506
0.01006366465240717
0.010094657680019737
0.010115556013770401
0.010118769670370967
0.01009647227358073
0.01006505021592602
0.010043920900207013
0.010029491593595594
0.010009072571992874
0.009982905953656883
0.009960223236121238
0.00993847775273025
0.009915311245713383
0.009911852739751339
0.00993604977382347
0.009953766856342553
0.009938341309316456
0.009908008547499776
0.009886526914779098
0.009874128671362996
0.009882265485357493
0.009931112602353097
0.009994304005522281
0.010015555270947517
0.009985409467481077
0.009945615308824927
0.009922000158112496
0.00990387154975906
0.009880407345481217
0.00984982558293268
0.009813508628867566
0.009792462124023587
0.009811351194512099
0.009858080625999719
0.009895570250228048
0.009912904840894044
0.00993459285935387
0.009968700362369418
0.009992585328873246
0.010003473705146461
0.010016641383990645
0.010020752616692335
0.01000357803888619
0.009990188120864331
0.010004175656940789
0.010022937678731978
0.010002689138054847
0.009942261199466885
0.009896051280666143
0.009895745050162077
0.009896209395956248
0.009857945023104548
0.009823283704463392
0.009839602666907012
0.009879895204212516
0.009893531987909227
0.009879926729481667
0.009878296505194157
0.009903267186600714
0.009919526374433189
0.009903561354149134
0.009893302673008293
0.00992106796707958
0.009956160262227058
0.009971842772793026
0.00997658490203321
0.009951955792494117
0.00989948108792305
0.009889838125091047
0.009960189834237099
0.010000991285778582
0.009951621168293059
0.009891809297259897
0.009866016693413257
0.00982877342030406
0.009773221078794449
0.009746228430885821
0.009758129199035466
0.009787080702371895
0.009839494472835213
0.009907015359494835
0.00993646991904825
0.009911265231203288
0.009895041880663485
0.009911486725322903
0.009921741678845138
0.00990862182341516
0.009891621370334178
0.009887339577544481
0.009891799290198833
0.009893330470658839
0.009885241456795485
0.009862258790526539
0.009832569386344404
0.009822811828926206
0.009837406144943089
0.009845736511051655
0.009840983315370977
0.009853860198054462
0.00987518767826259
0.009853736988734454
0.00979618025943637
0.009764868677593767
0.009772042548283934
0.009769569702912121
0.00974074584664777
0.00972475583665073
0.00974437767174095
0.009778639576397836
0.009805252745281904
0.009813177536707372
0.009800523149315267
0.009787253960967064
0.009794449110049754
0.009820742595475168
0.009854842112399637
0.00988240009173751
0.009885717066936195
0.009865450183860957
0.009849787466228008
0.009858437366783619
0.009879055635537952
0.0098932916065678
0.00989870443707332
0.009908309655729681
0.009932878743857145
0.00994629115331918
0.009906882187351584
0.009833654446993023
0.009798365994356573
0.009826523945666849
0.009874151076655836
0.009906748379580676
0.00993339267326519
0.009965671990066767
0.009995606497395783
0.01001178270438686
0.010007500662468374
0.009976462973281742
0.009925761367194355
0.009891427063848823
0.009905767515301705
0.009947777872439474
0.009967391048558056
0.009959967937320471
0.009963664163369685
0.009984076584223657
0.009989384857472033
0.009966136692091822
0.009919573655351996
0.0098849364137277
0.009839208917692304
0.009861364054959267
0.009921858464367687
0.009940777986776084
0.009918145188130438
0.009907747900579125
0.009908307888545097
0.00989270776277408
0.0098798135551624
0.009902386981993914
0.009945029160007834
0.009965047538280487
0.009951082568150013
0.0099207953363657
0.009890787999611348
0.00987712864531204
0.009896029983647168
0.009950428458396346
0.010020410481374711
0.010068074320442974
0.010070889675989746
0.010039844817947596
0.009995436498429626
0.009964801138266921
0.009963016649708152
0.009952597669325769
0.009914612881839275
0.009904301948845387
0.009941473200451583
0.009968174854293466
0.00995429375441745
0.009926069849170745
0.009910143793094904
0.009926650321576745
0.009956078662071377
0.009991859302390367
0.01000028132693842
0.00995599468704313
0.009904861287213861
0.009859762142878026
0.009804909853264689
0.009768795415293425
0.009794177967123688
0.009846450798213481
0.00985896122874692
0.009836209113709629
0.009826758385170251
0.009843272622674704
0.009865316788200289
0.009877762724645436
0.009873024949338288
0.009854622068814933
0.009850906205829233
0.009878769360948354
0.009911181218922139
0.00992378595052287
0.00992511230520904
0.009920748060103506
0.00990872097434476
0.009903848608955742
0.009921281228307634
0.009951095497235656
0.009961178170051425
0.00992991984123364
0.009879263273905963
0.009848508341237903
0.009850675892084836
0.009875533811282367
0.009898782705422491
0.009891695694532245
0.00985437070718035
0.009817289123311639
0.00981076171156019
0.009841508455574513
0.009871985756326467
0.009863652880303561
0.009843338464852422
0.009855976072140038
0.009899894536938519
0.009951772764325142
0.009990623828489333
0.009993881618138403
0.009955259789712727
0.00989922896027565
0.009858357447665184
0.00984792544040829
0.00985700247110799
0.009853424313478172
0.009823601653333753
0.009797847343143075
0.009808424487709999
0.009843663056381046
0.009867528330069035
0.009873547027818858
0.009883206472732126
0.009901211217511445
0.00991463185986504
0.009916251301765442
0.009907320705242455
0.009894769547972828
0.009889839673414827
0.009893382417503744
0.009886339276563376
0.009867179077118635
0.009864168488420547
0.009874285419937224
0.009863882379140704
0.009838111770804972
0.009832977142650634
0.009860019169282168
0.009904651574324817
0.00994549032766372
0.009957499261945486
0.009937363436911255
0.009930970098357647
0.00998374045593664
0.010053989752195775
0.010066113423090429
0.010002700653858483
0.00994775869883597
0.00995630090124905
0.009989303760230541
0.009997861643787473
0.009988801784347743
0.00998973722103983
0.01000260208034888
0.010006468885112554
0.009990487853065133
0.00996144478674978
0.009935564275365323
0.009929451062344014
0.009933387506753205
0.009927885502111166
0.009917401417624205
0.009909062462393195
0.009904303788207471
0.009904874551575632
0.009897088124416769
0.009867289222311228
0.00983267100295052
0.009826359574217349
0.009853242828976363
0.009894185638986528
0.009949129042215645
0.010017332041170448
0.010061754223424941
0.010051599845755845
0.01000879874220118
0.00998507116921246
0.010002518875990064
0.010033422759734094
0.010051400656811893
0.010065442873165012
0.010089254465419799
0.010120879034511745
0.010146727787796407
0.010140538979321718
0.010089941897895187
0.010031297819223255
0.010013016867451369
0.01003477855818346
0.010061080737505107
0.010067736315540969
0.010050195627845824
0.010015586975496262
0.009987325065303594
0.009990401626564562
0.010019472185522318
0.010044168683234602
0.01004827353870496
0.010049251725431531
0.010065710968337954
0.0100801962451078
0.010064921791199595
0.010029425518587232
0.00998122566845268
0.00994050016393885
0.009922802729997784
0.009933721628040076
0.009945766804739832
0.009941764371469618
0.009950836647767573
0.009985796683467925
0.010006597735919059
0.009989300549495966
0.009962862737011165
0.009965686416253448
0.01001179960090667
0.010076805984135717
0.01011117958696559
0.010100238823797554
0.010080473071429879
0.010078181966673583
0.01007433827035129
0.010045379418879747
0.010009257402271033
0.009997784257866443
0.010008759626653046
0.010035189010668546
0.010057433941401541
0.010102432831190526
0.010087551805190742
0.010037311022169888
0.010011645953636617
0.010015884393360465
0.010028616318013519
0.010036496161483228
0.010031880410388112
0.01002224620198831
0.01002298889681697
0.010043855875264853
0.010082678366452456
0.010118563948199153
0.01013775885105133
0.01014937410131097
0.010153265851549804
0.010136868010740728
0.010101906100753694
0.01006571042118594
0.010043463606853037
0.010031151396688073
0.010013836654834449
0.009988538643810899
0.009963236693292856
0.009949854891747236
0.009957924888003617
0.009968883402179926
0.00994902423582971
0.009908233103342354
0.009893723207060248
0.009922746531665326
0.00996723722666502
0.009996254441794007
0.010000125961378217
0.009982805943582206
0.009964377267751843
0.009973943380173296
0.010000840951688588
0.00999228284927085
0.009940096396021544
0.009908044408075512
0.00992887251311913
0.009956362615339458
0.009961386867798865
0.009973404600750656
0.010005573404487222
0.010031303169671445
0.01003355954773724
0.01002203615847975
0.010004898707848042
0.009976861751638352
0.009944310472346842
0.00992830963106826
0.0099361053109169
0.009958182459231467
0.009973959850613027
0.009961043763905764
0.009932188184466213
0.009925635373219848
0.009948804494924843
0.009974088408052922
0.009975707987323404
0.009962237526196986
0.009974668335635215
0.010032164736185224
0.010104425449389965
0.010153852559160442
0.010173536359798164
0.010180346684064716
0.010187827812042088
0.010190531322732567
0.010185611308552325
0.010185658908449113
0.010188780226744711
0.010183656278531999
0.010175924156792462
0.010167643206659704
0.010151230781339109
0.01013088746694848
0.010113420186098666
0.010099912933073938
0.01010283270617947
0.010139179220423102
0.010204955714289098
0.010268207737244666
0.010286002033390106
0.010261711138300598
0.010255166308488696
0.010287216231226921
0.010312839248217642
0.010305044760461896
0.010284301242791116
0.010279659547377378
0.010291215535253286
0.010286016496829689
0.010248645888641477
0.010208980597089976
0.010192947718314827
0.010193203093949705
0.010202159320469946
0.010214765341952443
0.01020677123684436
0.010174048456829041
0.010155659369193017
0.010174534826073795
0.010213742644991726
0.010253768942784519
0.010278023066930472
0.010271321944892407
0.010234751170501113
0.010177722496446223
0.010125226909294724
0.010118375227320939
0.010152541287243366
0.010167995216324926
0.01014021376380697
0.010112115354277194
0.010123455743305386
0.010161642008461058
0.010183892506174743
0.01016987397801131
0.010139811041299254
0.010116957232821733
0.010110968418885022
0.010122611899860204
0.010132110088597983
0.010124869253486395
0.010118719702586532
0.010122078619897366
0.010114264823496342
0.010099174201022833
0.010104781987611205
0.010118742096237839
0.010100672866683454
0.010077514974400402
0.010069696821738035
0.010101990443654358
0.010161090986803173
0.010189451195765286
0.010178579390048981
0.010159063434693963
0.010153088420629501
0.01015403214842081
0.010133798581082374
0.010095341259147971
0.010081065751146525
0.010103008677251637
0.010134237974416465
0.010151958684436977
0.010147729185409843
0.010128899773117156
0.01010281479684636
0.010066512911580503
0.010031498551834375
0.01001100664259866
0.009990469021722674
0.009960595059674233
0.009941378894727676
0.009940476350020617
0.009939512824639679
0.00992999400710687
0.00991647292394191
0.009903604639694094
0.009904581385198981
0.009922884323168546
0.009928579335100949
0.009895555630791933
0.009848803740460425
0.009844187616836279
0.009887927912641316
0.009908592449501158
0.009868280366063117
0.009840288441628217
0.009901939830742777
0.01001865629805252
0.010121429706923663
0.010169234082568437
0.010178302242420613
0.010166447947267444
0.01014928074553609
0.010140030556358396
0.010133802311029285
0.010125414214562624
0.010118497514631598
0.010110790145117789
0.010103284942451864
0.01010011549340561
0.010093391877599061
0.010079293751623482
0.01006518973968923
0.010046634953469039
0.010018194057047368
0.009999419853556901
0.010010352665558457
0.010039636134169996
0.010062247372698039
0.010071183994878084
0.01007373702013865
0.010075220884755254
0.010079632967244834
0.01008408167399466
0.010074036968871951
0.010045324326492846
0.010023285343777388
0.010035231225192547
0.010069778338074684
0.010095066823996603
0.01009871185058728
0.010085667995736004
0.010064630245324224
0.010041775233112275
0.010013279691338538
0.00997672755504027
0.009942235385533422
0.009922561605926604
0.009937525128480047
0.009999813803005964
0.010071744967717677
0.010099249614868314
0.010086853534448891
0.010075682606548071
0.010077823412138968
0.010082512092776597
0.010079219387844205
0.010049407759215683
0.010003541144542397
0.0099993617949076
0.010047156692016869
0.010081897734198719
0.010080807188060134
0.01009168516146019
0.010129850613884628
0.010153863343875856
0.010138316943775863
0.010115217179991304
0.010102259824052454
0.010094006408471613
0.010066185677424073
0.010036145418416709
0.010038490176666528
0.010066173549275845
0.010078391127754003
0.010063502413686365
0.010041899664793163
0.010018469218630343
0.009989902172237634
0.009969803530257195
0.009968133291695267
0.009977152866777033
0.009992356663569808
0.01002277507679537
0.010065022667404264
0.010089367139153182
0.010080931074917317
0.010061817755922676
0.010053414632566274
0.01005968282232061
0.01007233648793772
0.01006571325706318
0.01003048085141927
0.010003332437481732
0.010013647668529302
0.010037252344191075
0.01003836537245661
0.010015974319539964
0.00998699599178508
0.009954678374342621
0.009911752780899405
0.009860139519441874
0.009824809760320932
0.009839256794657558
0.009892881191335618
0.009931837571784854
0.009938755603507161
0.00994672707049176
0.009971293669659645
0.009989382091443986
0.009971102406270803
0.009919491885229946
0.00988947898382321
0.009920131471008063
0.00996504282578826
0.009961411647964269
0.009922064908314496
0.009902051156386734
0.009913291500415653
0.009920527562499046
0.009910343950614332
0.009901548840571196
0.009895711347926408
0.00988372233696282
0.009870645524933934
0.009856735074426979
0.009840389878954739
0.009838162551168352
0.009858275174628943
0.009881628276780248
0.009899422947783024
0.009920593940187246
0.009929706859402358
0.009913287032395602
0.009912433894351124
0.009961290759965777
0.010012922147288918
0.01000828560674563
0.009969845802988857
0.009951384924352168
0.0099559242464602
0.00996332810493186
0.00997786377556622
0.010009065200574697
0.010035007318947464
0.010023532623890788
0.009981593489646912
0.00994046232663095
0.009918437267187982
0.00992295883130282
0.009939606164116412
0.009935344893019647
0.009919003453105688
0.009934715677518398
0.009984297833871097
0.010035874776076526
0.010070378836244344
0.01007084656972438
0.010036469257902353
0.010004558786749839
0.010009220349602402
0.010057556352112442
0.010130307727959007
0.010180070153437555
0.010177996642887592
0.010148210390470922
0.010143337352201343
0.010162480038125067
0.01018435267265886
0.01015137747162953
0.010072160095442087
0.010038832745049148
0.01006716578034684
0.010083041482139378
0.010048821137752384
0.010004868311807514
0.0099872355023399
0.009976181376259774
0.009941243261564522
0.009896123646758497
0.009878772795200347
0.009901411375030875
0.009936063748318702
0.009951069664675743
0.00995284813689068
0.009965360616333782
0.009998579686507582
0.01004709948087111
0.010085195254068821
0.010094258151948452
0.010094781257212162
0.010105458102189005
0.010115892789326609
0.010125079900026321
0.010147317626979202
0.010182575031649321
0.010215097866021096
0.01023239948786795
0.010238410325255244
0.010249470428097993
0.010271096457727254
0.01027755311690271
0.010253743981011212
0.010246571409516037
0.01029026041738689
0.010327974492684007
0.010295712801162154
0.010209990793373435
0.010134531119838357
0.010120409489609301
0.010159540027379989
0.010180427010636777
0.010137747856788337
0.010084892543964087
0.010053995724301785
0.010043678067158907
0.010024765769485385
0.010008771924767644
0.01001087373122573
0.010014616195112467
0.010004180832765996
0.0099863016535528
0.00998007046757266
0.009998774032574147
0.010028842389583587
0.010043248701840639
0.010043729722965508
0.010059873592108488
0.010094136560801416
0.010109674243722111
0.01009298270335421
0.010073895736131816
0.01007518672151491
0.01008980582235381
0.01009916515322402
0.010097488563042134
0.01009942001895979
0.010109994576778263
0.010114877633750439
0.010114610630553215
0.010123578298371285
0.010143295817542822
0.010162960940506309
0.010169434358831496
0.010165415219962597
0.010176608418114484
0.010215068524703384
0.010252547576092183
0.010246745431795717
0.010193063660990447
0.010140117083210498
0.010126172881573439
0.010133567003067582
0.010131305768154561
0.010117493290454149
0.010113752242177724
0.010133853973820805
0.010169788333587348
0.010202740738168358
0.010206673040520399
0.010179724616464228
0.010165587146766485
0.01018653727369383
0.010205298324581235
0.010193515093997121
0.01017343317391351
0.01017644402338192
0.010188697534613312
0.010182956454809756
0.010145215464290232
0.010134139047004283
0.010183845290448516
0.010234878624323755
0.01022573645459488
0.010179230549838394
0.010142663554288446
0.010124226894695311
0.01011189129203558
0.010104780937545
0.010118066791910678
0.010150169034022837
0.010166629978921265
0.010150640406645834
0.010123026357032359
0.010097337462939322
0.010066397476475687
0.01002645272295922
0.009988343231379987
0.009969666353426873
0.009976434099953621
0.009997631304431707
0.01002518943976611
0.010052970768883824
0.010066012009046972
0.010068947419058531
0.010073565244674683
0.010065802184399217
0.010049873529933393
0.01005265505751595
0.01006738071795553
0.010075703687034547
0.010086417556740343
0.010100881778635084
0.01009682096540928
0.0100686775194481
0.010035917428322137
0.010012604342773557
0.010001914633903652
0.010006141499616206
0.010025743287988007
0.010060119463596494
0.010098204198293388
0.010103234075941145
0.01005758591927588
0.010011792124714702
0.010018152247648687
0.010052486567292362
0.010060266684740781
0.010037818641867488
0.010020922145340592
0.010017875574994832
0.010012966778595
0.010019628591835498
0.010057381726801396
0.010108774551190436
0.010148959786165505
0.010167748399544508
0.010157923290971666
0.010130484183318912
0.010118463863618673
0.010125279873609543
0.010117048828396947
0.010096100638620556
0.010092563186772168
0.01008491030195728
0.010042052273638547
0.010001070045400412
0.010003516704309733
0.010020029284060001
0.010018932863604278
0.010027720697689802
0.010061569954268634
0.010086585830431432
0.010085213235579432
0.010075509124435484
0.010072206619661302
0.010078488700091839
0.010090575451031328
0.010096085597760976
0.010091660998295993
0.01008529328275472
0.010080035766586662
0.010077101406641304
0.010076070758514107
0.01007190559990704
0.01005891704466194
0.010036377948708833
0.010024921305011958
0.01004825451411307
0.010092918006703257
0.010113322562538087
0.01006821723189205
0.009975994820706546
0.009909011414274574
0.009895304644014686
0.009897497482597828
0.009884189707227051
0.009861152824014426
0.009859513754490764
0.009900312670506537
0.009954385734163225
0.009971745596267283
0.009957312492188066
0.0099607592378743
0.00999335510423407
0.01002224017167464
0.01003243018174544
0.010040927173104137
0.010061089752707631
0.010079903204459697
0.01007540367078036
0.010047614972572774
0.010027928152121604
0.010045793456956744
0.010087000308558344
0.010114378524012863
0.010106038651429117
0.01006875092163682
0.010045563431922346
0.01006210494088009
0.010081131842453033
0.010079615535214543
0.010086101482156664
0.010103632020764053
0.010105857260059565
0.010090321868192404
0.010064436472021043
0.010037688992451877
0.010032463693059981
0.010046189760323614
0.010051238157320768
0.01004598247120157
0.010035963929258287
0.01000694018555805
0.009973941762000322
0.009979882827028632
0.010019868544768542
0.01004931136732921
0.010051762422081082
0.010036389036104083
0.010021503230091185
0.010037781761493534
0.010087550848256797
0.010120575381442905
0.010136012160219253
0.01014061643742025
0.010146261979825795
0.010135962592903525
0.010097516526002437
0.010051680614706128
0.01002779063070193
0.01003481359919533
0.010068359437864273
0.010116891697980463
0.010155148338526487
0.010160760420840234
0.010134132446255535
0.01009271879447624
0.01006358626531437
0.010071286209858954
0.01011182933812961
0.010145375411957503
0.010134475075174123
0.010096739018335939
0.010087544973939657
0.01011423175688833
0.01011910144239664
0.010074500432237983
0.01002547532087192
0.010006306269206107
0.009998343661427498
0.00999107051640749
0.010002669983077795
0.010030777191277594
0.010045743212103844
0.010035386828240006
0.01001688830088824
0.010007442438509316
0.010004094045143574
0.009994694411288947
0.009979571076110005
0.009966743886470794
0.009953796134795993
0.00994058819487691
0.009933427397627384
0.009923574191052466
0.009917626273818314
0.009946120441891254
0.00998844183748588
0.009997622356750072
0.00999511884758249
0.010016600179951637
0.010033688468392938
0.01001558952499181
0.009980913200415671
0.009954338604584336
0.009940287515055388
0.009946873758453876
0.00998480934649706
0.01003174323355779
0.01004675406962633
0.01003103710943833
0.010022090384736657
0.010033402007538826
0.010052136878948658
0.010082737610209733
0.010138939460739493
0.010194737031124532
0.010189471654593945
0.010112018650397658
0.010012749503366648
0.009985612235032021
0.010023413852322846
0.010059281757567078
0.01007191917160526
0.010081369117833673
0.010088113073725253
0.010085683432407677
0.010094402784015983
0.010131063885055483
0.010181272148620336
0.010219112632330506
0.010228960318490863
0.0102208120864816
0.010213660644367337
0.010205992795526982
0.01019052893621847
0.010167905953712761
0.010141635197214782
0.010124609179329128
0.010135437727440149
0.010176628944464028
0.010220948515925556
0.010239173311274498
0.010240821330808104
0.010248219107743352
0.010253353391308338
0.010244178953580558
0.010230367654003203
0.010219293397385627
0.01020927777979523
0.010210992600768805
0.010233471675310284
0.010248619925696402
0.010224399529397488
0.010176231814548374
0.010136089024599641
0.010117014038842171
0.01012180159566924
0.01014549242798239
0.01018180796643719
0.010223306161351501
0.010245385556481778
0.01023090964416042
0.01020405357470736
0.010198363740928472
0.010211315797641873
0.010216685149352998
0.010203468811232597
0.010181692307814955
0.010162193565629423
0.010160254964139312
0.010194734204560518
0.010252432725392282
0.010299455192871391
0.010325340093113483
0.010327446858864277
0.010301880934275687
0.010271287364885211
0.010257877639960498
0.010246075266040862
0.010216783257201314
0.01017889415146783
0.010148320945445448
0.010137285287491977
0.010151965117547661
0.010174888158217073
0.010187088511884212
0.010190192174632103
0.010177722461521625
0.010147275240160524
0.010124218615237624
0.010119205384980887
0.010110348293092103
0.010080946863163263
0.010047974952030927
0.010039694055449218
0.010052555820439011
0.010072914185002446
0.01010406153043732
0.010135594983585178
0.010147173597943038
0.01013920332537964
0.010124480000231416
0.010113037987612188
0.010111513000447303
0.010128476270474494
0.010164794230367988
0.010187582694925368
0.01015781116206199
0.010096344505436719
0.010061938355211169
0.010067759808152913
0.010082657986786217
0.010091370264999568
0.010096429560799152
0.010093088238500058
0.010081531109753995
0.01008268834091723
0.010112290896940976
0.010137160969898106
0.010114503300283104
0.010069550785701722
0.010053284286987036
0.010063887778669596
0.010067226446699351
0.010054167364723981
0.010039626129437238
0.010019475223962217
0.009987608043011277
0.00997512252535671
0.00999912438681349
0.010024276690091937
0.01002670914400369
0.010021311398595571
0.010016124290414154
0.010010078586637973
0.010003981709014625
0.009987117915879935
0.009963861953001469
0.009958387734368444
0.00996547999791801
0.009967157861683517
0.009972957551945001
0.009988187733106314
0.009996926742605865
0.009988188059069217
0.009970094081945718
0.009967367176432162
0.009985219733789564
0.009991051694378257
0.00996928489068523
0.009946768125519156
0.009942410371731967
0.009941889902111143
0.009934028750285507
0.009934973451308907
0.009957274100743234
0.009995489602442831
0.01004637771518901
0.01009341244585812
0.010105256175156683
0.010077225710265338
0.010035549111198633
0.010005760376807303
0.010000953371636569
0.010030438017565757
0.010077394845429808
0.010087339906021953
0.01003806757973507
0.009979475906584412
0.009963606835808604
0.009982511380221694
0.009998683552257717
0.00999943124363199
0.010003265999257565
0.010027601378969847
0.01005769781768322
0.010068335679825395
0.01006958901649341
0.010080265437718481
0.010081175684463232
0.010054501036647708
0.010027446921449155
0.010033875175286084
0.010065704640001059
0.010084283563774079
0.010076026716269552
0.010067717144265772
0.010074387821368873
0.010082204507198185
0.010086168365087361
0.010097762488294392
0.010122737584169953
0.010157979575451464
0.010187525125220418
0.010162968917284161
0.010080775197129696
0.009986683672759683
0.009975773673504591
0.009999151949305087
0.009995943545363843
0.00999083423288539
0.01000988795189187
0.010034292747732251
0.010047704945318401
0.010046475869603454
0.010033582905307412
0.010032638835255056
0.010062739721033722
0.010097418304067105
0.010097712210845202
0.010077981520444155
0.01007763272849843
0.01009198499377817
0.010091755732428282
0.010072247036732733
0.01005210547707975
0.010057022632099687
0.01009088703431189
0.01013932642992586
0.010140188292134554
0.010102477935142816
0.01008276981767267
0.010095548294484615
0.010120733268558979
0.010157974306493997
0.010204175666440279
0.010228549167513847
0.01021603772882372
0.010189072221983224
0.010172405773773789
0.010174456145614385
0.010184700714889914
0.010180650991387666
0.010166238606907428
0.01016765269683674
0.010183479562401771
0.010196406841278077
0.010205439925193786
0.010203882928472012
0.010182324999477714
0.010160286813043058
0.010156324631534517
0.010159105923958123
0.010158314374275506
0.010156198947224766
0.010157306662295014
0.010166898614261299
0.01017747042234987
0.010179876952897758
0.01018385470379144
0.010199809782207012
0.010226640806067736
0.010254812508355826
0.010273337992839516
0.010285760718397796
0.01030427953461185
0.010327323144301771
0.010330585828050971
0.010293723498471082
0.010237241075374185
0.010197950350120664
0.010182387370150536
0.010174088247586041
0.010157255697995424
0.01013156266650185
0.01012704024091363
0.010168417047243566
0.010220073121599853
0.010234488896094263
0.010220764114055782
0.010201352580916137
0.010174444071017206
0.010136259128339589
0.010087611395865679
0.010048163870815188
0.01005256175994873
0.01009776446968317
0.01014390426222235
0.010173440929502248
0.010204684643540532
0.01025051054544747
0.010291398740373553
0.0102991760824807
0.010272950362414122
0.010247049026656897
0.010253998038824647
0.010279320843983442
0.010292715735267847
0.010296449905727059
0.010300958650186659
0.010302050998434424
0.010300364587455988
0.01030502222944051
0.010311714806593954
0.010305271472316236
0.01028961771633476
0.01027283477364108
0.010236377080436796
0.010180332134477794
0.010156188542023301
0.010192572840023785
0.010244113660883158
0.010265075245406478
0.010269085215404629
0.010273575803730638
0.010268371358979494
0.010265665776096285
0.010298995294142514
0.010364572776015848
0.01041649945313111
0.010426705738063901
0.010406472396571189
0.010369370244443416
0.010330413326155394
0.010312868577893824
0.010313475315924733
0.01030640980694443
0.010290434332564474
0.010296164941973985
0.010334491874091327
0.010369256243575365
0.010371986334212125
0.010360223590396345
0.0103610185906291
0.010376416288781911
0.01039309123530984
0.010409029573202134
0.010432273040059954
0.010451897149905562
0.010447142689954489
0.010427583719138055
0.010410605538636446
0.010389233226887881
0.010368286469019949
0.010368849448859692
0.010389067826326936
0.010409362828359008
0.010412827855907381
0.010388762897346169
0.010351966300513596
0.010337165750097483
0.010342274464201183
0.01032973863882944
0.010290034578647465
0.010255127595737577
0.010260202093049883
0.010300264477264136
0.010334564598742872
0.01034750895574689
0.010365292944479734
0.010402424638159572
0.01043508515227586
0.010438786193262786
0.01042636438505724
0.010427749287337064
0.010446406118571758
0.010455663693137466
0.01043306888313964
0.010395351855549961
0.010378291015513241
0.01037989002885297
0.010369782727211714
0.01035025815712288
0.010349146397784352
0.010353235467337072
0.010325662151444703
0.010286126292776317
0.010289207086898386
0.010335995100904256
0.01037411015247926
0.010378082029055803
0.01037509409012273
0.010383391524665058
0.010380882283207028
0.010352512984536589
0.010320604552980513
0.010306479185819626
0.010298593589104711
0.010282739668618888
0.010266468266490848
0.010257301798556
0.010254005482420326
0.010249907090328634
0.010236633406020702
0.010223572363611311
0.010229828641749919
0.010265000362414867
0.01032034344272688
0.010357946706935763
0.010354276474099606
0.010334634860046208
0.010319494975265115
0.010301879509352147
0.010288347299210727
0.010309057268314064
0.010351183000020683
0.010393063714727759
0.010362048053648322
0.010290594280231744
0.010240991602186113
0.01021966107422486
0.010199833870865404
0.01017831202596426
0.010178682608529926
0.010208932203240692
0.010235363312531262
0.010225039988290519
0.010190621647052468
0.010170536555815488
0.010193567844107748
0.010250992830842734
0.010303261980880052
0.010334166602697224
0.010354482950642705
0.010364755392074584
0.01036679606186226
0.010376506492029876
0.010390231017954648
0.010385957665275782
0.010372037610504776
0.010367486162576824
0.010359299269039184
0.010337963758502156
0.010318425167351961
0.010309797951485962
0.010308030659798533
0.010302154037635774
0.010280179472174496
0.010248840546701103
0.010228439106140286
0.01022084039170295
0.010215007630176843
0.010215549061540515
0.01023275581886992
0.010258331061340869
0.010266327124554664
0.010243816929869354
0.010224585386458785
0.010248464955948293
0.01028559782076627
0.010281796362251043
0.010254433781374245
0.010251032914966344
0.010272884680889547
0.010297948915977032
0.010313783781602978
0.010322703237179667
0.01033166291890666
0.010324616574216634
0.010289412399288267
0.01026254563825205
0.010277709350921213
0.010298619393724949
0.010274444636888803
0.010225490797311068
0.010196457752026617
0.010183379722293466
0.01017189932288602
0.010169709003530442
0.010174634959548711
0.010176401836797595
0.010181119323242456
0.010194364946801215
0.010205986427608877
0.010210449774749577
0.010208618158940226
0.010196723958943039
0.010188362798653544
0.010200452036224305
0.010207848439458758
0.010191329917870463
0.010194843565113843
0.010250362642109394
0.010313837029971183
0.010338675631210208
0.010334942429326475
0.010323996115475893
0.01029801081167534
0.010247592381201685
0.010188177956733853
0.010139574769418687
0.010120291667990387
0.010151758952997626
0.010222094589844346
0.010276861023157835
0.010279092497657984
0.010252403838094323
0.010242163743823767
0.010254982919432222
0.010261173420585691
0.010240062403026969
0.010202645047102124
0.010177295682951807
0.010182647448964417
0.010211462678853422
0.010229410186875612
0.010210031461901962
0.010185807296074927
0.010206504508387297
0.010251066735945643
0.010259841561783105
0.010228879747446627
0.010203061995562167
0.010200432376004756
0.010201653884723782
0.010197307595517487
0.010191754202824086
0.010170023199170828
0.01011246705893427
0.010049731689505279
0.010044619254767895
0.010106617903802543
0.01018367994343862
0.010224489839747547
0.01021481173345819
0.010188425376545638
0.010190228004939855
0.01020810724934563
0.010197150083258747
0.010161734549328685
0.01013517242623493
0.010109972751233726
0.010071706513408572
0.01004657985875383
0.01004905542358756
0.010055317531805486
0.010054169783834367
0.010059604365378618
0.010077130172867328
0.010091271332930774
0.010085600684396923
0.010070218909531832
0.010069152552168815
0.010080681815743446
0.010080668644513935
0.010058333454653621
0.010028478272724897
0.010011663564946503
0.010012940689921378
0.010019204020500183
0.010019277455285192
0.01002865142421797
0.01006375047378242
0.010105152670294047
0.010123055959120393
0.010108009651303292
0.010073506000917404
0.010052277287468315
0.010061058674473315
0.010071014929562807
0.010053814649581909
0.010031297486275435
0.010036107394844293
0.010053494065068662
0.010050435329321771
0.010035721636377275
0.01003449511481449
0.010033988014329224
0.010010382595937698
0.009976419876329601
0.009962300395127386
0.009978099062573164
0.010003829770721496
0.010006141236517578
0.009988104111980646
0.009992837051395326
0.010026917161885649
0.010040627873968333
0.010005787529516965
0.009959542236756533
0.009953646352514625
0.009989430941641331
0.010020444188266992
0.010010268497280777
0.009978076396510004
0.009977294232230633
0.010022087160032243
0.01006630688905716
0.010075625518802554
0.010074717020615935
0.010091890441253781
0.010110099466983229
0.010114221619442105
0.010123213205952197
0.010145159396342933
0.010161155732348562
0.010154790161177516
0.010128714016173036
0.010102261039428413
0.010089612556621433
0.010084880474023521
0.010081731621176005
0.010084518040530384
0.010089477179571987
0.010086276046931743
0.010078722517937422
0.010081135095097124
0.010101802847348153
0.010130933006294071
0.010146220633760094
0.01013835460646078
0.010120520314667375
0.010114157812204212
0.010131757853087038
0.010165448361076414
0.010190455135889351
0.01018786202184856
0.010158968246541918
0.010115402622614057
0.010070224094670266
0.01004177325638011
0.010039855565410108
0.010038618620019406
0.010010144144762307
0.009976049298420548
0.009970141458325088
0.009985610446892678
0.010003750552423299
0.010024336164351553
0.010037057353183627
0.010029133304487913
0.010017616245895623
0.010017243544571102
0.010021496920380742
0.010023641921579838
0.010020050678867846
0.010021055967081338
0.010044262518640608
0.010076267700642348
0.010092704438138754
0.010102711296640336
0.010114983364474028
0.0101107586780563
0.010092229982838034
0.01008892838144675
0.01010382862528786
0.010107572863344103
0.010072785669472069
0.010003032220993191
0.009948428214993327
0.009958064509555697
0.01000933072064072
0.010036259589251131
0.010020836214534938
0.010001094092149287
0.009992478766944259
0.009968485161662101
0.009930839340668171
0.009920153284911066
0.009941045516170562
0.009949147892184556
0.009923235124442726
0.009898827434517444
0.009910703538917005
0.00994518378050998
0.00997178947320208
0.009974107674788684
0.009957625905517489
0.009949266572948545
0.009954560515470803
0.009942661144305021
0.009903384693898261
0.009872131259180605
0.009877121092285961
0.009901173107791691
0.009914426861796529
0.009911097188014537
0.009899210198782385
0.009886863769497722
0.009886082380544394
0.00989454091526568
0.009888631994836033
0.009873533768113703
0.009883472679648548
0.009904746825341135
0.009890313071664422
0.009851733720861375
0.009842044771648944
0.009864635248668492
0.009873468633741141
0.009853173883166165
0.009832768575288356
0.00981556023703888
0.00977994380518794
0.009747085112612694
0.009754436695948243
0.009788511507213115
0.00981079535325989
0.009819413619115949
0.0098392527946271
0.009872073950245976
0.009903292225208133
0.009925686810165644
0.009928398281335831
0.009913906452711672
0.009912465610541403
0.00993294251151383
0.009944924612063914
0.009932350523304195
0.009909079156350344
0.009889181738253683
0.009879375805612654
0.009875416017603129
0.009869982749223708
0.009872200915124267
0.009876999806147068
0.009857472816947847
0.009842480237130075
0.009899280075915158
0.01000335673103109
0.010055815454106777
0.010030731644947081
0.009989995085634291
0.009977273317053914
0.00998903339030221
0.010007597038056702
0.010008427619468421
0.009991253660991788
0.009993851322215051
0.010028247020673007
0.010063195037655532
0.01008086841320619
0.010084624364972115
0.010076614788267761
0.010067521187011153
0.010069128235336393
0.010078221659641713
0.01008736899588257
0.010090818142052739
0.010089929501991718
0.010091142943128944
0.010087630627676845
0.01007183472858742
0.010054232235997915
0.010050573337357491
0.01006965774577111
0.010104578887112439
0.010131233599968254
0.010129439239390194
0.010098208955023438
0.01006594383623451
0.010037577056791633
0.010027552242390811
0.010012345868162811
0.009986938496585935
0.009981144671328365
0.010002648034133017
0.010014147071633488
0.009988734279759229
0.00994723214302212
0.009927971907891332
0.009931358688045294
0.009916056774090975
0.009873784442897887
0.009855654635466636
0.009880411352496595
0.009901878884993493
0.009896965851075946
0.009888831591233611
0.009889934009406716
0.009893421153537928
0.0098900016117841
0.009881147029809655
0.009889381630346179
0.00992072034161538
0.009943982474505902
0.009946301677264274
0.009958147711586207
0.00999870351050049
0.010042814323678612
0.010051254380960018
0.01001378681510687
0.009968856272753329
0.009962836040649563
0.009979426898062228
0.009961851621046663
0.009908778045792132
0.009877851179335267
0.00989280452951789
0.009911441553849726
0.009899386477191002
0.009883283760864288
0.009892715774476528
0.00990576111478731
0.009894750136882067
0.009864756176248192
0.009829123271629214
0.009796826718375087
0.009783097684849053
0.009801102669443935
0.009844893652480096
0.009888961636461318
0.009908061441965401
0.009908492597751319
0.009914453832898289
0.009917179490439593
0.00988829453708604
0.009839573733042926
0.009805994334165007
0.009816151219420135
0.009851510263979435
0.009875647367443889
0.009868752772454172
0.009841537137981504
0.009826460725162179
0.009844325319863855
0.009881165530532598
0.009923225019592792
0.009973200226668269
0.010007723928429186
0.009987991135567427
0.009916953139472752
0.009851268511265516
0.009842551273759454
0.009867247892543674
0.009868972452823073
0.009845351956319064
0.00982224648585543
0.009803495479281991
0.009789223328698426
0.009783016578294336
0.009783289448823779
0.009791948916390538
0.009803609028458594
0.00980679461499676
0.009808867783285678
0.009821411084849387
0.009836831078864634
0.00984442031942308
0.009844875331036746
0.00984083404764533
0.00983740720199421
0.009840259621851146
0.009831678345799446
0.009797077730763704
0.009769457222428174
0.009776785273570567
0.009797959483694284
0.009816521401517094
0.009842117682565004
0.009866942462977021
0.009864037611987442
0.009834826444275677
0.009808381723705678
0.009799388635437936
0.009804731889162213
0.009815197808202357
0.009829050428234041
0.009860877722967416
0.00990106601966545
0.00991245960816741
0.009897477198392153
0.009898602955508977
0.009937779363244772
0.009989585096482187
0.010007947462145238
0.009993337143678218
0.00998786476207897
0.009993903797585517
0.009985182150267065
0.009966729492880404
0.009954762344714254
0.009952691167127341
0.009963690540753306
0.009981394275091588
0.009987048611510545
0.009969985347706824
0.009939106148667633
0.009925218082498759
0.009947386141866445
0.009973086514510215
0.009953686497174203
0.009888626052998006
0.009834509498905391
0.009853340983390808
0.009942598536144941
0.010030270079150796
0.010054707899689675
0.010024642737116665
0.009998403461650015
0.010016513667069375
0.010048230076208711
0.010040018178988247
0.010000205633696168
0.009965139280539007
0.009936229325830936
0.009907540371641517
0.009892628837842494
0.009897288726642728
0.009909915644675494
0.009919253373518587
0.00992088432656601
0.009926107178907842
0.00994945524027571
0.009967188560403883
0.009946260014548897
0.00991272516315803
0.009907272581476717
0.009912284121382982
0.009906094768084586
0.009911075106356294
0.009935652881395071
0.009955193286295981
0.009955470045097172
0.009946072832681238
0.00995752181392163
0.01000698166899383
0.010042593595571817
0.010002536543179303
0.009918256355449557
0.00986428339034319
0.009847678018268198
0.009826162471435964
0.009802252661902457
0.009810397285036743
0.009838913644198328
0.009857481862418353
0.009863261748105288
0.009857127813156695
0.009843049952760339
0.009834548418875783
0.009831028948538005
0.009826180511154234
0.009833103504497558
0.00986479417886585
0.00990298986202106
0.009909647204913198
0.009873275484424085
0.009833508930169045
0.009824644145555794
0.009826370235532522
0.009828541949391366
0.009861375181935727
0.009916221976745875
0.009943825623486191
0.009928419825155289
0.009889742929954082
0.009858479623217136
0.009867853256873787
0.00992109600454569
0.009964578757062555
0.009971817983314394
0.009942300296388566
0.009934616452082991
0.009965587388724089
0.009983393226284533
0.009967971660662442
0.009969626755919307
0.010008535988163203
0.010040188173297793
0.010039481041021646
0.010035823923535645
0.010057801501825453
0.010084165311418473
0.010071589273866265
0.010018000421114266
0.009969304979313165
0.009966782396659254
0.010002910224720836
0.010028857293073089
0.010013433920685202
0.00999818094074726
0.010043582797516137
0.010116380020044745
0.010129483367782086
0.01008722450118512
0.01006914403056726
0.010087970823515207
0.010087163290008902
0.010052451291121542
0.010020759028848261
0.010014619471039623
0.010029441595543176
0.010052520553581417
0.010076178794261068
0.010104763465933501
0.010133888961281628
0.01013260068371892
0.010093349667731672
0.010066938039381057
0.010081294614356012
0.010087327652145177
0.010045960056595504
0.009992648812476546
0.00997812268557027
0.010003608351107687
0.010034124527592211
0.010046031076926738
0.010044886821415275
0.010044834064319729
0.010041962051764131
0.010028215255588294
0.010018931289669126
0.010018438897095621
0.010004869764670729
0.009987266538664698
0.00999811886344105
0.010024209229741246
0.010034787717740983
0.010017791842110456
0.009996008521411567
0.009988034036941826
0.009995365738868714
0.010002166370395572
0.009987568818032741
0.009954216741025448
0.009925724340137094
0.009909376783762127
0.009894760218448937
0.009884215937927366
0.00989139621378854
0.009920516894198953
0.009950670839753002
0.009950890035834164
0.009932502247393131
0.00993275442160666
0.009943379173055291
0.009933239663951099
0.00990825548535213
0.009894943656399846
0.009901160169392824
0.009901142548769712
0.0098704240960069
0.009844307906460016
0.009870576139073819
0.009924071349669248
0.009947145690675825
0.009931458020582795
0.009917911775410175
0.009935362997930497
0.00996171812294051
0.00996255103731528
0.009946945672854781
0.00995191596215591
0.00997653400991112
0.009975935849361121
0.009942212291061878
0.009927975009195506
0.009951576448511332
0.009959426929708571
0.009921443562489004
0.00987785445060581
0.009864774004090577
0.00987234000582248
0.009879564819857477
0.009878126070834697
0.009875901828054338
0.009876512251794338
0.009861608697101475
0.009839038003701717
0.009846766686532647
0.009878176131751388
0.009892567556817085
0.009877547950018196
0.00984992993529886
0.009827992252539844
0.00981030372902751
0.009791763471439481
0.009790178798139095
0.009816143470816314
0.009853424548637121
0.009887938867323101
0.009905809338670224
0.009893562567885966
0.009861661798786371
0.009828630245756358
0.009819758818484842
0.009862015761900694
0.00992448985343799
0.00994801337365061
0.009943500105291605
0.009961843087803573
0.009999894245993346
0.010011777048930526
0.009985771328210831
0.009957755450159311
0.00994931799126789
0.009943367389496416
0.009928227667696774
0.0099117715167813
0.009897894668392837
0.00988928536651656
0.009892081595025956
0.00990141864400357
0.009907635773997754
0.009916688941884785
0.009941802842076868
0.009976433021947742
0.009996565547771752
0.009990369705483317
0.009967937343753874
0.009941415074281394
0.009910009759478271
0.009871995330322535
0.009841437267605216
0.009837237547617405
0.009855367655400188
0.009873712558764965
0.009883794677443802
0.0098868241882883
0.009881123527884483
0.009873782889917493
0.00987023965222761
0.009867688822560013
0.009865224298555403
0.009850712071638554
0.00981298559345305
0.009775014934130013
0.009772986718453468
0.00981559647480026
0.009879983593709767
0.009939635598566383
0.009986411365680396
0.010015393341891467
0.010021178405731917
0.010015003548469395
0.010010342893656344
0.01001237879274413
0.010023342478089035
0.01003094956977293
0.010025836254935711
0.010028125427197665
0.010049672212917358
0.010060840845108032
0.010033779244404286
0.009989112720359117
0.009970452825073153
0.00999106391100213
0.010025520250201226
0.010045678159222006
0.010054213053081185
0.010063834050670266
0.010064477792475372
0.010051397015340626
0.010038383798673748
0.010028137466870249
0.010020094532519579
0.010020058492664248
0.010028780945576727
0.010051334772724659
0.010088043943978846
0.010113648595288396
0.010103940414264798
0.010064394548535346
0.01002154429908842
0.010008839929942042
0.010037367392797023
0.010075571849010884
0.01009057709481567
0.010082940699066966
0.010061418856494128
0.010028746456373482
0.010006578657776117
0.010021167597733438
0.010051776659674943
0.010059230155311525
0.010046227304264903
0.010031908496748655
0.010021822033450008
0.010022333539091051
0.010036923876032233
0.010039794617332518
0.009993513114750385
0.00992857627570629
0.009925794773735105
0.009981353271286934
0.010010462864302098
0.009994581339415163
0.009991295330692082
0.010011259659659117
0.01001655388623476
0.01000641644699499
0.0100042495992966
0.010013020338956267
0.010029846706893296
0.010050403715576977
0.010061832431238144
0.010073356260545552
0.010102485418319701
0.010124223108869046
0.010113490782678126
0.010092979529872537
0.01008577718399465
0.010084869435522704
0.010075323295313864
0.010051930090412498
0.01002680568723008
0.01001820201287046
0.01002381467493251
0.010026635844260454
0.010035126290749758
0.010062420654576272
0.010077420731540769
0.010067228709813207
0.010077298448886723
0.010120287830941379
0.010161899344529957
0.01019616014091298
0.010225059995427728
0.01022189334500581
0.010191417343448847
0.010182633090298623
0.010204696168657393
0.010220047775655985
0.010220361882820725
0.010227667668368667
0.010236863414756953
0.010223777503706516
0.010194321523886173
0.010176687005441635
0.010179695640690625
0.01018889345228672
0.01019977395888418
0.010224213071633131
0.01024581290781498
0.010230872295796872
0.010196826353203505
0.010187765003647655
0.010215547657571733
0.010269570462405682
0.01032433110056445
0.010359601138625295
0.010384037171024828
0.010388403811957688
0.010343682295642793
0.010266164124477655
0.01020118031417951
0.01016364737879485
0.010137442098930478
0.010112111549824476
0.010102109762374311
0.010119726452976464
0.010151368365623057
0.010177736894693225
0.010192651292309165
0.010210113667417317
0.010244623192120344
0.010272689072880894
0.01027038408908993
0.010264082127250732
0.010282020734157413
0.010310428040102125
0.010330873616039753
0.010342968597542494
0.010344269082415848
0.010339659845922142
0.010342434954363853
0.010343336858786642
0.010328925154171885
0.010305642688181252
0.010279224920086562
0.010247350498102605
0.010207839794456958
0.0101710563339293
0.010165950756054372
0.010211399025283754
0.010281649180687963
0.010319265380967408
0.010300350014586002
0.010265112544875592
0.010259068126324565
0.01027562502073124
0.010278660375624894
0.01025679312646389
0.010235947696492076
0.010239576208405196
0.010243930409196765
0.010207773230504244
0.010145923297386616
0.010111025578808039
0.0101186923799105
0.010151439206674695
0.01019284361274913
0.010217333668842912
0.010194958110805601
0.010128008604515343
0.010059291860088707
0.01003020626725629
0.010048082717694341
0.010096076161134988
0.01014552366686985
0.010175777121912689
0.010192334465682507
0.010202948139049112
0.010199264879338444
0.01018629749538377
0.010188923690002412
0.010204641665332019
0.010205551236867904
0.010201148993801326
0.01022950452985242
0.010280443523079157
0.01030300670536235
0.010293910175096243
0.01029674369841814
0.010309807506855577
0.010291190296411514
0.01025018596323207
0.0102332874503918
0.010241472232155501
0.010234863159712403
0.010202682029921561
0.010185736007988453
0.010209267167374492
0.010237124732229859
0.01023912206524983
0.010247968130279332
0.010294943591579795
0.010340589634142815
0.010329220676794648
0.010268708691000938
0.010205785781145095
0.010163776227273047
0.010138476577121764
0.01012648270931095
0.010132791344076394
0.010156116518191993
0.010179547974839807
0.010185761123429983
0.010182954457122832
0.010192894348874689
0.010206782405730338
0.010194474223535508
0.010163458650931717
0.01015939986333251
0.010198219718877227
0.01024487784365192
0.010268653116654605
0.010272193623241038
0.010273955697193742
0.010284729178529232
0.010281674973666667
0.010240366531070322
0.010193517778534443
0.01018982750363648
0.010223164544440807
0.010255630677565932
0.010270477952435613
0.010263326682616026
0.010222471302840859
0.010161553251091391
0.010125058838166296
0.01013251081109047
0.010167410257272422
0.010205997221637517
0.01022029845509678
0.010192376021295786
0.010141449186485262
0.010115531405899674
0.010141346545424312
0.010195253198035062
0.010244539007544518
0.010279783811420203
0.010298922946676612
0.010306753190234304
0.010315781768877059
0.010327556852716952
0.010331153820734471
0.01031869852449745
0.010299842290114611
0.010289058804046363
0.010282425505574793
0.010272414674982428
0.010258673974312842
0.010233855720143766
0.01019602564861998
0.010170478804502637
0.010180295249447226
0.010206952739972621
0.010225263440515846
0.010236069858074189
0.01023225903045386
0.010204637704882771
0.010177918223198502
0.01017696516821161
0.010188034598249941
0.010183233316056431
0.01016081436071545
0.010146482684649526
0.010146436160430311
0.01013702069874853
0.01012104342225939
0.010129805679898709
0.010162984216585756
0.010190828340128064
0.010208624033257365
0.010232323652599008
0.010254716041963548
0.010259270807728172
0.01024664185475558
0.010213787243701518
0.010160981621593236
0.010114045201335102
0.01009066229686141
0.01008360851323232
0.010091666907537728
0.010117696968372912
0.01014359523775056
0.01015475051710382
0.010167651807423682
0.010187406186014413
0.010189417880028487
0.010174852565396577
0.010172176223713905
0.010177162566687912
0.010159269426949322
0.010127822153735906
0.010132705674041063
0.010185471936129033
0.01023230915190652
0.010225780874025077
0.010184718710370362
0.0101617449731566
0.010176741401664913
0.010211834779474883
0.01024213450262323
0.010248032531235367
0.010230649439617991
0.010198406935669481
0.010141294889617711
0.010076631803531199
0.01005658932030201
0.010079272149596363
0.010096662137657404
0.0101084228255786
0.010141676422208548
0.010183555854018778
0.010204157968983054
0.010203370803501456
0.01020364867290482
0.010216372672002762
0.010228895463515074
0.01022037108661607
0.010198482845444232
0.010198512624483555
0.010223157464060932
0.010238884112332015
0.01023030808661133
0.01021290878765285
0.010213502296246589
0.010237628438044339
0.01025928538525477
0.010257730518933385
0.010240676181856543
0.010228422235231847
0.010222683569882065
0.010210434552282094
0.010199372312054039
0.0102004110137932
0.01020195275777951
0.010203998489305376
0.010223208512179553
0.010258444766514004
0.010291879603173584
0.010299005592241884
0.010265034160111099
0.010224177362397313
0.010233689635060727
0.010290870235767215
0.010338909409474581
0.010348405472468585
0.010340556071605533
0.010342813769821078
0.010353372544050216
0.01035782199818641
0.010357050858438015
0.010360209820792079
0.010375284932088107
0.010397753291763366
0.010398366516456007
0.010360042052343487
0.010312145780771971
0.010296648547519
0.010319782844744623
0.01035458396654576
0.010381806897930801
0.010404616720043123
0.01042417852440849
0.010426090876571835
0.010398538443259895
0.010347353054676205
0.010294849702622741
0.0102753173164092
0.010302900960668921
0.010344340910669415
0.010354913948103785
0.010329034652095288
0.010301958415657281
0.010302724002394825
0.010313736144453287
0.010302839600481093
0.010278223371133209
0.010269180939067155
0.010275723065715283
0.010277018775232136
0.010279807208571584
0.010314779339823872
0.01036991401342675
0.010394550471100956
0.010394564352463932
0.010435022248420864
0.010521617769263684
0.010576782054267824
0.010565366859082133
0.010539553766138852
0.010529525566380472
0.010500199038069695
0.010443626141641288
0.010405715892557055
0.010401811569463461
0.010402186778374017
0.01039680747082457
0.010399070826824754
0.010397748851682992
0.010365747646428645
0.010315227799583226
0.01028222608845681
0.01026981853414327
0.01026497625047341
0.01026515884557739
0.010261329768691213
0.010257254031021148
0.01027922922745347
0.010320288073271512
0.010334710818715393
0.010304792290553451
0.010260274289175869
0.010227258196100592
0.01020169649971649
0.010179171047639102
0.010171530460938811
0.0101941013103351
0.010239541882183402
0.010265317414887249
0.010246457306202501
0.010220065440516918
0.01022417159518227
0.010238860957324505
0.0102399138873443
0.01024532960029319
0.010273464561905712
0.010312653698492795
0.010339247840456665
0.010340196986217052
0.010321701816283167
0.010300811810884625
0.010290138490963727
0.010279925665818155
0.010246620839461684
0.01020088549470529
0.010175257720984519
0.010158986216410995
0.010121801041532309
0.010070977269206196
0.010036671280395239
0.010043037857394665
0.010092990037519485
0.01015307019231841
0.010177981061860918
0.010169151998125016
0.010170761176850647
0.01019609537674114
0.01021283165551722
0.010201378848869354
0.010180831023026258
0.010180783446412534
0.010199269789736717
0.010202574464492499
0.010178552679717541
0.01015857606427744
0.01017696874216199
0.010222000093199313
0.010245261390227824
0.010235781634692102
0.010224769348278642
0.010214594227727502
0.010195232417900116
0.01018136739730835
0.010176299973390996
0.010179715217091143
0.010206064025405795
0.01023974982323125
0.010244376296177506
0.010224122409708799
0.010213575770612805
0.01021687657572329
0.010211513289250433
0.010205451694782824
0.0102207585494034
0.010246399189345539
0.010264268359169364
0.010274290817324071
0.010284483830910176
0.010301737922709435
0.010312718038912863
0.010291608821135015
0.010240979127120227
0.010197139852680266
0.01018245430663228
0.010171299965586513
0.010138668951112777
0.010107940547168254
0.010105159666854888
0.010120731675997377
0.010140408310107887
0.010166132445447148
0.010189929327461869
0.010184361445717514
0.010154251265339554
0.010150604348164052
0.010194974453188479
0.010251359306275845
0.010281241040211171
0.010274406643584371
0.010247150738723575
0.01022942116484046
0.010234334333799779
0.01025512909051031
0.010293905877042563
0.010356089677661657
0.01041090962709859
0.010409941892139613
0.010360010226722807
0.010312285602558403
0.010281476315576583
0.010249716194812209
0.010225500371307135
0.010231033542659133
0.010254836766980588
0.010263180357869715
0.010246183595154435
0.01022929662372917
0.010235739962663502
0.010245067316573113
0.010225944702979177
0.010197979910299183
0.010196983092464506
0.010212416865397245
0.010211725228000432
0.010184037699364126
0.010141504853963852
0.01010837135836482
0.010101491573732347
0.010111550537403672
0.01011762286303565
0.010116822335403413
0.010124647708144039
0.010141757184173912
0.010150297796353697
0.010153847231995314
0.010170034964103252
0.010190432348754257
0.010192228609230369
0.010169490308035165
0.010142091172747314
0.010135345980525018
0.010143369971774518
0.01014239533804357
0.010133730976376683
0.010131221392657607
0.010132429755758494
0.010132028812076897
0.01013333288487047
0.01013857209822163
0.010143305526580661
0.010143318779300898
0.010146542759612203
0.010155212495010345
0.010158986821770667
0.010170247284695505
0.010199928076472133
0.010215636461507529
0.010196209687273949
0.010169283433351666
0.0101561273727566
0.010145516151096672
0.01013245469192043
0.01013485447736457
0.01015713409986347
0.010171521643642337
0.010167595008388161
0.01016549704130739
0.010157019139733166
0.010121667117346078
0.01009060641285032
0.010093351262621581
0.010090524631086737
0.010051194354891777
0.010011390105355532
0.010003126403316855
0.01001770881237462
0.010044932174496353
0.010080327885225416
0.010106152221560478
0.010109635533299298
0.010100639229640364
0.01008415390504524
0.010060415677726269
0.010061254531610758
0.010105490728747099
0.0101348123466596
0.010096122387330979
0.010034288028255105
0.010011926875449717
0.010024290531873703
0.010046305123250932
0.010069879279471934
0.010086721144616603
0.010095657724887132
0.010104786527808756
0.01011034193681553
0.010100936437956988
0.0100860640918836
0.010098173029255121
0.0101380035886541
0.010154565807897597
0.01012798311887309
0.010103709616232663
0.01011505430797115
0.01014545866753906
0.010169114649761469
0.010178550761193037
0.010171662177890539
0.010148874546866865
0.010127864500973374
0.010125934325624258
0.010132459278684109
0.010130080231465399
0.010120931251440196
0.01011174069950357
0.010102002175990492
0.010082643621135503
0.010044882358051836
0.01001112765399739
0.010013583602849395
0.010030030061025173
0.010014471369795502
0.00997887979960069
0.009962904893327504
0.00996225208742544
0.009956863904371858
0.009958965426776559
0.009981761416420341
0.010005180118605494
0.010014733101706952
0.010031404281035066
0.010064016308169811
0.010089817170519383
0.010104468448553235
0.010118533722124994
0.010121801579371094
0.010110470815561712
0.010105497059412301
0.010124598634429277
0.010160627630539239
0.010179380818735808
0.010152613997925074
0.010102882895153016
0.010084302704781294
0.010111826781649142
0.010144983595237135
0.010150075640995055
0.010141824178863317
0.01015572845004499
0.010198440162930637
0.010234021893702448
0.010229462585411965
0.010198100984562189
0.010173403532244265
0.010158220273442566
0.010132353112567216
0.010105069251731038
0.010105909733101725
0.0101181863527745
0.010101247867569328
0.010067338328808547
0.010056082396768034
0.010070673429872841
0.010086376790422947
0.010084577968809754
0.010070076771080494
0.010060812956653535
0.010059603056870401
0.01006185227073729
0.010070790112949908
0.01007923758821562
0.010069299703463912
0.01003813294460997
0.010009661314543337
0.010003704447299241
0.01000259654596448
0.009998360597528518
0.010024661715142429
0.010078227890189737
0.01009382115676999
0.010048826788552106
0.010004422920756042
0.010005372064188122
0.010031158020719886
0.010062038342002779
0.010094182000029832
0.01011110272957012
0.010101846614852548
0.01007268306100741
0.010038261846639217
0.010012041314039379
0.010007097565103323
0.010036654726136476
0.01007016388233751
0.01005225208355114
0.010000358219258487
0.009968273162376135
0.00994639955693856
0.009905488528311253
0.00985660678241402
0.009820469920523465
0.009813674648758024
0.00985233843093738
0.009915157766081394
0.00993832954671234
0.009902027200441808
0.0098795993370004
0.009928234773688017
0.009998919733334333
0.010032920970115811
0.010045393197797238
0.01005672921659425
0.010053473673760891
0.01003637457964942
0.010021094211842864
0.010007720899302512
0.009995063899550587
0.009997029341757297
0.010023515329230577
0.010056423465721309
0.010062568874564021
0.010040651988238097
0.010027273998130113
0.010036215255968272
0.010041149104945362
0.010031671896576881
0.010023592771030963
0.01001895820023492
0.010008193785324693
0.009997892496176063
0.00999683369183913
0.009988013776019216
0.009964750530198217
0.009965517062228172
0.010005820272490383
0.010038055728655309
0.010032174855004995
0.010008697777520866
0.009980400148779154
0.009946540710516275
0.009924954094458371
0.009931241178419441
0.009951014523394405
0.009956505866721272
0.009938627905212343
0.009920441133435815
0.009923712802119553
0.009929070053622126
0.009910999136045574
0.009887494591530412
0.00988591742934659
0.00989294755505398
0.009881931107956916
0.009849639725871384
0.009804234050679952
0.009770779490936547
0.009785780352540314
0.009836596779059618
0.009866729697678238
0.009858736845199018
0.009845975385978818
0.009845603473950177
0.009836036800406874
0.009814984775148331
0.009818580124992878
0.009850173906888813
0.00987354306038469
0.009886412823107094
0.009908455235417932
0.009925060130190105
0.009917315929196775
0.009902992064598947
0.009899731923360378
0.009899886730127037
0.009900900742504746
0.009903187870513648
0.009890414979308844
0.009854553488548846
0.009817031614948063
0.009807354819495231
0.009831239783670754
0.009867092443164438
0.009891148481983691
0.009890149033162743
0.009856976468581706
0.009802435482852161
0.009762809912208468
0.009763174848631024
0.009784188235644252
0.009795693941414356
0.009799373177811503
0.0098130671097897
0.009839507173746825
0.00986781852087006
0.009887983566150069
0.009893672305624933
0.00988759551430121
0.00987936548423022
0.00986701892921701
0.009852176290005446
0.00985515902750194
0.009873707978986204
