0.009987268787808716
0.010067196912132204
0.010059013706631958
0.009988548608962446
0.009948361916467547
0.009951780349947512
0.009964872726704925
0.010010895554441958
0.01008381014689803
0.010112337667960674
0.010088174303527922
0.010061246589757503
0.010056808122899384
0.010076531763188542
0.01008531583705917
0.01003735585603863
0.00997880554292351
0.009995704004541039
0.010049851974472404
0.010032369799446314
0.009940926877316087
0.009870150110218674
0.009876112472265958
0.009918451039120556
0.009929617804009467
0.009911149479448796
0.009911001743748784
0.009920016997493803
0.00987807092955336
0.009792488273233176
0.009749964838847517
0.009789015299174935
0.00985293423756957
0.009872887239325792
0.00984680257504806
0.00984213883522898
0.009900035976897925
0.009969938977155835
0.01000212618149817
0.010023885807022452
0.010069771099369972
0.01010318010346964
0.010067464287858456
0.00999768278328702
0.009982943239156156
0.01002332397736609
0.010036060267593712
0.009988045480567961
0.009937156273517758
0.009941926379688083
0.009987336457706988
0.01002696166979149
0.01004628335358575
0.010052597427275031
0.010045277634635568
0.01000576644903049
0.00992808701004833
0.009864178206771611
0.009871239883359521
0.009929716303013265
0.009971276619471609
0.009966204157099128
0.009954627640545367
0.009964004817884415
0.00994213841855526
0.009861018501687795
0.009796358903404325
0.009790146860759706
0.009768378853332252
0.009691806193441153
0.009629437092225999
0.00962691938271746
0.009656820779200643
0.009708629918750376
0.009795993585139513
0.009894590140320361
0.009957128935493529
0.009971753498539328
0.009965575076639652
0.009949180267285555
0.009913821029476822
0.009898325107060372
0.009958231621421874
0.010054647265933454
0.010091027731541545
0.01007441212888807
0.01009765638737008
0.01015599158126861
0.010162032465450466
0.01011588460765779
0.010094907977618276
0.010116480838041753
0.010124856033362448
0.010090310962405057
0.010041745849885047
0.01000993950292468
0.009990992399398237
0.009970079171471297
0.009947484121657907
0.009919229021761566
0.009871758741792292
0.009821821956429631
0.009810747399460524
0.009840928055346011
0.009874766285065562
0.009903629380278289
0.00993721058825031
0.009949612414930016
0.0099279092438519
0.009895305724348873
0.009862556415610015
0.009850606916006654
0.00987925831694156
0.009905400250572712
0.009900205335579813
0.009912753994576633
0.00996153536485508
0.010002890899777413
0.0100328850466758
0.01007919283118099
0.010118845193646848
0.010106686633080245
0.010054317391477526
0.01002578068524599
0.01005129118449986
0.01007473272504285
0.010039713461883365
0.009982247992884368
0.009975389512255788
0.010035389801487327
0.010095412547234445
0.010078377667814492
0.010015433414373547
0.010009677675552666
0.010073733667377382
0.010112970264162868
0.010078705244231968
0.01002985157771036
0.010018660989589988
0.010010805034544318
0.009961904594674706
0.009903269459027798
0.009893515864387154
0.009926631895359606
0.009941191510297358
0.009907769022975117
0.009869014204014093
0.009875606389250606
0.009901091852225364
0.009886688133701683
0.009856721996329724
0.009871467591729015
0.009922973457723855
0.009982278600800783
0.010038307702634483
0.010072067035362125
0.01008472530869767
0.010093836672604084
0.01008727730019018
0.01005604255013168
0.010044210979249329
0.010092023378238082
0.010152073139324784
0.010152724110521377
0.010129694435745478
0.010163048910908402
0.010212724516168236
0.010184628169517963
0.010095115469302982
0.010026069427840411
0.010008706517983228
0.01002514140214771
0.01004125343170017
0.01002587256487459
0.009987353952601552
0.009964593958575279
0.009966764736454935
0.009960606349632145
0.009926637946628035
0.009897121211979538
0.009901247450616211
0.009902427289634943
0.009853689118754118
0.009777312981896102
0.009722875512670726
0.009685809924267232
0.009629848452750594
0.00956768731586635
0.009555412125773727
0.009605446122586727
0.009670939962379634
0.009724546442739665
0.009775982787832618
0.00981303621083498
0.009808076801709831
0.009769216717686505
0.009739403678104282
0.009759294448886067
0.00981913208262995
0.00985468618106097
0.009827003155369312
0.009763773300219327
0.009703363485168665
0.009673973363824188
0.009705527508631349
0.009780098607297987
0.009828842028509826
0.00981625497341156
0.009765034019947052
0.009717279337346554
0.00970234079286456
0.009708307064138354
0.00970761721720919
0.009711847600992769
0.009729911885224284
0.00972371278097853
0.009684865816961975
0.009667884111404419
0.009700888423249126
0.009751869663596154
0.009794886743184178
0.009822018679697066
0.009800361946690827
0.009716168681625276
0.009633830592501908
0.009628412642050534
0.009688799837604165
0.00974658785853535
0.00976524333236739
0.009737830443773418
0.009671167128253728
0.009619599170982839
0.009633855235297233
0.009673593684565275
0.009660611383151264
0.009593923278152942
0.009539382215589285
0.009538539364002644
0.009586866411846131
0.00966680807294324
0.009749743519350887
0.009802270480431616
0.009815054521895945
0.00979863517684862
0.009786826390773058
0.009820976369082928
0.009871901266742499
0.009873257044237107
0.00984190302202478
0.00983083553146571
0.00982492057606578
0.009796024158131331
0.009757745394017548
0.00971353470813483
0.00965714949881658
0.009613159184809775
0.0096017679781653
0.00960710920393467
0.009610843013506383
0.009608987607061864
0.009581560140941293
0.009503837923984975
0.009405261727515608
0.009354232356417923
0.009364288072101773
0.009377464032731951
0.009374936972744764
0.009405168378725648
0.009479252842720599
0.00955919538391754
0.009609366273507476
0.009614453881513328
0.00961644216440618
0.009662761820945888
0.009711524029262364
0.009704394543077796
0.009665824850089847
0.009658589961472898
0.009703601342625916
0.009770097741857171
0.009824817117769271
0.0098557946854271
0.009861827215645462
0.009861463741399347
0.009885167691390962
0.009941319851204753
0.010007687357719987
0.010044853123836218
0.010032166996970772
0.009992592725902796
0.009946163643617183
0.00988677459070459
0.009838800153229386
0.009853234274778515
0.009928732479456812
0.010006684453692287
0.010034551261924207
0.010005554878152906
0.009962695729918779
0.009957005805335938
0.00999014896573499
0.010022332994267344
0.010026324919890613
0.009995423727668823
0.009929128494113683
0.009849241089541464
0.0097991588502191
0.009812205687630922
0.009884441525209696
0.009975319576915354
0.010033943010494113
0.010026949874591082
0.00995654933154583
0.009871349127497524
0.00985759136499837
0.009960386969614774
0.010099880422931164
0.010147864962927997
0.010079536775592715
0.009978051118087023
0.009921350299846381
0.009915223706047981
0.00994355714181438
0.01001359238754958
0.010082187014631927
0.010066850401926786
0.00998291456606239
0.009927862214390189
0.00993947013048455
0.009966483884491027
0.009974594027735293
0.009992739509325475
0.01001800931757316
0.010011328551918268
0.00999886742560193
0.010014742671046406
0.010012847206089645
0.009959543123841286
0.009898782845120878
0.009869886673986911
0.009862185418605805
0.009866623773705214
0.009886616813018919
0.009901829336304218
0.009892898488324135
0.009870527216698975
0.009859583373181522
0.00987689168425277
0.009914183947257698
0.009962519016116857
0.010012221648357808
0.01001299822703004
0.009941326903644949
0.0098678635712713
0.009853636145126075
0.00987488514976576
0.00989647587062791
0.009914100675377995
0.009935302548110486
0.009977846671827138
0.010049724909476936
0.01011921707773581
0.010146224708296358
0.010135128784459085
0.010123155598994344
0.010128723012749107
0.010127756427973509
0.010101960024330765
0.010086895553395153
0.010106088335160166
0.010123303027357906
0.010102161299437284
0.01003472104202956
0.009950873928610236
0.009911537093576044
0.009920219308696687
0.009919636696577073
0.009893910801038146
0.0098663488519378
0.009830260374583304
0.009769621840678155
0.00972067065536976
0.009734229194000363
0.00977749576093629
0.009771935183089227
0.00971993371611461
0.009676705752499402
0.009667784017510712
0.009710472461301833
0.009804111579433084
0.009900507482234389
0.00995507713407278
0.009967828097287565
0.009950653857085854
0.009895619954913854
0.009813747331500054
0.009764638487249613
0.00978547582635656
0.009836539237294346
0.009865536969155073
0.00988148121163249
0.009931729172822088
0.010019664235878736
0.010081627019681037
0.010073026798199863
0.010034101610071957
0.010020018012728543
0.010018666153773665
0.009991080777253955
0.009940799875184893
0.009906937591731549
0.009918786231428384
0.009975436967797577
0.01005493221571669
0.010109246701467782
0.010083514626603573
0.009997634815517813
0.009944663494825362
0.009975933106616139
0.010050404116045684
0.010091228710953146
0.010077912197448313
0.010055165365338325
0.010038527676369995
0.01001355290878564
0.010003378055989743
0.010028739583212883
0.010053294657263906
0.010039027770981193
0.010006190256681292
0.009976941647473724
0.009935873534996063
0.009895587980281562
0.009898115401156246
0.009942180959042162
0.00999958835542202
0.01006898364983499
0.010145091996528209
0.010194452509749681
0.010205233411397785
0.010203733504749835
0.010202908795326949
0.010189009734895081
0.010163086496759207
0.010139205607119948
0.010122210043482483
0.01011555161094293
0.01010888114804402
0.010080932674463838
0.010034750811755658
0.00999078321037814
0.00997701212996617
0.010016479967162014
0.010076507246121764
0.010099731194786727
0.010090598673559725
0.01009040183853358
0.010103362977970392
0.010101385980378836
0.010071457920130342
0.010036705927923321
0.010033393271733075
0.010060778693296015
0.010072830617427826
0.010053157266229391
0.010049997852183879
0.010088768173009157
0.010124140833504498
0.010117336236871778
0.010091786263510585
0.010095065790228546
0.010157777301501483
0.010267305325251073
0.010333338633645326
0.010273494021967054
0.010162859805859625
0.010135293337516487
0.01016791268484667
0.01015550734475255
0.010112736970186234
0.010122870279010385
0.010173128182068468
0.010179721901658922
0.010138069805689156
0.010140572793316096
0.010214917990379036
0.01028225946938619
0.01030320933321491
0.010283430519048125
0.010207702738698572
0.0101070766733028
0.010046634499449283
0.010026122354902326
0.010022104023955763
0.010058935452252626
0.010143344006501138
0.010217309696599841
0.010225744436029345
0.010168037046678364
0.01009209094569087
0.010044231184292585
0.010013587509747594
0.009982412937097252
0.009992438652552664
0.010081487928982825
0.010199473260436208
0.010244158755522221
0.010180449564941227
0.010090648599434643
0.01006714572897181
0.010100830716546626
0.010126688331365586
0.010120855271816253
0.010101466667838394
0.010073614905122668
0.010038151491899043
0.01001980723347515
0.00999970474280417
0.009913451110478491
0.009802628033794463
0.009796478089410811
0.009903488312847913
0.01000767809106037
0.010045118930283934
0.010052383574657143
0.010082191114779562
0.010132052078843117
0.010157122330274432
0.010137557173147798
0.01010600134730339
0.010105071521829814
0.010127614908851683
0.010127267516218126
0.01009129632031545
0.01005099119618535
0.010019605890847742
0.009975808260496705
0.00991738218581304
0.009874692338053137
0.009850242342799902
0.009808865997474641
0.009759920798242092
0.009769402688834816
0.009839127520099283
0.009896154841408133
0.00992983730044216
0.009981888926122338
0.010052267604041844
0.010119797689840197
0.010176705727353692
0.010232718780171126
0.010282400250434875
0.010275195173453539
0.010218719099648298
0.010220576245337724
0.01031455853721127
0.010398884981404989
0.010406090309843422
0.010386444178875536
0.010389377307146787
0.01038142254576087
0.010340081523172557
0.010310436934232711
0.010317994216457009
0.010347801484167576
0.010389875099062919
0.010417168461717665
0.010388994268141686
0.010314515966456383
0.010243896062020212
0.010190318278037012
0.010121603310108186
0.01003250468056649
0.009989053388126194
0.01005887428065762
0.010190459140576423
0.010259014170151204
0.010246055445168167
0.010242464125622065
0.01028097138972953
0.010303415018133819
0.01028347932966426
0.010272411485202611
0.010303612046409399
0.010314229598734528
0.010246519122738391
0.010168526086490602
0.010166581650264562
0.010216711242683231
0.010248468490317464
0.010234851778950543
0.010203968812711538
0.01021179981995374
0.01028023595456034
0.010352976103313268
0.010361043754965066
0.010328780030831694
0.010334351868368685
0.010381820863112807
0.010408906317315995
0.010389054650440812
0.01035211632726714
0.0103330909460783
0.010325948484241962
0.010283227283507586
0.010191696817055345
0.01011941277422011
0.010123452320694924
0.010172275819350034
0.01019767198478803
0.010165673939045518
0.010108507755212486
0.010086350485216826
0.010104279639199376
0.010126623639371246
0.010140829954762011
0.01015219650696963
0.010182260102592409
0.010253709068056196
0.010316798666026443
0.01029038269771263
0.01019348445814103
0.010120787706691772
0.010113562990445643
0.0101323407352902
0.010131046045571565
0.010115933860652149
0.010120857653673739
0.010149836379569024
0.010176751932594924
0.010177281482610852
0.01015941740013659
0.010168990516103805
0.010211062226444483
0.010228545384015887
0.010215944920200854
0.010223894454538822
0.010253344632219523
0.010275892948266118
0.010308113335631787
0.01037449368974194
0.01043466178001836
0.010428036407101899
0.010390618676319718
0.01039724565576762
0.01041713698534295
0.010394404572434724
0.010352661698125303
0.010323706311173736
0.010305229309014976
0.010284922984428704
0.010267795701511205
0.010290227173827588
0.010344409656245262
0.010335337021388113
0.010225298542063683
0.010117872008122504
0.010098233057651668
0.010121161008719355
0.010118326568044723
0.01009599570883438
0.010085943196900189
0.010107808911707252
0.010174146469216794
0.010229626714717596
0.010193865045439452
0.010110998298041523
0.010081656177062541
0.010093591201584786
0.010069835470058025
0.010010842678602784
0.009998156656511128
0.010072111100889743
0.010163147957064212
0.010188284777104855
0.010149445664137603
0.010097133025992662
0.010066399141214788
0.010053146595600993
0.010036169646773486
0.01003389187157154
0.010090757480356842
0.01018491173395887
0.010236570083070546
0.010240331003442406
0.010264399060979486
0.010307635157369077
0.010304178413935005
0.010240329715888946
0.010166489207185804
0.010135576128959656
0.010147774366196245
0.010138844880275428
0.010069980036932975
0.010015096410643309
0.010059367918875068
0.010142416190356017
0.01014544682111591
0.01008996197488159
0.010083216920029371
0.010130623732693493
0.010160172393079847
0.01015542836394161
0.010143948995973914
0.010129949504043907
0.010116933584213257
0.0101317820395343
0.010183771483134478
0.010243826915975661
0.010283880461938679
0.010312234740704298
0.010349644788075239
0.010377768024336547
0.010352171615231782
0.010281616460997612
0.010224389776121825
0.010193504763301463
0.010157573707401753
0.01012181468307972
0.010124495504423976
0.010167877874337136
0.010208443917799742
0.010201519890688359
0.010124001754447817
0.01001178616657853
0.00996192208956927
0.010002808994613588
0.010050510098226368
0.01005644790828228
0.010061124244239182
0.010094080707058311
0.010127728132065385
0.010128761660307645
0.010120733459480107
0.01015162977622822
0.010198068788740784
0.010197471445426345
0.010157546186819673
0.010124453606549651
0.010095478370785713
0.01005738050211221
0.010042186137288809
0.010070578805170953
0.010099604472052305
0.01008039098000154
0.01001715914811939
0.009946054988540709
0.009901094238739461
0.009880460093263536
0.009851731541566551
0.009817770423833281
0.009798616578336805
0.009772989475168288
0.009732680467423052
0.009723836786579341
0.009763528839685023
0.009799974143970758
0.009796583426650613
0.00976852556457743
0.00974506241036579
0.009753079512156546
0.009784174438100307
0.0097863651602529
0.009739453485235573
0.009684959386941045
0.009660797286778688
0.009662347314879298
0.009678396051749588
0.009726919832173735
0.009828029600903392
0.009944787456188351
0.009989857529290021
0.009936594176106156
0.009861921595875173
0.00981082473648712
0.009751190959941597
0.009697006444912403
0.009703132072463632
0.009760214581619948
0.009805295122787357
0.00979515710612759
0.009741245862096548
0.009683336864691227
0.00964272095123306
0.009630590775050223
0.009662764261011035
0.00972320071188733
0.009760655148420483
0.009763264011126012
0.009780227937735617
0.009833269759546966
0.00989548342069611
0.009962971524801105
0.01002510845195502
0.010005757454782724
0.00987288580974564
0.009729758878238499
0.00968195752473548
0.009710669375490397
0.009753758409060538
0.009809176828712225
0.009878139114007353
0.009903896511532366
0.009859548839740455
0.009807204850949347
0.009799911030568183
0.00981429812964052
0.009823865592479705
0.00983497196342796
0.009831469506025314
0.00977864078246057
0.009688428989611565
0.009624695137608797
0.009664340273011475
0.009750759210437537
0.009760400021914393
0.009709088131785393
0.009723459132947027
0.009812005476560444
0.009856548083480448
0.009827856866177171
0.00981822210829705
0.009870068232994527
0.009942887867800891
0.009988766866736115
0.009955986270215362
0.00984787254827097
0.009770335482899099
0.009783640163950622
0.009822734664194286
0.009836012551095336
0.009849788504652679
0.00988622676813975
0.009921527435071766
0.009911170501727611
0.009853668462019414
0.009829822895117104
0.00988759180996567
0.009942911169491708
0.009921244650613517
0.00988366498844698
0.009900291941594332
0.009931543194688856
0.0099269887059927
0.00991749855224043
0.009935601672623307
0.009950201283209026
0.00993897155392915
0.009948450261726976
0.010014515267685056
0.010083207816351206
0.010095199544448406
0.010074924153741449
0.010054781641811133
0.010020769929978997
0.009988869656808674
0.010003392132930458
0.01005119803128764
0.010089429230429232
0.010116558219306172
0.010147408111952244
0.01017592579126358
0.010185143288690596
0.010164448500145227
0.010136706451885403
0.01015237774932757
0.010221678302623332
0.01028703520540148
0.010282444704789668
0.010204760120250284
0.010121398461051286
0.010105963244568557
0.01015475245891139
0.010188075250480324
0.010185834972653539
0.010222565224394202
0.01029956735437736
0.01032273078802973
0.01027384655084461
0.010238414017949253
0.010261859006714075
0.010271560163237154
0.010205919519066811
0.010159688000567258
0.010242417140398174
0.010379293423611671
0.010433064359240234
0.010409144500736147
0.010392620072234422
0.01038404823280871
0.01033426906215027
0.010263730315491557
0.010222002498339862
0.010217049126513302
0.010246395142748952
0.010300493289250881
0.01035545073216781
0.010401093859691173
0.010417819910217077
0.010371353777591139
0.010283240973949432
0.010237211084458978
0.010265265158377588
0.010306494091637433
0.010318147120997309
0.010325534713920205
0.010352248805575073
0.010354401611257344
0.010266841757111251
0.010147412938531488
0.010141486937645822
0.010245466292835771
0.010314671574160456
0.010275286443065851
0.010229058477561922
0.010271588852629066
0.010354425699915737
0.010368550219573081
0.01031458175741136
0.010285744005814194
0.010304301138967275
0.010321240725461393
0.010339216669090092
0.010401622517965734
0.01050379105610773
0.010604059547185898
0.010670972361695022
0.010672752044629306
0.010609319887589664
0.010548218616750092
0.010525209286715836
0.01048921920126304
0.010416634816210716
0.010360055819619447
0.010358336800709366
0.01038826810196042
0.0103885070187971
0.010321776478085666
0.010250988616608083
0.010271322375629097
0.010347211116459221
0.01035967209143564
0.010293017213698477
0.010226668391842395
0.010205212959554046
0.010213732440024614
0.010217992467805742
0.010201145212631673
0.010169540476053953
0.010123388499487192
0.010074670494068414
0.010074903985951096
0.010146042832639068
0.010232074065133928
0.010273649403825403
0.01026183491339907
0.010218993998132647
0.01019072209019214
0.0102098129526712
0.01024472288088873
0.010247332889121026
0.010220021805725992
0.010202124156057835
0.010229681062046438
0.010290071635972708
0.010319106865208596
0.010282179983332753
0.010235715603921563
0.010264025670476257
0.010368367820046843
0.0104713922040537
0.010501242387108504
0.010444496246054768
0.010359822371974588
0.010312513906974345
0.010302699590101837
0.01030170475365594
0.010291501451283692
0.01025029256241396
0.010172712437342852
0.010096044002566487
0.010062626365106552
0.010071142620872706
0.010068398073781282
0.009992466361727565
0.009852059695404022
0.009739908170886338
0.009733276274055243
0.009805648853071034
0.009878414594568312
0.009915719728451223
0.00991479998221621
0.009881857121363281
0.009842881432268769
0.009820600908715277
0.009811786708887667
0.009787291584070773
0.009731134863104672
0.009692282893229275
0.009720546896569432
0.009765053882729262
0.009744883510284125
0.009697387260384858
0.009730647411197424
0.009841875047422946
0.009918146668933332
0.00991498733870685
0.009929067476186902
0.010044370256364345
0.010174565990455449
0.010189361297525465
0.010123726555611938
0.010090431123971939
0.010088077606633305
0.010061350748874247
0.010030362792313098
0.010033558816649019
0.010049376632086932
0.010040004968177528
0.01000531729310751
0.009965345985256136
0.009919162676669657
0.009852932433132082
0.009777313761878759
0.009710420297924429
0.00964364651357755
0.009586438552942127
0.009600577796809374
0.009695546517614275
0.009774834425188601
0.009796556981746108
0.009840158943552524
0.009933193437755108
0.00999129710253328
0.009966220415662974
0.009908010850194842
0.009878553454764188
0.00988685087999329
0.009899031643290073
0.009884120323695242
0.009857161215040832
0.009861296499148011
0.009899434575345367
0.009919947537127882
0.009879205154720693
0.00981176360975951
0.00981584785040468
0.009908032838720828
0.009968347118701785
0.00993505617370829
0.009897948186844587
0.009903220990672708
0.009881735483650117
0.009821848669089377
0.009802141184918583
0.009842175566591322
0.009866684877779334
0.009819985351059586
0.009743339016567916
0.009713758223224431
0.009741961476393043
0.009788811528123916
0.00982736585661769
0.009829155972693116
0.009784064418636263
0.009739748497959227
0.009736433709040284
0.009749762867577373
0.009736830058973283
0.009686574896331877
0.009616721444763244
0.009563186508603393
0.009554582850541919
0.009575851862318813
0.009593615997582674
0.009604192522820085
0.009622176396660506
0.009641742089297623
0.009660239052027463
0.00970805186778307
0.009787437035702168
0.00986242770217359
0.009926804658025503
0.009979211245663464
0.009994282987900078
0.009990364236291498
0.010002914541400969
0.009979925663210452
0.009878977001644671
0.009795639291405677
0.009823448141105473
0.009919692624825983
0.009995463443920017
0.010025265128351748
0.010040173770394177
0.0100695899897255
0.010116842684801668
0.010150318492669612
0.010127153976354749
0.010069624627940357
0.010059161949902773
0.010129212767351419
0.010209618560038507
0.010197201713453978
0.010079786009155213
0.009947664365172386
0.009868203555233776
0.009822239554487168
0.009792139662895352
0.009810373969376087
0.009864997658878565
0.009889810318127275
0.009899193851742894
0.009969415958039463
0.010072401887737215
0.010098307426087558
0.010031228268053383
0.009953881117980927
0.009913389913272112
0.009905774798244237
0.009926952607929706
0.009966823798604309
0.010019870435353368
0.010084842785727233
0.010132944856304676
0.01013951915083453
0.010114568891003728
0.010073452584911137
0.010028380579315125
0.009988956546876579
0.009942239394877105
0.009884986758697778
0.009856469463557005
0.009855278756003828
0.00981569073162973
0.009759883508086204
0.009800484427250922
0.009918039271142334
0.009962047077715397
0.009912027285899967
0.009884923982899635
0.009900913534220308
0.00989195476518944
0.009866298751439899
0.009871602249331772
0.009890471526887268
0.00988150539342314
0.009855650062672795
0.009863352486863732
0.009917467071209102
0.009963510930538178
0.009965417524799704
0.009953912734054028
0.009947827057912946
0.009928952076006681
0.009913737471215427
0.009953192954417317
0.01003452907782048
0.010073257149197162
0.010047222613357007
0.010008749684784561
0.009964755573309957
0.009912755743134766
0.009909821103792637
0.009972999249584972
0.01004899718100205
0.010115387483965605
0.010174629378598183
0.010200528725981713
0.010183012029156089
0.010155442997347563
0.010155769875273108
0.010206591142341494
0.01029112445190549
0.010347646726295352
0.010340864860918373
0.010295655098743736
0.0102620892948471
0.01027390629053116
0.010310133220627904
0.010332279806025326
0.010344697802793235
0.010355341779068113
0.01033693281468004
0.010279511157423258
0.010221726335585117
0.010206735513638704
0.010246971810702235
0.010301602124236524
0.010301676590461283
0.010258814136032015
0.010237801964394748
0.010219635651446879
0.010167772041168064
0.010128357305657119
0.01011866718530655
0.010086398024577647
0.010049028960056603
0.010071388948708772
0.010112397505436093
0.010094803674146533
0.010046817369293422
0.010037723353598267
0.010081685644108803
0.010155157130211591
0.010239284199196846
0.01031200002413243
0.01032898762030527
0.010272861064877362
0.010190640650689602
0.010148637981619685
0.010160058820620179
0.010155256350990384
0.010099020379129797
0.01009070843923837
0.010186127547640353
0.010265944828279316
0.010254582092165947
0.01025797933107242
0.010349192060530185
0.010429063439369201
0.010401569916866719
0.010305930755566805
0.01020608308026567
0.010130264298059046
0.010136826145462692
0.010246602909173817
0.010348289960529656
0.01033562283962965
0.010264729561749847
0.010259291604161263
0.010319138905033469
0.010339638646692038
0.010326375872828066
0.010384851302951574
0.010466671285685151
0.010441545732319354
0.010382214470300823
0.010427660017739981
0.01049255723832175
0.010439664884470403
0.010356119433417917
0.010373923585284502
0.010431445208378137
0.010434911297634243
0.01042574881343171
0.010439080642536283
0.010433701444417237
0.0104198791901581
0.010435936623252928
0.010441975062713027
0.010401538389269263
0.010362594521138817
0.010363043015822769
0.010371854272671044
0.010361668604891747
0.010345309232361615
0.01034638320095837
0.010368424099870027
0.010377921473700553
0.010363505666609853
0.010366578144021333
0.010380163728259504
0.010350948085542768
0.01030029775109142
0.010270704545546324
0.010231065151747315
0.01018258768133819
0.010196827207691968
0.010268477383069694
0.010310245726723224
0.0102878592396155
0.010232329296413809
0.01018237333977595
0.010152738075703382
0.010129313957877457
0.01012186705833301
0.010150316262152046
0.010169725820887834
0.010121567763853818
0.01001678936649114
0.00991310785524547
0.009874311515595764
0.009944752012379467
0.010098674893379211
0.010231464377138764
0.010246765855699778
0.010149553825613111
0.010041494730394333
0.010003537095617503
0.010014248944353312
0.010051118209958076
0.010139171038754285
0.010226632715202869
0.01023532188264653
0.01021922409767285
0.010265938725788147
0.010342593872919678
0.01037033298285678
0.010347358502913266
0.010308203876484186
0.010233446885831655
0.010094206021167338
0.009942788106855005
0.009875967083498836
0.00991536249872297
0.009984011470805854
0.010023429994471372
0.010059340072330088
0.010122781272511929
0.010196183586958795
0.010249355831183493
0.010261075990274548
0.010196107721421868
0.010038167641032486
0.009895329624414443
0.009915295371320099
0.010042955703102052
0.01008704926352948
0.01000611509429291
0.009923216567840428
0.00992500153137371
0.009988164470996708
0.010070001557469368
0.01015345029067248
0.010193792716600002
0.010149748241528868
0.010074939539190381
0.01005313606467098
0.010077765453606844
0.010096196099184454
0.010100437875371427
0.010101432278752327
0.010085682328790426
0.010058492301031946
0.010055777952075004
0.010059206020087004
0.010016704117879272
0.009964663728605955
0.00998138777911663
0.010051024481654167
0.010098652520682663
0.010108340349979698
0.010123908026143909
0.010170913834590465
0.01023861778434366
0.010319806437473744
0.010403482161927968
0.010445932978764177
0.010424684039317072
0.010383833355735988
0.010366509300656617
0.010365624397527426
0.010365815463010221
0.010361209311522544
0.010339505958836526
0.010299472594633699
0.010254326772410423
0.010220246170647443
0.01021437449613586
0.010234355453867465
0.010250112682115287
0.010213788605760783
0.010142977721989155
0.010070742075331509
0.01013996594818309
0.010309199371840804
0.010390344636980443
0.010293184164911508
0.01015656657051295
0.010122255044989288
0.010141028640791774
0.010115516292862593
0.010049123659264296
0.010006571831181645
0.01002813494298607
0.010062398940790444
0.010031329828780144
0.009970658228266984
0.00996757643064484
0.01002003536792472
0.010060513420030474
0.010033843738492578
0.009937036803457887
0.009828009512275457
0.009773375848308206
0.009795280038379133
0.009887194253969937
0.010027522859163583
0.010142647696193307
0.010132759825792164
0.009997321779374034
0.009868682958185673
0.009847651249729097
0.009883329172153026
0.009884591104928404
0.009851587552111596
0.009850371631328016
0.009919528146274387
0.01003956759814173
0.010176466305274516
0.010294268040452153
0.010351840143557637
0.010341498123016208
0.01028991575120017
0.010220529020298273
0.01014023408293724
0.010032726214267313
0.009927666978910565
0.009873467651195823
0.009974173693917692
0.01010901594068855
0.010112275537103414
0.010068116914480925
0.010201260303147138
0.010487795197404922
0.010661745825782418
0.010603460574056953
0.01057623140513897
0.01063875389052555
0.010652631781995296
0.01059011666337028
0.010622102713678033
0.010659462802577764
0.010662510020192712
0.01066456531872973
0.010722655155695975
0.010836129635572433
0.010952811441384255
0.011046909517608583
0.01109841828001663
0.011078262457158417
0.011017159931361676
0.010956469462253154
0.010865506730042399
0.010883855568245053
0.01091273230034858
0.010834666232112796
0.010789384059607983
0.010766044883057475
0.010859570037573575
0.011058949113357813
0.01121797003550455
0.01126541170058772
0.011248816158622504
0.011189031412359328
0.01106659509241581
0.010916341517586262
0.01081171969184652
0.010778237527702003
0.010791199130471796
0.010834124446846545
0.010911126581486314
0.011026103689800948
0.011150469693820924
0.011238076942972838
0.011311181378550828
0.011420595552772283
0.011519228073302657
0.011514863690827042
0.011429961242247372
0.011367835919372737
0.011340827508829534
0.011458067109342664
0.01160973519552499
0.01163377296878025
0.011622241062577815
0.011691038820426911
0.011777937933802605
0.011752425651066005
0.011726911959704012
0.011699441531673073
0.011715443192515522
0.01180295275291428
0.011863077378366142
0.011843707635998726
0.011773402174003422
0.011716933485586197
0.011693359052296728
0.011659546697046608
0.011575939445756377
0.011552138167899103
0.011485050844494254
0.01152409742353484
0.011643256596289574
0.011803911314345897
0.011992868697270752
0.01215577423106879
0.012181692465674132
0.01202176169725135
0.012129620199557394
0.012323961954098194
0.012255742475390434
0.012365727894939482
0.01254137630807236
0.012670272095128894
0.012768780635669828
0.012819288936443627
0.012757638313341885
0.012671736208721996
0.012675319178961218
0.01273476165253669
0.012819302927237004
0.012952976985834539
0.013044909692835062
0.01299157147295773
0.013042514743283391
0.013166406007949263
0.01326934373471886
0.013263044755440205
0.01303063411731273
0.01290794531814754
0.012937737579923123
0.012956800549291074
0.012863174437079579
0.012732546422630548
0.012687739101238549
0.012816156100016088
0.012998998304829002
0.013192373756319285
0.01336451679468155
0.013440471983049065
0.0133413903019391
0.01328655973309651
0.01328270605765283
0.013190231486223638
0.01312866685912013
0.01293513475684449
0.012898455783724784
0.01298926092684269
0.013023063861764968
0.012934569171629846
0.012884184017311782
0.012866947567090392
0.013033912354148924
0.013209105625282973
0.013328978538047521
0.013431322295218706
0.013502786147873848
0.01359976212726906
0.013490842164028436
0.013274970399215817
0.013097177075687796
0.013008838966488839
0.012977538965642452
0.013012065659277141
0.013211428727954626
0.013345948664937168
0.013294497695751488
0.013263933840207756
0.013415145494509489
0.013557646991685032
0.013527206487488001
0.013451672152150422
0.013446317983325571
0.013451645413879306
0.01337512873345986
0.013210407651495188
0.013038809113204479
0.012988740492146463
0.013112465476151556
0.013205592262092978
0.013184692340437322
0.01323356872657314
0.013308159001171589
0.013297256687656045
0.013150701648555696
0.013023139226716012
0.01306097247172147
0.013236167107243091
0.013374709349591285
0.013515723638702183
0.01355499981669709
0.013460120304953306
0.013471584178041666
0.013614488481543958
0.0136340612731874
0.01372224702499807
0.013731654318980872
0.014084268638398498
0.014575611383188516
0.014742216039448976
0.014834129454102367
0.014832625284325331
0.014619558930862695
0.014358174058143049
0.014173170162830501
0.014116571480408312
0.014151462942827493
0.014352200210560113
0.014436761778779329
0.014485202603973448
0.014590843508485704
0.014347294110339135
0.01407495740102604
0.013903303300030529
0.013740248503163457
0.01358480707043782
0.013611342587973923
0.01364391586277634
0.01345121302176267
0.013269599629566073
0.013258987523149699
0.013375137210823595
0.013421872667968272
0.013447745044250042
0.01329748415388167
0.013344055905472487
0.013675527076702564
0.013841800421942026
0.014132050478365273
0.014499109485186637
0.014540350704919547
0.014551064455881715
0.014718747274018824
0.014931884305551648
0.014877441297285259
0.01468020687578246
0.014476336936932057
0.014357712415512652
0.014239856686908752
0.014214620890561492
0.014277329521719366
0.014360804855823518
0.014669223574455827
0.014994567199610174
0.015029746999498456
0.01507091079140082
0.014935250638518482
0.014752369355410338
0.014795717110391706
0.014998922778759152
0.0151140084117651
0.015127673642709852
0.01500889109680429
0.01486058147624135
0.01480371831683442
0.014961302122101188
0.01516745173605159
0.015199792182538658
0.015125986782368272
0.015186753158923238
0.01513150937622413
0.015169502638746052
0.015328888457734138
0.015401946199126541
0.015176544659771024
0.015084406218957156
0.015226363881956785
0.015704255963210016
0.01603129372233525
0.016042952889110892
0.01596442752284929
0.015905308241490276
0.01575985473347828
0.015798776836600154
0.015944976033642887
0.01597363437525928
0.015986997443251313
0.01622602195944637
0.016603865907527507
0.01696691142162308
0.01719547586981207
0.017098749643191694
0.01709845011122525
0.01720124055398628
0.017466416743118315
0.017714977448340507
0.01754417706746608
0.017927611980121584
0.018450607480481267
0.018735239582601936
0.019125214114319534
0.019867660661693664
0.0204247856605798
0.020252673402428627
0.020934885914903133
0.021976395728997886
0.023015876873396336
0.02328840022906661
0.023022325704805554
0.02284561580978334
0.022978312545455994
0.023239039222244174
0.02365240114973858
0.0239965169550851
0.02409288068767637
0.023923880574293434
0.02381337720900774
0.02395798657555133
0.02413817145396024
0.024202813177835195
0.024255765478592366
0.02431562680983916
0.02430907967733219
0.024365947803016753
0.024719010875560343
0.025380305831786246
0.025865152284968645
0.025809720249380916
0.026120972824282943
0.026113500909414143
0.02650560475187376
0.02684259634464979
0.026758708658162503
0.027112284977920353
0.027430737821850924
0.027368048655334862
0.02725429474376142
0.02706939769908786
0.027335813166573644
0.02748983124969527
0.02763035828480497
0.02774026704952121
0.027971185843925925
0.028093069482129068
0.028279693655204028
0.028405202876310796
0.02837556490674615
0.028203080780804156
0.02811696212505922
0.02808050157269463
0.028052035248838366
0.02808888410916552
0.02799830223200843
0.027881419451441614
0.0277761946269311
0.027747446883004158
0.02784937062067911
0.02803093593334779
0.02813706253655255
0.028237994671799244
0.02832546076970175
0.028442513740155845
0.028680735207162796
0.028990179293323308
0.029104138889815657
0.029017479601316155
0.02921381909865886
0.029529180380050094
0.029682565440889448
0.029883747447747737
0.03035190874710679
0.030563715868629514
0.030449256866704674
0.030350440409965814
0.03050946745555848
0.030606010707560926
0.03057528191478923
0.03017090778099373
0.029777861048933117
0.02968574521364644
0.02976567491190508
0.02977907097199932
0.029772343887016176
0.029848105744458734
0.03014533727429807
0.03068656157935038
0.031154071395285428
0.0311947413533926
0.030854943031445144
0.03045154966879636
0.030273326691240072
0.03023661460727453
0.030016388026997447
0.029859850520733745
0.029523605857975782
0.029618925887625665
0.03013069316279143
0.029600841638166456
0.029238317967392503
0.029151526063214986
0.02896699518430978
0.02829966594930738
0.02791183601366356
0.028502516581211237
0.028284682766534387
0.02742617255076766
0.02663225960219279
0.02623372614616528
0.026075013030786066
0.026064550154842436
0.025925274076871573
0.02565982298227027
0.02525723133701831
0.02493900034809485
0.02495283616008237
0.025378497561905532
0.0255710330279544
0.0253191651054658
0.025036598623264582
0.024836494280025365
0.025000109137035906
0.025203158224467188
0.025295600672252477
0.025347608514130114
0.025428106461185963
0.02524512287694961
0.02474916334729642
0.025060616948176174
0.02543450044468045
0.025993443070910872
0.02598656027344987
0.026120937515515835
0.026856059653218835
0.02690939923748374
0.02671545310411602
0.027020952953025697
0.02699928441317752
0.02710190854035318
0.02690600330941379
0.026859143774490803
0.026932221229653806
0.026870222920551898
0.026665794695727527
0.026278785467147826
0.025989345151465386
0.025920132829342038
0.0259398485138081
0.026116117478813976
0.026297871011774988
0.026406586200464516
0.026360552101396026
0.026212933757342398
0.02615126483142376
0.02660240266472101
0.027522363278549164
0.02819137878715992
0.028335948397871107
0.028322257206309587
0.0283542258082889
0.028165485872887076
0.028130459841340782
0.02815315662417561
0.02791735135251656
0.027704379227943717
0.027617407182697208
0.027479784453753382
0.027122618369758128
0.026954348168801517
0.026862574336118997
0.02717548770364374
0.02747604564530775
0.02729172891471535
0.027579892030917107
0.027725082391407342
0.02777674756711349
0.027904301492962986
0.02791938019217923
0.02784045346546918
0.02814739489927888
0.028871828131377696
0.029324041826184838
0.029657992562279106
0.030706583159044384
0.03158071930287406
0.03191970296902582
0.0318630038946867
0.031755341144744306
0.03164933297084645
0.0316459461953491
0.0319661509944126
0.032060834013391284
0.03224603021284565
0.0323380191065371
0.032512809564359486
0.03292179875308648
0.03258099886821583
0.03227386402664706
0.032508627229835836
0.03226884483126923
0.03200357170309871
0.03181942162569612
0.03196097096661106
0.03238345574121922
0.03242577900178731
0.03206438103923574
0.031841252155136314
0.03207748203072697
0.03247951442142948
0.03269761440344155
0.03288450164487586
0.033482016162015495
0.03423286152537912
0.03464364601764828
0.03482612979132682
0.035121751159895215
0.0350058323261328
0.034819415842648596
0.034832014061976224
0.03496108047198504
0.03507951732492074
0.03482394373510033
0.03467724791029468
0.03480194025905803
0.03514549198327586
0.034893472115509215
0.03485322448424995
0.03562549091177061
0.03592893421649933
0.035315145691856745
0.03501297302544117
0.034604794753249735
0.03400208165403455
0.0334282347955741
0.033232482147868725
0.03339089277433231
0.03321377622662112
0.033022613446228206
0.03298830101732165
0.03275552507955581
0.0323206474352628
0.03243447623681277
0.032830062611028554
0.03287298259558156
0.03308996019186452
0.0337893261318095
0.03467569513944909
0.035018133206758645
0.03518945682793856
0.035659941157791766
0.036184127030428496
0.03663105331361294
0.03663899921346456
0.03654896128224209
0.03614469880471006
0.03523477882146835
0.03504339284962043
0.03537091315723956
0.035220523104071616
0.03595368946436792
0.03717943458352238
0.03786475678673014
0.0379611642495729
0.03799572223098949
0.038007077134680003
0.037946406533010305
0.03800616105785593
0.038011829277966175
0.03769967834930867
0.03779612881597132
0.03741660250350833
0.03661763007752597
0.036929776750039306
0.03712538275867701
0.03729499709093943
0.03728181590558961
0.037064065607264635
0.03714203719748184
0.037791491693351414
0.03824269518489018
0.03795160121284425
0.03751183060696348
0.03774168535368517
0.03734225327614695
0.03655025862157345
0.035754946835804734
0.03536192379193381
0.03524017611518502
0.03516114642610774
0.035679100914858285
0.03578255941160023
0.03587525493232533
0.03622331848135218
0.036427434985525906
0.0364419284183532
0.03650522287935019
0.03650355877820402
0.036568446487654
0.03653933430556208
0.03740549832116812
0.03797824457520619
0.038071665866300466
0.03831739679910243
0.03769205141812563
0.037346171899698674
0.037591912301722916
0.03767121842363849
0.03723757497500628
0.03661455759312957
0.036446783877909186
0.036285195262171326
0.036028325445950034
0.03542271486483514
0.03541480025742203
0.03599637175677344
0.03603643198963255
0.03575577980373055
0.0359655409026891
0.036179599941242487
0.03607153940713033
0.03652588180964813
0.03706249633338302
0.0370423959591426
0.03702581334160641
0.03678088310640305
0.036725242908578364
0.03627549526281655
0.03536499010864645
0.03478731365641579
0.03491197802359238
0.03484340616967529
0.03495275989640504
0.03486945661250502
0.035385943152941766
0.03653494670055807
0.037857200012076646
0.0388799611851573
0.03930030569434166
0.03954504651017487
0.04031204777304083
0.040990823230240496
0.040984832528047264
0.040696057453751565
0.04051902406616136
0.04031329988036305
0.039676685836166146
0.0388007097854279
0.038492288871202616
0.03861850480316207
0.038804212373215706
0.038795673744753005
0.03840659708250314
0.03883738768054172
0.03906178086530417
0.03889288115082309
0.03901508354814723
0.038754268346820026
0.03832441780716181
0.03826589069794863
0.03729848111746833
0.036269642908591776
0.035896765692159535
0.03594786094268784
0.0359768451936543
0.03610063392901793
0.03613078839145601
0.03604547950671986
0.036193056923802945
0.03684376896591857
0.037282329795416444
0.03721762338653207
0.03722144596045837
0.036839767657220364
0.03655199019005522
0.03645797345554456
0.036303761198651044
0.0362882182165049
0.036491547676268964
0.03636528150178492
0.035597819380927834
0.03542822639923543
0.03555647586705163
0.03574114826507866
0.03660567436600104
0.03721280787838623
0.03758984167827293
0.03876025051111356
0.03968740197597072
0.040072799040935934
0.039390079155564306
0.03891311118379235
0.03871004516724497
0.03816183052025735
0.038063293083105236
0.038066554975230246
0.03776980936294422
0.037659513202961535
0.03743514140369371
0.03770362884504721
0.03783537021372467
0.03830806912621483
0.03850514297373593
0.03844025389524177
0.03895108226919547
0.038923242685850706
0.03861448558047414
0.03848692493978888
0.038554158315528185
0.038925653269980105
0.03934574041282758
0.03979739844799042
0.03979069301858544
0.039789187803398816
0.03942588666686788
0.039030138414818796
0.03889396236976608
0.03898869254393503
0.03869711597217247
0.03842734555713832
0.0385897402279079
0.03855622614501044
0.0384430555277504
0.03838955732760951
0.03819270782871172
0.0381556988763623
0.038264195821247994
0.038427026902791116
0.03873978111427277
0.039086235181894156
0.039197879466228186
0.03908532565459609
0.03926269073272124
0.039773954530246555
0.03959086796501651
0.038601283356547354
0.03720444943988696
0.03595839835703373
0.03581932083237916
0.03600242598447949
0.03536526839248836
0.03457550529390573
0.034154963579494504
0.03405915704555809
0.03403367380145937
0.03391082882415503
0.03390191246755421
0.03414052171632648
0.03443843179615214
0.03420499181374907
0.03349084132350981
0.033046801083255556
0.03325091001112014
0.03301266450667754
0.03288163726683706
0.03312991566257551
0.033336584155913444
0.03323682109592482
0.03329472987446934
0.033686089052353055
0.03380820390302688
0.03356417979346588
0.03339083903469145
0.03362214187392965
0.034002752802334724
0.03367789766518399
0.033656107089482246
0.033720948703121395
0.033503034969326106
0.033459113915450873
0.033355112138669936
0.03344796534627676
0.033952176831662656
0.033958470160141585
0.03375276343896985
0.033598785451613364
0.033840477338526395
0.034066390220541504
0.033871976246591655
0.033373979828320445
0.033268780142534524
0.03299065529601648
0.03293819513637573
0.03225567445158958
0.030805093112867325
0.030014813225716353
0.02960582546889782
0.028300992825534194
0.0272299789567478
0.026817184616811575
0.026864328966476024
0.02687468098476529
0.027226924381684513
0.02774805118329823
0.027921078065410256
0.0277414687233977
0.02754008555551991
0.027573427811730652
0.02772696625906974
0.027573699608910828
0.02692066495073959
0.02618860756745562
0.02593620918923989
0.02568132505286485
0.02532469206722453
0.02508560146437958
0.025127647786866873
0.025258913259021937
0.02521307488437742
0.024869680216070264
0.024335628924891353
0.023887255042791367
0.023503355823922902
0.023243455162737518
0.023194583950098605
0.022795742298476397
0.02272381299175322
0.023192368831951173
0.02360990964109078
0.023584505412727594
0.023297023167833684
0.022895041299052538
0.023127564513124525
0.024102417652029542
0.024951133020222185
0.02483445845078677
0.025755328685045244
0.027545579329598696
0.028503631530329584
0.02825097825843841
0.02869789093034342
0.028676207812968642
0.028665016405284405
0.02825917905429378
0.027834022752940654
0.027556998864747585
0.027602191190235315
0.028109361410606652
0.02841127914376557
0.028417627867311238
0.02849127477267757
0.028721535594668238
0.02901740409899503
0.029162784081418067
0.02920014736475423
0.029471185961738228
0.029323214036412536
0.02951021809130907
0.029845646678004413
0.030085778257343918
0.030131513713859023
0.030082463906146585
0.03055724614765495
0.03131912059849128
0.03164149287855253
0.031365344342775645
0.03145760400919244
0.03178102405741811
0.03208852898096666
0.03232701755827293
0.032643595300614836
0.03273963259300217
0.032710450151935216
0.032773281906265765
0.03286778209265322
0.03319759059697389
0.03327107524732128
0.03326094352640212
0.033278673798777164
0.032984734212514015
0.03302576957968995
0.03323793512769044
0.03300335476174951
0.03301527844974771
0.033046046905219555
0.03318146232748404
0.033189483471214774
0.03309358645696193
0.032963665511924777
0.03297403818229214
0.033089019225444646
0.03321781035978347
0.033291777328122406
0.033307798798196016
0.03325165949761868
0.033287646027747544
0.03334585054777563
0.03363489326555282
0.034160803908016533
0.03459785884711891
0.034673739469144496
0.0348086506430991
0.03475435019470751
0.03454558905214071
0.03428735972614959
0.034422973496839405
0.03510115249082446
0.03579678415087983
0.036056489020120354
0.03570706771221012
0.03578522191150114
0.036073441226035355
0.03630316908704117
0.03628409823635593
0.03648194318404421
0.03659234032733366
0.036815920334775
0.03713949598139152
0.03725527961971238
0.03727743232157081
0.037780916548799726
0.03847211976069957
0.038966565853916106
0.03904134177602828
0.03927851463900879
0.03957121262559667
0.039213098669424656
0.03897766891401261
0.038983624009415505
0.03921823182608932
0.03929878269555047
0.039060479188337924
0.03839404545724392
0.037447512540966274
0.03668743741000071
0.036746322093531486
0.035793601844925436
0.0338870446709916
0.032808227033820005
0.03269130881410092
0.03204609182430431
0.03220360335661098
0.03212666623294354
0.03231663067592308
0.03246735650813207
0.032514136317186054
0.03240374758839607
0.03208269687369466
0.03162490129703656
0.031113062265794723
0.031133095980621875
0.031100162973161788
0.03088628831319511
0.031011242407839746
0.03111921390052885
0.0310495990421623
0.03172746160067618
0.0323097087116912
0.032577615696936846
0.03259658625815064
0.03238099297741428
0.033105217353440825
0.034208348221145574
0.034833731623366476
0.03456027296371758
0.03506605588132516
0.0351905462378636
0.03508009170647711
0.03497668381081894
0.03481128793209791
0.03451720877084881
0.03439756046049297
0.0342958958609961
0.03383623407687992
0.03329929250990972
0.03347716213436797
0.0342727528931573
0.03528437328990549
0.035996768497861924
0.03637163045583293
0.03650342900538817
0.036098438363987954
0.03726364895002916
0.03912424215814099
0.03996661654906347
0.03997627578675747
0.040246011975686995
0.040363788306713104
0.040506091746501625
0.040734896580688656
0.04080535259563476
0.040620447748806326
0.04074878527317196
0.04089911303948611
0.0409970728168264
0.04123909585410729
0.041563852403778585
0.0415128073329106
0.04103941276902333
0.04066669278312474
0.04072809592355043
0.04076918417587876
0.04065098305698484
0.0404589879559353
0.04040515593253076
0.040256062112748625
0.03985622063977644
0.03944225856335834
0.03913361357990652
0.03913546177092939
0.03874922801740468
0.03834254951681942
0.038310158194508406
0.03843030071817338
0.0382499897130765
0.03816891541238874
0.0383095928048715
0.03870140260551125
0.03899265602696687
0.038980787035543474
0.03879575017374009
0.0388053959235549
0.03879858727799729
0.03885251050116494
0.03893475258722901
0.03867883482249454
0.03924212925136089
0.03947192465653643
0.0392729190015234
0.03919621089240536
0.0394511414016597
0.039925856362096966
0.04031468255911022
0.04039475210709497
0.04040997188305482
0.04043509051203728
0.04031289578182623
0.0403597125550732
0.04034684119746089
0.040400292882695796
0.04036219429224729
0.04023900644155219
0.04022293249843642
0.04032872933428735
0.04043202173197642
0.04054853912210092
0.04061040130676702
0.04053140121279284
0.040903001443948594
0.04143608616199344
0.041074999899137765
0.04135220230091363
0.04186441025463864
0.041821602024137976
0.041779929245822134
0.04198620812268928
0.04149130239384249
0.04071510056266561
0.0402382767572999
0.03981781610753387
0.0401295166532509
0.039414963484741744
0.03796699407277629
0.03680602207547054
0.036532904768828305
0.036026294638868424
0.03579819247126579
0.03618090037023649
0.03631477838382125
0.03601579674286768
0.03584533413872123
0.035892464898061006
0.035792294424027205
0.03611915041459724
0.036796003221534195
0.03687200593063608
0.036242441795766356
0.03550107842078432
0.03506693603238091
0.03445380483521149
0.03444138448918238
0.035916449713986366
0.03658375848317519
0.036723383015487346
0.03722782394150272
0.03719220900675282
0.03775439590914175
0.0390925220027566
0.039868422988802193
0.03967273029033094
0.039601665625814346
0.03954444043338299
0.039449776320252566
0.039588991580531
0.03983051349874586
0.039390392496716234
0.039561690725386144
0.04014373037731275
0.040565667354967444
0.04059715636074543
0.04050356586463749
0.04052187168970704
0.0405039286497049
0.04044137645978481
0.040357409787829965
0.04040340155363083
0.04061594520695508
0.040953454044647515
0.04135813738917932
0.041747988695278765
0.0418680003285408
0.04159089160850272
0.04161878960207105
0.041748079566750675
0.04165740897180512
0.041701756722759456
0.04142347960034385
0.040600062529556454
0.0406533115147613
0.0413096237857826
0.041388582724612204
0.040692239466588946
0.04054704749956727
0.040821797309909015
0.04057892211712897
0.0407403086964041
0.04040000357432291
0.039834069546777755
0.03975784258218482
0.0400874014897272
0.04030734314816073
0.03996742800809443
0.03986360292881727
0.03977771545993164
0.04014367735479027
0.04032880849437788
0.04043593273963779
0.04062910734442994
0.04047682537464425
0.04054537604330108
0.040671773748472334
0.04064016732154414
0.04037751176860183
0.04001012553228065
0.03962670387001708
0.039382387110963465
0.039393721895758065
0.03933988593053073
0.039082626495510336
0.03915724855149165
0.039522578436881305
0.0391421166388318
0.03870121661806479
0.03870404562912881
0.03921948201721534
0.03920335449045524
0.039076736718416216
0.038918308813590555
0.038531779418699445
0.03889491516165435
0.039110350699629634
0.03904867437202483
0.03985390905989334
0.040795132094062866
0.04106232739519328
0.041706128157675264
0.04219653534237296
0.04213176858378574
0.042341575687751175
0.04288500720169395
0.043235734722111376
0.04339792294893414
0.0436304275970906
0.04356245526112616
0.043198898253031075
0.042674732434097674
0.04252377265598625
0.042503942479379477
0.04230544256977737
0.04250145168043673
0.04255538193043321
0.04182892043143511
0.04017349283210933
0.03817875758977607
0.03715605939039961
0.03745429225033149
0.03686016199877486
0.03572502122726291
0.03508539880160242
0.03497468733228743
0.03514464799547568
0.0354520484758541
0.03533374468097463
0.03572827501455322
0.03636133547872305
0.03673730199225247
0.036602711179293694
0.036366416634991766
0.03595557750202715
0.03597432227106765
0.03627804073505104
0.03638588289730251
0.03639447964495048
0.036449734743218866
0.036611425508745014
0.03656989258946851
0.03613766327034682
0.035515392462257295
0.034980305812787264
0.03461004873737693
0.03444073765538633
0.034505353604909035
0.0341601718426682
0.03381063028005883
0.0338041147380136
0.03381769861560315
0.03364751223707572
0.03363405918236822
0.033437323258258406
0.033535267948172985
0.03410762605955824
0.03501083001960069
0.03537896238965914
0.03503183504100889
0.03577390847261995
0.03621736850589514
0.03610498761525378
0.036277560638263824
0.03675503608305007
0.036628055004403
0.03631150122266263
0.03672863289481029
0.03670286973705515
0.03663257242646068
0.036313970498740675
0.0361803137534298
0.0359851775248535
0.03620126106543466
0.036964916037395594
0.0371750897099264
0.03711937854764983
0.03747106900671497
0.037780933978501706
0.03786774326348677
0.03789925380609929
0.038089750693179665
0.03826086405897513
0.03856992977438495
0.03856722105992958
0.03805596119025722
0.037786175860092044
0.037695487514138225
0.037706166568677875
0.03783326979726553
0.03736594150774181
0.03722249293001369
0.03751082916278392
0.03784218355780467
0.03904539979295805
0.03962222265545279
0.039142003059387205
0.03965862730983645
0.039305181291420015
0.03877623467007652
0.039054044140502814
0.03835548447445035
0.037983935326337814
0.03775432271650061
0.03731146854814142
0.036951849218457934
0.03703705699648708
0.037398256200831384
0.03751960260095075
0.03715136745711788
0.037417504438199106
0.03814842364052311
0.038354489193297925
0.03822937935590744
0.03842763157561421
0.03830665465677157
0.03765615803189576
0.036902985309716314
0.03658038904424757
0.036690487302839754
0.03659645238891244
0.036414843339007345
0.03606357655953616
0.03564952958608046
0.035491175982169804
0.03582270632032305
0.03570269125979394
0.03546566376695409
0.03549830969888717
0.03475842569256202
0.033779215943068264
0.03344235042808577
0.03324538687709719
0.032909574543591585
0.03275228132726624
0.03264301429502666
0.032301680741365996
0.032024922384880486
0.032039095864165576
0.032046438800171016
0.031994678219780325
0.03195028540678322
0.0328555082087405
0.034111428316682575
0.0344956043921411
0.0349681757716462
0.035286480167414994
0.035329838038887826
0.03557660354068503
0.03552021223120391
0.03559227315243334
0.035755849140696225
0.03594485692214221
0.03597336120903492
0.035878139398992065
0.035749584047589454
0.035673592400271445
0.03534068608889356
0.03473697509849444
0.034805244922172275
0.034130755432415755
0.033671049135737124
0.033831190252676606
0.033965024151839315
0.03380654411157593
0.03374113807920367
0.03360506391152739
0.03343946660170331
0.03332139305071905
0.03343754061264917
0.0336107166740112
0.033684067842550576
0.03382642945507541
0.033634073990397154
0.032846224352251735
0.032672760440036655
0.03279976964695379
0.03260219863150269
0.03251748571870849
0.03264867958147079
0.03292333722347394
0.033064964993391184
0.03312788459705189
0.03312911192653701
0.03315728178946301
0.033427584283053875
0.03360229442128912
0.03373436123598367
0.034324833292048426
0.034955785437487064
0.035454708989709614
0.035277065958362074
0.035245007830671964
0.03514320168411359
0.03415735840331763
0.0334583965362981
0.033885135420132426
0.033785121119581166
0.03323190798284486
0.03234583681449294
0.03179459188133478
0.032054881907533854
0.03193516727071256
0.03164124261122197
0.031529909525997935
0.03167974422452971
0.031528465037699786
0.03099401026731357
0.030847445232793688
0.031160441422834993
0.03110050075920299
0.03082514527719468
0.03048461295897141
0.030572172626852988
0.030320841409265994
0.030232757546473296
0.030451953830197453
0.03062340265605599
0.030655168569646774
0.030558480797335506
0.030456203210633248
0.030405072737485172
0.03025392334908247
0.03044081780128181
0.030281747640110553
0.030541195343248548
0.030913094433490187
0.030912166740745307
0.031181219883728774
0.03196839966112748
0.03283382887253538
0.03320793844992295
0.03321217287098989
0.03361119329929352
0.034304853768553585
0.03474575786385685
0.034978887198958544
0.03496907443739474
0.03476473098853603
0.03467699086526409
0.03465143766952679
0.0346626595640555
0.03404001933056861
0.03311611241893843
0.03288778226822615
0.032441370873712
0.03230052452767268
0.03258494465611875
0.032816014217678456
0.03339461216470227
0.03370373631361872
0.033724575436208395
0.03350229414179921
0.03363016029354185
0.033594428461510686
0.03308293376816437
0.03222827740944922
0.03178507035598159
0.032079390687868
0.032503157858736816
0.032742857064586135
0.032709624976851044
0.03244808729737997
0.03223898970987648
0.03203584126196802
0.03185024692909792
0.031834566497709604
0.031641872867476196
0.031568103136960415
0.03173030483303592
0.031936218061018734
0.03201247812714428
0.03191184711875394
0.03170134311309084
0.03231571214273572
0.03253478128928691
0.03249146837741137
0.03284193580737337
0.03290753702633083
0.03272259264951572
0.0326269291783683
0.03257406627293676
0.03225057924631983
0.032127057954203335
0.03220319079235196
0.03209339791210368
0.03201015202794224
0.03200929373269901
0.031317984645720574
0.030271634513046593
0.029615370396059007
0.029763702759519218
0.029832402640022338
0.02970304408343509
0.02941883779829368
0.029251248028595002
0.028761663022451103
0.02848016934702173
0.028505758051760494
0.02880725011928007
0.028980880067683755
0.028711589295417072
0.028541010918561368
0.028594992710277437
0.028538980453740804
0.02807482425821945
0.027882498593535275
0.02819595803739503
0.02829598806798458
0.028143837156239897
0.027564477960113437
0.0271125539788045
0.027069570664316416
0.02711839574156329
0.027522258770186454
0.02799439299851656
0.027858195905573667
0.028091980288736523
0.028450344081502408
0.028330406325403602
0.02828369684983045
0.02801793435588479
0.028045087782666088
0.027974858982488512
0.02825855208793655
0.02776929550571367
0.02729205067967996
0.0273369175568223
0.02689246472902596
0.026065428969450296
0.02526776859536767
0.02497134818462655
0.02480740482918918
0.024153595315292476
0.02341095682233572
0.023064219171646982
0.02344837418058887
0.024313969903159885
0.02488274483010173
0.024870764932129533
0.02486678326735273
0.024912970156874506
0.024938699300400914
0.02474059571744874
0.02481903704116121
0.025032415261957795
0.02486357495421544
0.024763210641685872
0.024539277332369238
0.0239542711363174
0.023984640552662313
0.024560715479310602
0.025020950224716218
0.024892915706150234
0.02473825333174318
0.02459569581085816
0.024882129561156034
0.025198996590916067
0.025151574271731078
0.024952936759218572
0.025012696562334895
0.025241087989415975
0.025361998591106386
0.025213001742959023
0.025084574106149376
0.025104870984796433
0.025104610747657716
0.025205284508410843
0.0251291299238801
0.025182430075947195
0.024969346816651524
0.02463179428130388
0.024767178625334053
0.02481891746632755
0.024607170682866126
0.024325762987136842
0.024109420902095734
0.023603564819786697
0.023586940432433038
0.023986604479141534
0.02437671970576048
0.02459573791595176
0.024684067845810204
0.024739900934509933
0.024925472494214774
0.025059170939493926
0.025030000789556653
0.024939445704221727
0.024843558797147124
0.025188617145176978
0.025634484975598754
0.025703795093577356
0.025386930198874325
0.025150714132469148
0.02524742798646912
0.02525689197704196
0.025382095337845384
0.025206130859442056
0.024972908662166445
0.024746225769631564
0.02463381350506097
0.024862170827109367
0.02505814730655402
0.02514007516205311
0.024991974271833896
0.025048211107496172
0.024983128076419236
0.024597675113473088
0.02427075122948736
0.024111278597265483
0.024213869802188127
0.02417836866574362
0.024560483989771457
0.025146826768759636
0.025336133600212633
0.024783781128935516
0.025158350786659865
0.02514988173963502
0.02478067690739408
0.024848684421740472
0.024774876958690583
0.02478690571151674
0.024975982706528156
0.02475422728341073
0.024800141796004028
0.025020390243735164
0.0250126040331088
0.02540627754526213
0.0261518834088929
0.02693754966603592
0.027371164890937508
0.02730051763355732
0.02736505800159648
0.02740841924911365
0.027461521059740333
0.02734598347218707
0.02667364404303953
0.025777329949196428
0.025232699650805445
0.02518081592861563
0.025381469435524197
0.02572591426083818
0.02570316572673619
0.025561611517332494
0.02553395915077999
0.025257852850481866
0.0254950066935271
0.0255175019800663
0.025285186688415708
0.025334210591390727
0.024935599518939852
0.024469531925860794
0.024316123370081186
0.02430537119274959
0.02454251729650423
0.024728342874441298
0.02459123053122312
0.02469000584213063
0.024989748359657823
0.02502025672001764
0.024711913308128716
0.024807677613571288
0.025091281346976756
0.02524938743794337
0.025102019109763205
0.02505330525105819
0.024972635463345796
0.0246935603977181
0.024793321965262294
0.024741942312102763
0.02461225268198177
0.02462013775249943
0.024505438315682113
0.02463292457163334
0.024770122573245318
0.02524681163718924
0.025849260713439435
0.026196038702037187
0.026039290081243963
0.025827319100499152
0.02598237242549658
0.026236118245869876
0.026492556943558156
0.02625140792923048
0.025720866746269166
0.02552433646051213
0.025734146286267787
0.02613548548426479
0.026790371048264205
0.02744942638091743
0.028278924995101987
0.028982944751624017
0.029026769322808833
0.030356374247930945
0.03206292061600834
0.033141731177456675
0.03310522817773744
0.03375898726051673
0.03429515599505976
0.034356697327457365
0.03424522711429745
0.034079631506465376
0.03378836484858766
0.03361996424617246
0.03390035536140203
0.034220981749240306
0.03440465745981783
0.03438692012336105
0.034424183294177055
0.03437780971638858
0.034370500140357765
0.03454239277401939
0.03456672415370122
0.03420392501167953
0.033810699617024514
0.03384580576792359
0.03333723071729764
0.03291238834615797
0.03280980373499915
0.032851804534439
0.032853931232821196
0.03288366697495803
0.03279694052878767
0.03279445881256834
0.03247528031934053
0.03218280457425862
0.03224866060772911
0.031924395693931726
0.0314134777826257
0.030968510704115035
0.03090762846637517
0.0312943729525432
0.031302804173901674
0.031522325763944536
0.032037986330688
0.032236883039586245
0.03240125198615715
0.03262923940783367
0.03265534005127847
0.03273345748428255
0.03260480097960681
0.03226650284836069
0.03199241617228836
0.03247182031860575
0.0329119370970875
0.03331806944217533
0.03310009708860889
0.032842476253863426
0.03286596762016416
0.03283921362366527
0.032702638430055234
0.0324169867974706
0.03224320739274845
0.03222886190284044
0.03195276856189594
0.03194842279190198
0.0320992493070662
0.031808259086683395
0.03128430684097111
0.03111881049349904
0.031508374745026234
0.031315561602823436
0.03117221798747778
0.031534280783962455
0.031923240770120175
0.032081478151958435
0.032289838555734605
0.032363432943820956
0.032595752517227086
0.03302220986690372
0.03329996400279924
0.03326552489073947
0.033539153097663074
0.03365204320522025
0.03357168270973489
0.03359770295908675
0.03382758157094941
0.03395885643083602
0.0338321424392052
0.033914190351497384
0.03371611992130056
0.03342238946352154
0.033191988298203794
0.03318110242020339
0.033190984656102956
0.03300846823956818
0.03267141052987427
0.03253611295018345
0.03229398479452357
0.03150555748958141
0.03027439971687272
0.029411597775761036
0.02959687744267285
0.028613379101734608
0.0269371741078794
0.02590923759387806
0.026302465652115643
0.025692714194301514
0.025517060661222786
0.025855612349696456
0.025992815918289124
0.025930614431854338
0.026045746563468128
0.026115974890999497
0.025948910389561205
0.025807364382781087
0.02557469492778182
0.02580846508964896
0.025975441732443868
0.02613726501353085
0.02611628298414871
0.02588120099157095
0.02547182613518089
0.025124539870303123
0.025044517589267342
0.02516528154024854
0.025232815083581953
0.025172443836927415
0.025120543653611094
0.025204580931458623
0.02552797321230173
0.025855745719745755
0.025770861639175566
0.025897930478677153
0.0259619753039442
0.02591258199652657
0.02603493087925017
0.026271234524901956
0.026185251988936217
0.025932480627670885
0.025644084049854427
0.02533796145580709
0.025312114800326527
0.0251945960521698
0.024773087918292733
0.024511486450210215
0.024621474274899812
0.024697893187403678
0.024752425556071104
0.024727596077136694
0.024725593854673208
0.025177033063955606
0.02584604063304141
0.02565800636773929
0.02517866387497634
0.02504638337297365
0.024930664689745755
0.025094318280462175
0.02531968483701348
0.02549458362394944
0.02549118408700451
0.02552337429486215
0.025409241432789713
0.025427723249886184
0.025758598630782215
0.02579802928958088
0.02580248748883605
0.025995336989872157
0.025921790066640825
0.025762501719873397
0.02526979495305568
0.025034096678718924
0.02497396585997194
0.025013111748266967
0.02540595981758088
0.025883809933438896
0.02613438429078087
0.02618783075129613
0.025943968906067313
0.025385188630316406
0.02502648369874805
0.02530404111603275
0.025376496138051152
0.025352832267526538
0.02511653217719868
0.024434938714839517
0.02385632093064487
0.02360569260083139
0.02382429119432345
0.02363964800024405
0.02313689668662846
0.02263265822082758
0.022457554382272066
0.022627960967365652
0.02296170422574505
0.02345934637123719
0.02386480262968689
0.023650625634472816
0.023300914263818414
0.02328532527666539
0.023312086316291242
0.023343246039003132
0.023649965666700155
0.02397371702827513
0.0242011255514808
0.024028726564720274
0.02404355161357671
0.024379934696480633
0.023982902192510664
0.023887854544445874
0.02396718591451645
0.02416364668402821
0.02445456654764712
0.024538668163586408
0.024625048018060626
0.024896512308623643
0.025307030300609767
0.025114575661718846
0.025298887833487244
0.02541718623135239
0.02562195166479796
0.026240561930462716
0.026552531810011715
0.026524547045119105
0.026549540881533176
0.02643240226665512
0.02684003749396652
0.02728544166777283
0.02751663650851697
0.02748923593200743
0.027237076258752494
0.027001845203340053
0.026928037188481538
0.026871368940919637
0.02675542440963909
0.02678880459163338
0.026629526629112662
0.026304852121975274
0.0263176451344043
0.02658073098398745
0.02681209332542494
0.027029543952085077
0.027032747177872806
0.02688590038800612
0.026757225347682833
0.026883881236426533
0.026664985788520425
0.026386188485193997
0.02627760999603197
0.026308828834444284
0.02616559639805928
0.02556945667602122
0.025148228970356287
0.025454126494005323
0.025847418897319584
0.0256515441625379
0.026158611641731114
0.026500603237655015
0.026390817328356207
0.026266807799693197
0.026302763267885894
0.026236280880402772
0.026419723203871398
0.026592092174105346
0.026384807946160434
0.026271605773363262
0.026021401709876955
0.025538368576671928
0.025504251788370312
0.025822714928071946
0.026334931191522627
0.026665864670649173
0.026532014827243985
0.02601309890858829
0.025296868251170963
0.024777713019866497
0.024327369001694025
0.024418251381721347
0.024702716590836643
0.024784228208009153
0.0249267510115169
0.025480364703107626
0.026153369350358845
0.026684837113134564
0.027003300909418614
0.027022981019690633
0.027769760568626223
0.029003067570738495
0.02958928858162835
0.029627792933024467
0.02996065515326336
0.030071242169942707
0.030370047490578145
0.030274396208114923
0.02989245736040175
0.029649289830122143
0.029787307949736715
0.03026185347465798
0.03058714030077681
0.030572956781834363
0.030620268618222327
0.030686514012049883
0.030338976765051484
0.02979206960881129
0.02945967559469864
0.02944895508233458
0.029004949766676873
0.028603722704574466
0.028640730397310108
0.02830390415620059
0.028066329665016383
0.027891857814975083
0.027623192186001688
0.02763963587349281
0.027578527212608606
0.027042927069123833
0.026633789087645708
0.026747121384833008
0.026474927018862216
0.02645393688464537
0.02662931582191959
0.026423459637444465
0.026078944737091662
0.02622335363412276
0.025946891638450324
0.0263644326524809
0.02667425334220752
0.026976090967655183
0.027302902485243977
0.027239636173471807
0.02783561185700819
0.029304007501341402
0.030900565534830095
0.031514726595487444
0.031758160581812266
0.03230466948822141
0.032612066299188884
0.032960766323376446
0.033453334907535465
0.033908862301614134
0.03438227448612451
0.03461644026450813
0.03465565882390365
0.035399381450843065
0.03598896113224328
0.035946824874263254
0.035977048599161204
0.036038698051124814
0.03626169856870547
0.036491971774958075
0.0366651866864413
0.036654389237519354
0.03634747872129083
0.03587839593878016
0.03549117981689051
0.03555396084440872
0.03514536087634042
0.03467924581142143
0.03463503607083112
0.03472469407599419
0.03481138688744977
0.03491110168863088
0.03497326664393768
0.03501742880558595
0.03499665680574253
0.03487941272556782
0.03503748234128579
0.03530944352271035
0.035449173939414325
0.03518739271210507
0.03464487683493644
0.034606507068965585
0.035140938942786304
0.03554504825500771
0.035621574211400005
0.0355189279676415
0.03580490864114836
0.03610379214165732
0.0361061255633831
0.03589971334906295
0.0359462088579312
0.03533759033773094
0.03464807835174724
0.03474216887028888
0.03505348894512281
0.03517445728881285
0.03453851456521079
0.0337751291366294
0.03400109596317634
0.03451019504107535
0.0341770148742944
0.034370168410241604
0.03413427218329161
0.03435223161242902
0.03434898636536673
0.03424108143430203
0.033842692982871084
0.033439920102246105
0.03352671104250476
0.03393857127754018
0.0340820735739544
0.03390777844935656
0.033851807024329904
0.03377612511161715
0.03406673303805292
0.03448285995284096
0.034953777883201836
0.035416911356151104
0.035691562732681634
0.035713167258072644
0.03583051660563797
0.03605659624096006
0.03603559482377022
0.035814326889812946
0.035859045938123016
0.036027252646163105
0.036200019053649155
0.03646608368027955
0.03705370352370665
0.03794414991512895
0.038494128989987074
0.03814723833696917
0.03959999503800646
0.04144704882288352
0.04307715316070244
0.042997457538731396
0.04267465820070356
0.04243862236617133
0.04212155336979777
0.042370112994685766
0.04225181863410398
0.041300674753729255
0.040052202534861865
0.039493286267388614
0.03938668037531898
0.03902369586285204
0.03870219073956832
0.03824119749246165
0.037559580507222565
0.03677038135007024
0.03599038601620123
0.03552839153213427
0.03543216529302299
0.03471913153771311
0.03428849923657253
0.034555939103011045
0.03486118889646605
0.03490715839434415
0.03470839432207867
0.03441321659833193
0.034519208462443204
0.03491375452838838
0.035060679041780535
0.034998347759246824
0.0348977200454101
0.03479882268467918
0.03476239755051211
0.03465486442204565
0.034522720482200384
0.03439998055109754
0.03426090407883749
0.034318811025004836
0.034453500397503375
0.03452149553224444
0.03463245094986633
0.03485637500649318
0.03478413045639172
0.03456247765570879
0.03468552615027875
0.03491931434255093
0.035091422116383914
0.03477588026318699
0.034193333589937536
0.03390170099679381
0.03415858863620087
0.03462308572605252
0.03492871568072587
0.03513781054411083
0.035455482851248235
0.03586079732747748
0.03579262085724622
0.03672903225524351
0.03800022345967591
0.03810879802098498
0.037356161407660696
0.038022552269976584
0.03824077398981899
0.037524481497239325
0.03650325099937618
0.0359304634318687
0.03617578904144466
0.03615884496830404
0.03630264282459393
0.03614645586581901
0.036223112556617705
0.0361250485247001
0.03605890897102654
0.03593287409748882
0.03551141300238669
0.03499303094344214
0.03484776014229283
0.034986961395479736
0.034902468484360724
0.03487858781823888
0.034700108831748365
0.034522417795378714
0.034285110044293104
0.034069628044962885
0.03407461647875607
0.034295895416289565
0.034259724204894156
0.03421089516486973
0.034460531396325676
0.03475739253917709
0.03462153087602928
0.03450133783044294
0.03441018726909533
0.03428590453229845
0.033893037489615384
0.03284668562700972
0.032081775292754175
0.03207037706626579
0.03113484838278964
0.02947800963651389
0.028081642324104907
0.028253056765533982
0.02792682816507295
0.028237004887778312
0.028551471126265823
0.028271180258598178
0.02767437223577872
0.027229898220393806
0.026992903300561012
0.026870416107121854
0.026931457035243512
0.02725260187173262
0.027754956881981343
0.028231990800704806
0.028376576995942742
0.028679757914505898
0.02951062282314524
0.030632064549718053
0.03150770907057449
0.031701635580975565
0.031803658704739064
0.0318407063675113
0.03188252900959924
0.03224223182769492
0.03272861485835165
0.03306105415103957
0.0329395697126165
0.03263713336084038
0.03255445064278319
0.03250955210765824
0.0324252145527862
0.032460553005803375
0.0324525911314413
0.03244230946991593
0.03248378040269017
0.03255592486355454
0.032681619911454615
0.032641542255878446
0.03253148045623675
0.0324591499613598
0.03238234237534925
0.03232453907141462
0.032437596647068856
0.03269774764077738
0.0326729521737434
0.03250745622208342
0.032368745424319056
0.03235264296876267
0.03236370784463361
0.032250582987908276
0.032057439503259955
0.031698550367727875
0.031134208156727253
0.03105212904047221
0.031188435822259636
0.031049381056800485
0.03123176407068968
0.03059644942637533
0.029118114402517676
0.02811201518634334
0.028287380272522568
0.02782268833601847
0.027566659771837296
0.027722732855472713
0.027719726688228547
0.02767103864112869
0.027526518672239035
0.02735690941568464
0.027170231640338896
0.02700544409221038
0.027076163913588972
0.0271262679528445
0.027034348628949375
0.02697942025028169
0.02708150092046708
0.027486272803507746
0.02798786771018058
0.028496549632400274
0.028962012236006557
0.029085967626888306
0.029110616308171303
0.029245493814814835
0.029625759192276745
0.030008894910570235
0.029812144141178578
0.029887606797274202
0.030341938072815537
0.03034802243579179
0.030138736125081778
0.03018922670511529
0.03029942396795377
0.030246267712209375
0.030152529401239008
0.030048563822638243
0.029705106713809073
0.029840624907519667
0.03005979832727462
0.030438851977232843
0.030219895753543825
0.029962625447660686
0.030000521119218318
0.02978446430293843
0.029984592737164348
0.029392925382126123
0.029034897536039352
0.029192240543197842
0.0292662089667283
0.029071229207329453
0.028995410001371055
0.029075474820565432
0.028872319513466208
0.028455924030859024
0.028015341588761657
0.02765971906017512
0.02756684779888019
0.027225338499993087
0.026320393048226833
0.0251963480678387
0.024345720082055777
0.024240815618541092
0.024280065684579313
0.024295474411919715
0.024229806510265916
0.02403255827259272
0.02402138997334987
0.024432990087661893
0.02501329038059339
0.025315599218010902
0.02550916971638799
0.026584041707683356
0.02790748471394181
0.028292083654087037
0.02879344566259533
0.029475670172832907
0.029575683556031435
0.029513265141285955
0.02966206971090287
0.02998034914024174
0.029870139490813016
0.029908046305645256
0.030098640520591288
0.029920514130499214
0.030090802670456468
0.030498871996533127
0.0306640493334271
0.030628527605440468
0.031046428945846857
0.03133870750200003
0.03131192491622642
0.03140857928898186
0.031325557187665255
0.031116812312975525
0.03105772751616314
0.030380848390050234
0.0295339589798823
0.02925331747625023
0.028855725098401307
0.028358797584660353
0.028304629120975734
0.028390073298942296
0.028367366227321326
0.028341228768695145
0.02835562517400831
0.028420645410660653
0.0286209830455482
0.028763676877133548
0.028844765024259686
0.028826223586220293
0.028755255576688798
0.028745819113682954
0.028788996799848973
0.028847972871735694
0.028898848288226874
0.02904202461708337
0.028867223374545573
0.02863612661603838
0.028203286223579198
0.027466526820790024
0.026977941021323205
0.026922237277030945
0.02695860972162336
0.026649247808381914
0.026025362198706718
0.025532470021862538
0.025437606615014374
0.025421307585202158
0.02579045556485653
0.026361311431974174
0.02619914954295382
0.026244875316042453
0.02643872583284974
0.026503798589110374
0.02655486345756799
0.026511715382803232
0.02646995439659804
0.026350340640638025
0.025928174767177552
0.02554894608212635
0.025287660821340978
0.025141900160815567
0.02487046318827197
0.02468618080019951
0.024530028325971218
0.02444047507131472
0.024458401626907288
0.024567308272235095
0.024745772962924094
0.024960095239803196
0.025133806590456515
0.025217903859447686
0.025243200811091812
0.02529726430075243
0.025502316649071873
0.02562914645532146
0.025944985090754925
0.02681020276155323
0.027553613651543855
0.027945365791674705
0.028724791780114174
0.030134302736259996
0.031124460876453666
0.030708668204024434
0.03165413962909952
0.03336022655013949
0.03474852857878432
0.03496410343097523
0.03428191418061033
0.034396829477045684
0.03443374165100977
0.033303335963282735
0.03201078969752416
0.03164924356620759
0.03132458993699402
0.03090695765102282
0.030920094945468008
0.030914112804457546
0.030625938046723603
0.030145116443745793
0.03010224210564047
0.030105350287631154
0.030179657319094985
0.030525968545116484
0.03024898059666157
0.029683233306277545
0.02954693723702803
0.029802774472627788
0.029664084604009985
0.029572234454099088
0.029724586920347063
0.029699466647580264
0.02962944205617532
0.029644624337088317
0.02968086617998779
0.029713038294576107
0.029702587921638043
0.02970552530605346
0.029791704008821397
0.02986941774142906
0.02984807317145169
0.02996063790982589
0.029928591360803693
0.029764232225716114
0.029843697946053
0.030304710131604226
0.030994613838847728
0.031683805058710275
0.03191975757014007
0.03221211105119437
0.033027271679602566
0.03334188457578421
0.03308411856880412
0.033353351200930775
0.03434678948251531
0.034985655739437786
0.03521842387272045
0.034948683767579494
0.03473672916647047
0.035078505685087295
0.03558063853066415
0.03602325267158449
0.03622890960425138
0.03658488003071397
0.03711882138857618
0.037472416481468825
0.03769369563786313
0.03740199597319588
0.036954446230083704
0.036547151589766146
0.03652744422201067
0.0363563926378265
0.03618271323153749
0.03620283494703472
0.036224862202070655
0.03618002438452095
0.03624558511422947
0.036161136673763396
0.03613528657704592
0.03614369238493964
0.03610319745959714
0.03608314083190635
0.03615460759261623
0.03621926040155813
0.036533742733299734
0.036934770778752866
0.037071125928778204
0.0368413488776423
0.036600309351924806
0.036476150581147525
0.03628505072789267
0.03632170075783506
0.0365259992913343
0.0365294760465622
0.036182709618005904
0.03600191683974117
0.03567897450877353
0.03486111381324008
0.03419440183788538
0.03370842217933387
0.03284337849821895
0.03130174443591386
0.030011303361970932
0.03008069479139522
0.028857238560449333
0.026949212818872182
0.02541668600635603
0.024725252073258163
0.024706906150095166
0.02426497022854164
0.02423689274350181
0.024559822215232997
0.02473308891989291
0.024853511780966075
0.024819714922923595
0.024608120620250702
0.024486194900237023
0.02447343588108197
0.024471990659367292
0.024470343035645784
0.024420531566720458
0.024137544482946395
0.023774262168444693
0.023515289768110962
0.023334614082705228
0.02330454335780814
0.023081479186657816
0.022739462638273835
0.02261826757574454
0.02276861863443628
0.02316099504707381
0.023658701276872307
0.02421949294162914
0.024921716758981347
0.025766232667956503
0.026603725084569305
0.026713123344816268
0.027797572233248503
0.029302187808789314
0.029904312875587494
0.030306988002266735
0.030679977464023976
0.03058268303517252
0.030480728698894382
0.030086644708644597
0.029597693125251682
0.029076909346040337
0.02821323976852
0.027995815000031142
0.027730391069781035
0.02695630889153108
0.026635156662669034
0.0268748129112646
0.026658569155260922
0.025820006169378757
0.025246557937934996
0.025269327200949192
0.02537257991032675
0.02538178500253707
0.02505703354254365
0.02478643391979858
0.02486932487692684
0.025087598853278905
0.025058411303907634
0.024615059313364326
0.024384782852139325
0.024709730236791076
0.02507077680900693
0.0246050259959884
0.02443337090080604
0.024582789565902204
0.02445659920107573
0.024364147188607604
0.024289470268413424
0.02419502117903903
0.024168655164539813
0.024232136104255914
0.02431701565394178
0.024405240048654377
0.024441991809289902
0.024560604195576163
0.024546060154680163
0.024462232559453696
0.024290770697407423
0.02395616178633645
0.023641663212329148
0.02358523922273889
0.023719239681959152
0.023653412323910744
0.02357966106850654
0.023725919763091952
0.02405233875848353
0.024334774762392045
0.024384046560153364
0.024544017545413226
0.024921620031818748
0.025323496635537596
0.025472707799635827
0.025397941141854972
0.025494683056604118
0.02567804421298206
0.025818420080468057
0.025994916325435043
0.02643388287629932
0.02714649497065693
0.027551154976245017
0.02733612681971863
0.027645007872488348
0.028077843338251113
0.028217372871004044
0.028155191414989532
0.028276007177773864
0.028560809788759797
0.028632335623260587
0.02842465229332447
0.02855892344377935
0.02878732481971383
0.02901042248820886
0.02910921826492995
0.02907360266428441
0.029106870235409588
0.029314174563623965
0.029548222126904874
0.029748360610101374
0.029989806422963738
0.030098421308211984
0.03034286095527932
0.030655431048944592
0.030715575539506972
0.03050166997127235
0.03007075348868966
0.029552606779616325
0.028962712727952748
0.02827113478211686
0.027357758232392372
0.026550975700374693
0.026489293845370413
0.025420180573128164
0.023832135137636216
0.023240864290855826
0.022860587351024152
0.02226580253103748
0.02218331550480798
0.022385294910054653
0.022770508578978478
0.02285228533204645
0.02262910837540403
0.022690013512037695
0.022651547123678027
0.022850521272048355
0.023051377225201578
0.02306776152458042
0.023137828616891055
0.02375404953956604
0.02437299593118951
0.024230002826079726
0.024245199749711902
0.02414358048001304
0.02429080156609416
0.024675572379492222
0.025693825411144643
0.02661722198361531
0.026756647685542704
0.026456187046132982
0.027011277468409388
0.02742912366753444
0.027218004181049762
0.026824339078739285
0.026864466075785458
0.026896835463121535
0.027063832357525824
0.02727466046111658
0.027542633786797523
0.02789648688863963
0.028216865095309913
0.028177058866713196
0.02857493521180004
0.02929255349095911
0.02968605259200558
0.029791113154496996
0.03027790173655376
0.030784516751300544
0.03112379641039297
0.031258007783908394
0.031326024865265936
0.0313823037664406
0.03130095035536215
0.031136463747825475
0.03114013620885089
0.031178520517423747
0.03114640654763207
0.03071977799758315
0.030280165756121278
0.030170761225745083
0.030055621413048357
0.02962968903593719
0.029263514818158
0.02904806724982336
0.029177355961874128
0.02933003271231428
0.02941689419094473
0.02948604741599411
0.029407997652888297
0.02899151869583875
0.028322054937016217
0.027835877700708805
0.027705713668838144
0.027402548182290046
0.027504807892255484
0.027831039847806095
0.02784376687835902
0.027431720758322627
0.027106898543424903
0.027058506696484984
0.02733219483168796
0.027525488340761513
0.027855079784058035
0.028218792246188968
0.028298311661928893
0.028520823002327233
0.02873676209943369
0.02884796975646168
0.029010047453921287
0.029220951548777522
0.029342927266843618
0.029375966610386967
0.02949546658899635
0.02986801930703223
0.0303796036192216
0.03066002749139443
0.030700689831282945
0.031544343885034326
0.03298893023049459
0.03406286127632484
0.03410531697794795
0.03469109378289431
0.03518129797652364
0.03539122947957367
0.03554107047151774
0.035693073002621534
0.03578522169031203
0.03580125439213589
0.0358689295197837
0.03583952538203448
0.03569029028527439
0.03548680245410651
0.035319493159186095
0.03523418446769938
0.03515267384471372
0.03496870078379288
0.03484199555357918
0.03488266570493579
0.03468585248570889
0.0339960225392133
0.03331961060175672
0.03320423414232209
0.032941261255182326
0.03315676459344104
0.03332177998963744
0.03313414218137041
0.031819887962192296
0.030263429018668832
0.029492090665735306
0.02932514586020261
0.028645145972259343
0.028091172762215136
0.027959198257885873
0.02811097577214241
0.028194143106229603
0.02805813734419644
0.027736048938240856
0.027520588154438884
0.02735645749140531
0.027008413933217526
0.02687326487386599
0.027320243099238722
0.027479369272477926
0.027329991452861576
0.027233659846242517
0.027123729882296176
0.02695028777932748
0.026852234725374728
0.02669217609334737
0.026746717914938926
0.02706649143481627
0.02710601355182007
0.026990544206928462
0.027339262368623166
0.02786286004818976
0.028177264309488238
0.02810783013002947
0.028208632965106516
0.028458054699003695
0.028737125189509244
0.02895191953750327
0.029046905364375562
0.02907330191927031
0.02934259091503918
0.02950508022448048
0.029450989882461726
0.02929935126565397
0.02924606278538704
0.029331400964874774
0.029475770716089755
0.02969345001038164
0.02999688905896619
0.03016101711196825
0.0298840234358795
0.0294534850330092
0.029267889484763145
0.029382902882061898
0.02939781514694914
0.02947526447242126
0.029515421600081027
0.029422643303405493
0.02925655531231314
0.028979553615208715
0.028616505309473725
0.028446216378360988
0.028312947861850263
0.02806751841912046
0.027754937312565744
0.02743388656526804
0.027118980570230634
0.02694239451549947
0.02683109588455409
0.026515300632454455
0.025875483402051033
0.025257149832323193
0.025149875979404896
0.02534700151765719
0.024557678720448166
0.023076088922098278
0.022000251971185207
0.022041580495424568
0.021391625583637507
0.020849671645555644
0.02094402818242088
0.021613075316417964
0.022254275016020984
0.022377025068271904
0.02250926981912926
0.022904887024778872
0.023453969904221595
0.024194885110482574
0.02468392111826688
0.024858102509751914
0.02538593247300014
0.025556912075262516
0.02546855795197189
0.02547816122183576
0.025388445695862173
0.02534142347751185
0.02529191721463576
0.02539102982962504
0.02569709805538878
0.025943246388342233
0.026035799274686723
0.02607495054602623
0.02619127101730555
0.026294686051551254
0.026329298128839582
0.026397675960324704
0.026568429074250163
0.02675716585246846
0.026853394112549722
0.026817267937585713
0.026588598212692886
0.026783880875445903
0.027050516325980423
0.027171561394352464
0.02706017981749028
0.026955581444781274
0.02712026218418032
0.027245561061426997
0.02707100064959377
0.02649564801948145
0.02578570234356448
0.025480426861904562
0.025582376646343618
0.025245240782387556
0.024772376811597496
0.02462901601335034
0.024552498783450574
0.024199851541779935
0.023986858632415533
0.023926084046252072
0.0235534578259103
0.023142936632502824
0.022917633431497962
0.022925004959106446
0.022716919810045512
0.02256403303006664
0.022615729584358632
0.022752920743077994
0.022868490172550084
0.022805464565753938
0.022665997084695844
0.022697702213190497
0.02288830646313727
0.02295072643086314
0.02277266432531178
0.022729737907648085
0.022852499631699174
0.022917759798001498
0.02273585843620822
0.022609128481708467
0.022621004933025688
0.02264444051776081
0.022703836222644894
0.02293881930410862
0.023466024699155243
0.02353095554281026
0.023304044969845564
0.023533416746649893
0.023827268108725548
0.02374095789389685
0.023636132297106087
0.023919601715169846
0.023982240748591722
0.023889568659942597
0.02392894498538226
0.02388553666882217
0.02407579139340669
0.02429952173260972
0.02432304644957185
0.024198028708342464
0.024125474381726235
0.023963795765303074
0.023753206559922545
0.023551534055732192
0.023495166040956975
0.02362343862419948
0.023818757780827583
0.023981705110054465
0.02406635896069929
0.02419446698622778
0.024035369611810894
0.023195044891908764
0.02248003301443532
0.02234580023214221
0.02224342764588073
0.021804079031571746
0.021136417405214162
0.020378528931178152
0.019991421296726913
0.01984044802375138
0.019351795890834182
0.019177216023672373
0.019163659098558126
0.019185049347579478
0.01952330973930657
0.01977684177691117
0.01983624157262966
0.019704915608745068
0.01948612071108073
0.01928736239904538
0.019160336693748833
0.01928010575706139
0.01982869718456641
0.020607767093461005
0.02109458182938397
0.021049669431522488
0.021436083659064024
0.021903003130573778
0.022228478942997752
0.02257920286618173
0.02305639282800257
0.02277199688134715
0.02274140726076439
0.023040347015485168
0.023336278696078808
0.02332838726695627
0.023145442290697246
0.022821687397081406
0.022512419454287738
0.022392156627029182
0.02251774484291673
0.022695487563032656
0.022766521591693165
0.022831211723387243
0.02293142960872501
0.023014868116006254
0.02299126829020679
0.022915894058533014
0.022872727178037167
0.022934471920598297
0.023068963414989412
0.023129390333779157
0.023076217679772526
0.023036076966673136
0.023044155365787446
0.022961318013258278
0.02270186471519992
0.022383609923999757
0.02222229418344796
0.022305008999537676
0.02229754824191332
0.022027084676083178
0.021778785355854778
0.021786690561566503
0.021910816063173116
0.02176483717514202
0.0214232788188383
0.021090474114753305
0.020958505605813117
0.020990640602540224
0.02108707219362259
0.021033880894538014
0.021095205459278076
0.021105824708938598
0.021145783190149814
0.0215926117869094
0.022397823971696196
0.022536228518001734
0.022119965460151433
0.022563392214942725
0.023314486623276023
0.023738569649867713
0.023976586640346794
0.02419172537513077
0.024328354655299336
0.024408956258557737
0.024009557750541716
0.023979852062184365
0.024288530761841686
0.024499803001526745
0.024476333076599986
0.02458431420614943
0.02472339232917875
0.024787045465782285
0.024825791423209013
0.02486854417482391
0.024846642294432966
0.024775775570888073
0.024854945414699615
0.024907282181084157
0.024887597730848938
0.024898657212033867
0.024837147523649038
0.024638050859794022
0.024703644439578055
0.02493965357542038
0.02512100857682526
0.025159177414607256
0.025252009115647525
0.025716531730722636
0.026498977518640457
0.027641218050848692
0.0288930700533092
0.029429955021478237
0.029321202563587577
0.030113474593963473
0.03171285751275718
0.0336249492270872
0.03500528718344867
0.03529147092020139
0.03547783060465008
0.035333195459097626
0.03463596851332113
0.033992015400435775
0.03396704148733989
0.03451203601667657
0.03450890882173553
0.03420408296631649
0.033725157503504306
0.03318379965377972
0.03288150099804625
0.0329778599110432
0.03263046191073954
0.03221149788703769
0.031886763467919084
0.031875156634487214
0.03205053648911416
0.03234841786092147
0.03273301732959226
0.03315499942982569
0.03340843345504254
0.0334123551636003
0.033334827325306834
0.033297375780530276
0.033212748244404795
0.033095921517815444
0.032963263865094634
0.03298629595898092
0.03296575813787058
0.03301452618092299
0.03300177916418761
0.03280482912901789
0.032849131806287915
0.0330427337763831
0.0332559151831083
0.03333539809333161
0.033301130726467815
0.03337195668369532
0.033577912875916806
0.03376173462253064
0.03389611145248637
0.03398142894962802
0.0339542519999668
0.03384476299164817
0.03374162335181609
0.033757565321866426
0.03374075677711517
0.033717759612482044
0.0337120485980995
0.03363225765759125
0.0335895194998011
0.033603100506588816
0.03323107936652377
0.032662448708433656
0.03204909075982869
0.03138821417000145
0.030876054135151206
0.030831672737840564
0.031145122749730945
0.030681119472719728
0.029930075539741665
0.029362477851100265
0.029061187384650113
0.02884085919940844
0.02871248163515702
0.02858033693395555
0.028595348093658685
0.02825493938755244
0.02791411554440856
0.02791844124905765
0.028079412907827644
0.028003457959275693
0.027730711605399846
0.027539883251301946
0.02748173223575577
0.027447425208520143
0.02738137707579881
0.02729825647547841
0.02723528660601005
0.027209876235574484
0.027301666000857948
0.02754146488616243
0.02758977029239759
0.02760055716848001
0.027461748060304672
0.027188299526460468
0.027011977876536548
0.026792887393385173
0.026565304757095873
0.026289397357031702
0.025622615951579063
0.02436049313051626
0.0232902570348233
0.022984011305961758
0.02315554067026824
0.02239203894743696
0.02084884885698557
0.019008019084576517
0.017767578340135516
0.017650318776722997
0.017402673491742463
0.017014562860131265
0.016842669136822225
0.016697121243923904
0.01630673594539985
0.015703333041165023
0.015183805921114981
0.014834680771455168
0.0147653531213291
0.014702393603511155
0.014598685901146382
0.014525832049548626
0.014559498738963157
0.014655435162130743
0.014783532922156156
0.014826293380465358
0.014804265077691526
0.01470745122525841
0.014503815385978669
0.014235533806495369
0.01402805520221591
0.013931223005056382
0.013870684746652841
0.013808132731355727
0.013787385555915535
0.013758521981071681
0.013796547774691135
0.013780329688452185
0.013801263584755362
0.013661774063948542
0.013511936159338801
0.013527219695970417
0.013409148445352912
0.013266925634816289
0.01318656392628327
0.013161922965664416
0.013149846103042364
0.013137726390268653
0.013074066988192499
0.012894116120878606
0.012724679799284787
0.012761824526824056
0.012941339518874884
0.013057345140259713
0.013053671368397772
0.013132576181087643
0.013185392597224564
0.013185487578157335
0.013285393670666962
0.013328481756616384
0.013263933300040663
0.013228631541132928
0.013265660831239074
0.01331440699286759
0.013399585648439825
0.013465631236322224
0.013356170437764376
0.013072209302335977
0.01278130457503721
0.012585907001048327
0.012456509976182133
0.01235754849622026
0.012311755754053593
0.012334000607952476
0.012277367413043977
0.012212545911315828
0.012369343524333089
0.012661833055317403
0.012757052213419228
0.01251785189844668
0.01248520040186122
0.012442565220408142
0.0126615400868468
0.01282405416481197
0.012782970110420138
0.012718558348715304
0.012755840765312314
0.012771877979394048
0.01267618796089664
0.012546398411504924
0.012506783052813261
0.012525818161666393
0.012562016495503486
0.012677289554849267
0.012807757079135626
0.013066271843854338
0.0131822380842641
0.01317726168083027
0.013127484919968992
0.012950606234371663
0.012815806553699077
0.012939032830763609
0.012843653475865722
0.012546621712390333
0.012189597149845213
0.011837558574043214
0.011643591267056764
0.0115812882874161
0.01159080243203789
0.011640973663888872
0.011749100538436323
0.011931636582594364
0.012108267692383379
0.012190577853471041
0.012229374665766955
0.012316531909164041
0.012358786934055389
0.012424016434233636
0.012480744638014584
0.012617631359025836
0.012653130870312453
0.012613637496251613
0.012621975557412951
0.012641966044902801
0.012695057091768831
0.012700075432658196
0.012661129345651716
0.01264889608602971
0.012635979005135595
0.012577139956410974
0.012522798988502473
0.012518918071873487
0.01250197134912014
0.012464379295706748
0.012570573526900261
0.012615909739397467
0.012591058907564729
0.012536431106273085
0.012463059325236827
0.012490281213540583
0.012506825723685324
0.012629776070825756
0.012738596976269036
0.01282087567495182
0.012891350821591914
0.012963583106175064
0.012993047453928739
0.012900921402033418
0.0127452406543307
0.012664183548185975
0.012614203114062549
0.012453073016367854
0.012206758751999587
0.012070804601535201
0.012199971820227801
0.012281326032243668
0.012370134291704743
0.012386173035483807
0.01227855232777074
0.012220908931922167
0.012207760473247618
0.012106061188969761
0.011967417295090854
0.011927225219551474
0.011954722576774657
0.011948540990706533
0.011866261204704642
0.011765734381042421
0.011785656618885696
0.012000116100534797
0.012289866057690233
0.01247367988107726
0.012567823249846698
0.012702569358516484
0.01279504905687645
0.012783762065228075
0.012680806096177548
0.01241956556448713
0.012197954112198204
0.012237752261571587
0.012218397483229637
0.012322559773456305
0.012129551880061627
0.011936379729304463
0.01196567461360246
0.012077921186573803
0.012142753067892045
0.012227732234168797
0.012355002465192229
0.012447150726802646
0.012410311026033015
0.012316831483040004
0.01230962540023029
0.012375777100678532
0.0123265301855281
0.01208862712373957
0.011867001357022672
0.01186485683778301
0.01189156598644331
0.011835456169210374
0.011833468114491551
0.011733513015788049
0.01165540836052969
0.011672979553695768
0.011712065106257797
0.011803548189345748
0.011866995701566338
0.011890351173933595
0.01184225438395515
0.01175717837177217
0.011687056855298578
0.011619221444707364
0.011561996871605515
0.011557483493816108
0.01157338688382879
0.011535622684750706
0.011469854912720621
0.01148609330644831
0.011597333760000765
0.01168486468726769
0.011693097183015198
0.011687157414853573
0.011695164905395359
0.01168484971160069
0.011659432384185493
0.011623932328075171
0.011510300191584975
0.011318143117241561
0.011193358462769538
0.011126701100729407
0.01101523547200486
0.01087897025514394
0.010842672127764671
0.010949409175664187
0.01105065645184368
0.011261849340517074
0.011408653364051134
0.011443576675374061
0.011534956272225828
0.011604068158194423
0.011684990122448653
0.011655309775378556
0.011585182214621454
0.01151411392726004
0.011432389572728425
0.011333139487542212
0.011249237575102598
0.011237933831289411
0.011331931091845035
0.011486594304442406
0.011620350738521665
0.011738671381026506
0.011879630503244698
0.011947791778948159
0.011840448041912168
0.011670844850596041
0.011604308714158833
0.01163043592358008
0.011681487334426493
0.011772115235216915
0.011924900126177817
0.012124278643168509
0.012304125800728798
0.01239697717828676
0.012396337422542274
0.012356978643219918
0.012342672317754478
0.01233683557016775
0.012253669349011034
0.01206196347484365
0.011873144467826932
0.011803305670619012
0.011769547241274268
0.011645029440987855
0.011556318195071072
0.011604644111357629
0.011582260951399803
0.011562322741374373
0.011575598632916809
0.011565048357006162
0.011448475602082907
0.01139143163105473
0.011471726475283503
0.011627429309301078
0.01173040116438642
0.011701861063484103
0.011583511531352998
0.011504139371681958
0.011513195093721151
0.011547709973528981
0.011558817795012145
0.011523058982565998
0.011427929941564798
0.0113240711344406
0.011281928932294249
0.011313374855089932
0.011365125274751335
0.011363231160212308
0.011314767529256642
0.011325231597293168
0.01129385927459225
0.011344986585900187
0.011397548145614564
0.011433966446202249
0.01151935591828078
0.01159489704761654
0.011601483428385108
0.011578895328566432
0.011582747630309314
0.011572046163491905
0.01151036559836939
0.011476602116599679
0.011507499506697058
0.01154851263621822
0.011612072207499295
0.011713794337119908
0.011754411372821778
0.011676235138438643
0.01148708161432296
0.011267216585110873
0.011169349462725221
0.011204387620091438
0.011254784793127328
0.01122208850691095
0.01112564385170117
0.011039256965741515
0.011018982783425599
0.01105608334299177
0.011058986061252654
0.011050996812991798
0.011116774703841656
0.011264306001830846
0.011393274229485542
0.01136906529776752
0.011188844563439488
0.010961497542448342
0.010787802264094353
0.010670362836681307
0.010608974169008434
0.010523407775908709
0.010528203041758388
0.01056301528820768
0.010559227166231722
0.01051938129356131
0.010480154966935516
0.010502490345388651
0.010610648058354854
0.01070840678876266
0.010681070976424963
0.010595084892120212
0.010612831367179752
0.010713388316798956
0.010740628319326788
0.010682890741154551
0.010651832004077733
0.010667153976392
0.010685083398129791
0.010703002759255469
0.010704522917512805
0.010658007578458637
0.010570280661340803
0.010455198022536933
0.010336963620502501
0.010286968178115785
0.010340979900211095
0.010437449761666358
0.010539427185431122
0.010695095949340611
0.010898178196512162
0.011025360720232129
0.010991390149574726
0.010880021606571972
0.010839534397237003
0.010910328412428498
0.010980472089722753
0.011013786108233035
0.01102063655620441
0.011005217509809881
0.01098593435017392
0.01100316027412191
0.011077245220076293
0.011117182767484336
0.011071581807918847
0.010952526943292469
0.010854504981543868
0.010852899518795311
0.010923778172582388
0.010966232470236719
0.010906384156551213
0.010784858854021877
0.010703007078263908
0.01069395182421431
0.01070490868994966
0.010708074127323925
0.010721706519834697
0.010718419540207833
0.010659075230360032
0.01061160262208432
0.010636229049414397
0.010672868518158794
0.010636308919638396
0.010635632392950355
0.010645560843404383
0.010610355611424893
0.01053684408776462
0.010503482865169644
0.01052590786712244
0.010505419096443803
0.0103848673729226
0.010285694829653948
0.010316350853536278
0.010349930443335325
0.010237477058544754
0.010035168728791177
0.009869918418116868
0.009832325803581626
0.009961242405697703
0.010130787449888885
0.010214304835535586
0.010243922106456011
0.01027897493680939
0.010314178669359535
0.01028718098765239
0.01020204949658364
0.010147218005731701
0.010154809062369168
0.010272765839472413
0.01042973279953003
0.01056378185050562
0.010663173738867044
0.010687583549879491
0.010603501009754837
0.010477241012267768
0.010415163177531212
0.010437833745963871
0.010493029179051518
0.010552177955396473
0.010621470739133656
0.010656978748738766
0.01072816974716261
0.010721225645393134
0.010700604130979627
0.010738601847551764
0.010768783641979099
0.010751973441801965
0.010766784325242043
0.010811306363902986
0.010790720640216023
0.01069652737583965
0.01060527506750077
0.010549827448558062
0.010505140321329235
0.010505713103339077
0.010612641090992837
0.010753094707615674
0.010804475571494549
0.010761797011364252
0.010699230721220374
0.010671158272307366
0.010670362685341389
0.010657227074261755
0.010636203289031983
0.010630726036615669
0.010599237307906151
0.010509142493829131
0.010414946533273906
0.010339313144795597
0.010223557848948985
0.010079632403794676
0.01001918374793604
0.010076719170901924
0.010154635692015291
0.01016544789308682
0.01012533086584881
0.010098600601777434
0.010109175993129611
0.010133963443804532
0.010163838346488773
0.010216465468984097
0.010257846063468605
0.01022531463066116
0.010180113811511547
0.01024133085506037
0.010376986558549106
0.010469824466854334
0.010472758796531707
0.010389198542106896
0.010277232609223575
0.01024932584259659
0.010324801076203585
0.010386251488234848
0.010354421748779714
0.010271718206349761
0.010188327303621918
0.010128550194203854
0.010149154646787792
0.0102718199766241
0.010388737651519478
0.010416610215324909
0.010413809823803603
0.010457553495652973
0.010405485613737255
0.010298767464701087
0.010211144511122256
0.010183150779921562
0.01026253288378939
0.010322705451399088
0.010305101331323386
0.010248469968792051
0.010180176654830574
0.010121171437203884
0.010146182801108808
0.010305834712926298
0.010521607943810523
0.010646033675875514
0.010612091768998654
0.010483946700114757
0.01036889326525852
0.01031676837708801
0.010312249441631139
0.010334606170654298
0.010389840856660157
0.010483558566775172
0.010620128363370895
0.010766347176395357
0.010880097611807287
0.010849135601893068
0.010730704348534346
0.010654325566720217
0.010661641377955675
0.010694967897143215
0.010696975504979491
0.010676840669475496
0.01067147102439776
0.010690985743422062
0.01073510126909241
0.010796009853947908
0.010827610935084522
0.010787244855891913
0.010710296435281635
0.010671392413787544
0.010656135464087129
0.01060488969553262
0.010562081043608486
0.01057462366996333
0.010586445888038724
0.010577288025524467
0.010609867118764668
0.010714080650359392
0.010813025394454598
0.010788071269635111
0.010627974348608404
0.010436575000640005
0.010307503559160977
0.010254716684576124
0.010240219861734658
0.010247141080908477
0.010283567691221834
0.010333728566765786
0.010374059707392008
0.010397297523450106
0.010398197451140732
0.010392910216469318
0.01040946185356006
0.01043073610868305
0.010431758374907077
0.010412488365545869
0.010360734143760056
0.01029393485514447
0.010266723358072341
0.010279964501969517
0.010299820119980723
0.010331159702036529
0.010365742051508278
0.010354791330173611
0.010289624216966331
0.010221195803023875
0.010201753459405154
0.010228861577343196
0.010248493643011898
0.010246414372231812
0.010282261732500046
0.010373941408470273
0.010430452714208513
0.01037757023004815
0.010274923187680543
0.010232795651536435
0.010271387023385615
0.010304151664022355
0.010253869590815156
0.010176846766844392
0.010188526965212077
0.010295613303314894
0.01042485162615776
0.010509389811195433
0.010498459138907491
0.010424896543845534
0.01038491452112794
0.01038594570942223
0.010361898778937758
0.010319720804691315
0.010341120134107769
0.010420904830098152
0.01052330649457872
0.010611737282015383
0.01057011443655938
0.010477984608151018
0.010449675950221718
0.010495210378430785
0.010543982610106467
0.010560868778266013
0.01053785637486726
0.010436855074949562
0.010280499085783958
0.010199082070030271
0.010249239620752632
0.010326280687004329
0.010351843382231891
0.010373985441401602
0.010415586112067103
0.010406077490188181
0.010326131233014166
0.010229675932787358
0.01011481307912618
0.009984165625646711
0.009925250723026692
0.009963412173092365
0.010015234733000398
0.010029518473893405
0.010019395872950554
0.01001026320271194
0.01002763892058283
0.010072725708596408
0.010109573658555747
0.010110343964770436
0.010082757296040655
0.010047523938119411
0.010031724185682833
0.010066009848378599
0.010148448888212442
0.010233883112668991
0.010287677906453609
0.010333463293500244
0.010392398978583515
0.010410226043313741
0.010322808139026165
0.010154027570970357
0.01000324083957821
0.00991819272749126
0.009850524910725654
0.009802705529145896
0.009840700458735228
0.009924303088337184
0.009953491915948688
0.009947569635696709
0.009968276438303291
0.009976111808791757
0.009954379354603589
0.009986572470515966
0.01006953646428883
0.010110708530992269
0.010126710361801088
0.010162654682062566
0.010133675020188092
0.010090541252866387
0.009969379273243248
0.010018600285984575
0.0102533751539886
0.01045615185983479
0.010465826145373286
0.010353828016668558
0.010264742961153388
0.010228557488881051
0.010224344935268163
0.010258199428208173
0.010315119894221425
0.010353028257377446
0.010344155160710215
0.01030988092534244
0.010329397115856408
0.010415814784355461
0.01043118402827531
0.010295705324970185
0.010158538445830345
0.010171923865564168
0.010253919316455721
0.010257986835204064
0.010211419006809592
0.010214360137470067
0.010252645793370903
0.010243869493715465
0.010172667540609836
0.010087202955037355
0.010008019050583244
0.00995202229823917
0.009983567236922682
0.01008422926068306
0.01012615291401744
0.010107161165215074
0.01016521536745131
0.010324750333093108
0.010467615518718958
0.010495513542555273
0.010404310026206075
0.010286176819354296
0.010241440972313285
0.010260572195984424
0.01028576897457242
0.010321051422506571
0.010363931758329272
0.010357412057928742
0.01029479464981705
0.010242120488546788
0.01023446258623153
0.010223485929891467
0.010140955080278218
0.010017354767769574
0.009978321944363416
0.010084896851330995
0.010267775463871658
0.010432788585312665
0.010540701798163354
0.010612815991044045
0.010705174948088824
0.010815314557403326
0.010848172651603817
0.010733674596995115
0.010651702382601798
0.010575582198798656
0.010507184602320195
0.010504135964438319
0.010519592422060669
0.010535976276732981
0.010544481836259365
0.010526907201856374
0.01047086960170418
0.01044034500606358
0.010511359446682036
0.010630506593734025
0.010691529628820718
0.010670307339169086
0.01059660429134965
0.01050485109910369
0.010446949498727917
0.01045225238893181
0.010487367631867528
0.010530789787881077
0.01057424867991358
0.01057120069861412
0.010526788588613271
0.010512325074523687
0.010546498759649693
0.010597160747274757
0.01064338168129325
0.010667094611562788
0.010670798029750586
0.010678558442741633
0.010651561790145933
0.010543868313543498
0.010468280082568527
0.010548182516358792
0.010673699965700507
0.010707865469157696
0.010747451628558337
0.010792809980921447
0.010891728540882469
0.010794365867041052
0.01056891999207437
0.010408511064015328
0.010327859339304269
0.010295078437775374
0.010221148491837084
0.010152270230464637
0.010088492794893681
0.010066600381396711
0.010154631012119353
0.010339513844810426
0.010502850441262125
0.010558989206328988
0.010540105556137859
0.010523326196707785
0.010528969890438021
0.010534247537143528
0.01053169823717326
0.010511299660429359
0.010466153491288424
0.010425211833789945
0.010404975074343382
0.010382575895637274
0.010330765848048032
0.010273880623281002
0.010257675414904951
0.01028422832954675
0.010502111245878042
0.010743108806200325
0.010809621647931636
0.010752418637275695
0.010746516506187617
0.010809558690525592
0.01083682524971664
0.010799222253262996
0.010751828826032579
0.010750803705304861
0.01081918281968683
0.010909409178420901
0.010942144664004444
0.010908593973144889
0.01085127486847341
0.01079032895155251
0.010743434419855475
0.010730134719051421
0.010723317763768137
0.010681647714227438
0.010629650484770537
0.01064935838803649
0.010782448225654662
0.010966135547496378
0.011080600824207067
0.011055291658267378
0.010931549188680946
0.010808489327318966
0.010733443298377096
0.010680288625881076
0.010615056930109858
0.010539317014627158
0.010491327815689146
0.010531193395145237
0.0105352538311854
0.010560083105228841
0.01059813678264618
0.010588304330594838
0.010571561343967915
0.010553025952540339
0.01054576076567173
0.010576489279046655
0.01063498854637146
0.01065130733884871
0.01058278742711991
0.010471795164048671
0.01037145983427763
0.010308016128838061
0.010315816644579172
0.01040723206475377
0.010518509917892516
0.010550719350576401
0.010488651767373085
0.010440413015894592
0.010495503949932754
0.010618540388531984
0.010740535999648273
0.010820563645102083
0.010799541287124157
0.010629384694620967
0.010568989720195533
0.010473591848276556
0.010516500403173267
0.010622207229025661
0.01069102677050978
0.010755241247825325
0.010813939273357392
0.010791074349544943
0.010698157195001841
0.010617914642207325
0.010576561656780541
0.01058131871279329
0.010638625184074045
0.010681938417255878
0.010643334491178394
0.010581187237985432
0.010603711702860891
0.010667480188421905
0.01075677084736526
0.010803948296234012
0.01084367620293051
0.010873961630277335
0.010853640199638904
0.010769651290029287
0.01064152543898672
0.010523763187229633
0.010504302522167563
0.010591159649193287
0.010677016363479197
0.01069569868966937
0.010685653444379568
0.010691092289052904
0.010723639982752503
0.010777367297559976
0.010805023787543177
0.010772276325151325
0.010761584783904255
0.01083607901353389
0.010912623312324286
0.010910543934442104
0.01069770814385265
0.010486166644841432
0.010433611059561372
0.010445251511409879
0.010408644638955593
0.010366632570512593
0.010369395911693573
0.0103784260712564
0.010358417565003037
0.010330813890323042
0.010310878581367432
0.010264516812749208
0.0101761394739151
0.010098353177309036
0.010081376349553466
0.010124536235816778
0.01019392918329686
0.010243280371651054
0.010269456538371741
0.01031506891362369
0.010364116383716464
0.010333650358952583
0.010210890742018818
0.01009381099138409
0.0100613904139027
0.010079333996400238
0.01008086563553661
0.01006812755484134
0.010065910555422306
0.01007674158550799
0.010110388924367726
0.010159094384871423
0.010181687530130148
0.010164779112674296
0.01014934831764549
0.010161436814814805
0.010166747118346394
0.010144222886301577
0.01013519539963454
0.010167659567669034
0.010202859994024038
0.010211720960214735
0.010225252518430351
0.010260304328985512
0.010304500823840499
0.010379133936949074
0.01049004988744855
0.010574221424758435
0.010596047751605511
0.01057614151854068
0.010520571479573845
0.010467948950827121
0.010474157510325313
0.0104811019776389
0.01041728563606739
0.010337786576710641
0.010275359372608364
0.010177731518633664
0.010091635729186237
0.010155424610711634
0.010173439527861775
0.010272243688814343
0.010236339042894543
0.010158023191615939
0.010189851084724068
0.010250424891710281
0.01020677485037595
0.010117394030094146
0.010096950423903763
0.010140387383289635
0.010176407457329333
0.0101359943440184
0.010016499324701727
0.009920809403993189
0.009922665324993432
0.009983057635836304
0.01004059486091137
0.010067173219285906
0.010083433459512889
0.01013529656920582
0.01020641808398068
0.01022005423437804
0.01014084809459746
0.010047289058566094
0.010065013729035854
0.010175657998770475
0.010209502922371029
0.010109376767650247
0.010006028497591614
0.009978945553302764
0.009972128327935934
0.009942464139312506
0.0098918331367895
0.009823464062064887
0.009785775085911155
0.009829987431876361
0.009912344613112509
0.009971298654563724
0.010015875208191574
0.01005262132268399
0.010052754767239094
0.010031446171924472
0.010035766162909568
0.010051656826399268
0.010033156680874527
0.009989655762910842
0.00996132183354348
0.00995860371273011
0.009973097736947238
0.00999325250275433
0.009989782297052443
0.009959888337180018
0.009963288465514778
0.010033025406301022
0.010111178304068744
0.010121396295726299
0.01006576135288924
0.010012320056557656
0.009989342321641743
0.009960352880880237
0.009908112534321844
0.009897901783697307
0.010011430396698415
0.010178908538073302
0.010227528871037067
0.010150897717103362
0.010093123186379671
0.01010052926838398
0.010121669098734855
0.010141732757911087
0.010166278835386037
0.010177207132801413
0.01018071652855724
0.010221799975261093
0.010286840116605163
0.010296350647695362
0.010246880939230324
0.010207637632265686
0.010182734732516109
0.01012801873497665
0.010060712466947735
0.010036515332758426
0.010060896850191056
0.010100285802036525
0.010124156069941818
0.010094342567026616
0.01000990582164377
0.009951702165417374
0.009974769940599799
0.010035708718933166
0.010055713132023811
0.009994930974207818
0.009920721440576017
0.009929087711498141
0.009973955298773944
0.009957445561885834
0.009920796249061822
0.009946073428727687
