0.00988279231125489
0.00982490629190579
0.009772825294639916
0.00983263403410092
0.010009372474160045
0.010242144912481307
0.010380780014675111
0.010388519573025405
0.010357973445206881
0.010307492360007019
0.010223296608310194
0.010153467070776969
0.01020002071512863
0.01032300447113812
0.01041622502496466
0.010453338297083973
0.010490863691084087
0.01054375190520659
0.010552634748164565
0.010491295938845725
0.010416966064367443
0.010381794639397413
0.010362602444365621
0.010336481956765056
0.010333965481258929
0.010347379525192081
0.010334072182886303
0.010317366919480264
0.010330606836359947
0.010354972996283322
0.01038735968992114
0.010439573489129543
0.010494980823714285
0.010531115997582673
0.010523395789787173
0.010454439341556281
0.010370543722528965
0.010349633956793695
0.010383738121017814
0.010407683805096895
0.010411709926556796
0.01037830812856555
0.010243423730134964
0.01005156863713637
0.009954082556068897
0.009994117410387844
0.01007682028459385
0.010139536857604981
0.010183962469454855
0.010191161129623651
0.010143592471722513
0.010083146984688937
0.010073903645388783
0.010113377813249827
0.010144837459083646
0.010174928694032132
0.010249992820899934
0.010339556788094341
0.010405472212005407
0.010482151766773314
0.010557420277036727
0.01055375451920554
0.01049068858847022
0.010466281857807189
0.01051094220019877
0.010601250040344894
0.010698568869847803
0.010733549629803748
0.010697331996634602
0.010701924527529627
0.010819919910281896
0.010944354471284896
0.010985906424466521
0.010968025950714945
0.010960212859790772
0.01095913619035855
0.010945490056183189
0.010949701957870275
0.011021644726861268
0.011129821436479687
0.011184734073467553
0.01119934362359345
0.01124721071915701
0.01128785206237808
0.011248554580379277
0.011171378216240556
0.01111492125550285
0.01105878442991525
0.010991429861169308
0.010951350370887666
0.010938573160674423
0.010888656622264535
0.01076217070221901
0.010592766157351434
0.010422123922035098
0.010260294692125171
0.010126399861183017
0.01003836870426312
0.009980349862016737
0.009958475027233363
0.009942881667520852
0.009977964204736053
0.010062426102813334
0.010095083650667221
0.010160092457663267
0.010281367625575513
0.010382186083588749
0.01038752160500735
0.010338785741478205
0.010361472945660352
0.010458619594573974
0.010531523546669632
0.010511980578303336
0.010477363036479802
0.010474726541433483
0.0104690471990034
0.010441991018597037
0.010418698105495424
0.010418800299521535
0.010450039035640657
0.010499687576666474
0.010525933296885342
0.01052170469192788
0.010500329951755703
0.01042458127019927
0.010307087968103588
0.010252858407329767
0.010280652972869574
0.01030214412137866
0.010283934734761715
0.010255978922359646
0.010228050744626672
0.010187178410124034
0.01014564733253792
0.01015976254362613
0.010260350455064326
0.010401040089782328
0.010527165438979864
0.010633652056567371
0.010723514754790813
0.010783672153484075
0.010813247542828322
0.010809918672312051
0.010765629031229764
0.010744460525456816
0.010697909605223686
0.010641873157583177
0.010566908598411829
0.010527897612191736
0.01058193356031552
0.010700768909882754
0.01077947901794687
0.010758506830316037
0.010720964691136032
0.010782054755836726
0.01090605384670198
0.010964734994340688
0.010931434712838382
0.010871410088147968
0.010816717420239002
0.010783730687107891
0.010793080083094536
0.010804452777374535
0.010759041220881045
0.010671208566054701
0.010589649642352015
0.010530498907901347
0.010496796055231244
0.010479412062559278
0.01044750513508916
0.010403045006096363
0.010376176096033305
0.01037224176339805
0.010391735092271119
0.010441253525204957
0.010503525270614773
0.010554590297397226
0.010587444435805083
0.01058941450668499
0.01055291978875175
0.010510325042996555
0.010489009427838028
0.010478605832904577
0.010474028103053569
0.010472789900377392
0.010477296665776521
0.010523114760871977
0.010622290843166411
0.01073011515662074
0.010801915456540882
0.010830316271167248
0.0108361098007299
0.010835093830246478
0.010818850768264382
0.010791875962167978
0.010806464876513927
0.010903596810530871
0.011048888934310526
0.011198294141795486
0.011338303592056035
0.01141609086189419
0.011383964312262834
0.011279618712142109
0.01111023954115808
0.010803912926930934
0.010419720062054693
0.010187866948544979
0.010212269418407232
0.010353707941249013
0.010454958754125982
0.010495593512896449
0.010517942893784493
0.010512482558842748
0.01045111779589206
0.010387663976289332
0.01039408434415236
0.01043961922172457
0.010452819319907576
0.01042899817461148
0.010391716912854463
0.010350595202762634
0.010335143927950412
0.010381612982600928
0.01048470527632162
0.010599489472806454
0.010667427533771843
0.010650773141533136
0.010587597948033363
0.010540291366633028
0.010484856644179672
0.010387444868683815
0.01030609169974923
0.010298178978264332
0.010359315674286336
0.010492610735818744
0.010666106778662652
0.010718159896787255
0.010536278991494327
0.01037579118506983
0.010240965511184186
0.010224739289842546
0.010202619985211641
0.010175796053372323
0.010225592339411378
0.010316705473233014
0.010451741954311729
0.010535225146450103
0.010552582703530789
0.0105173444817774
0.010443906702566891
0.010351449581794441
0.010289308587089182
0.010285113649442791
0.010290719296317547
0.010240396303124726
0.010129521656781435
0.010025327927432954
0.009991915551945568
0.010004695949610322
0.009997805326711386
0.009962541703134774
0.009934165950398892
0.009932011822238565
0.009956778713967652
0.009991885863710194
0.009996772459708154
0.009955899184569716
0.00990872688125819
0.009904320165514947
0.009940220704302193
0.00996955922804773
0.009994852819945664
0.010058486086782068
0.010130498458165675
0.010142523075919598
0.010087180661503225
0.010012294123880565
0.009973972789011895
0.009992693564854563
0.010040276458021254
0.010083349680062383
0.010111475128214807
0.0101238588639535
0.010133426343090833
0.010162720885127784
0.010189360110089182
0.010162549731321633
0.010090113105252384
0.010020426178816705
0.009984027463942766
0.009998908047564328
0.010071861129254102
0.010185443174559623
0.010300468197092414
0.010391133008524775
0.01045910750515759
0.010489277238957585
0.010460556410253048
0.010388239717576653
0.01031028661876917
0.010266224688384682
0.010266507072374224
0.010284329899586737
0.010306315573398023
0.010345533362124116
0.010387387620285153
0.010388101791031659
0.010349325039424002
0.010307727328035981
0.010270229626912623
0.010243632472120226
0.010248822984285652
0.010270621336530894
0.010267016110010446
0.010214798604138195
0.010127961304970085
0.010058035259135067
0.010061970241367816
0.010149914987850934
0.010261005389038473
0.01031815803842619
0.01031364692375064
0.01026852205162868
0.01015536229358986
0.009971660515293478
0.009856994135770947
0.009832400237210095
0.009916977104730905
0.010035317235160619
0.010197899085469544
0.01041313200024888
0.010549500426277518
0.01049325595377013
0.010353417322039603
0.010137253955472261
0.009937141924165189
0.009877763104159385
0.010015232178848237
0.010079486989416181
0.010131439063698053
0.010113491162192076
0.010108423226047308
0.0101155304745771
0.010105162966065109
0.010070332295726984
0.010041163882706315
0.010063591827638448
0.010133807875681668
0.010193113510031254
0.010218556455802172
0.010239297915250063
0.010263574302662164
0.01028200751170516
0.010296830346342177
0.010305538480170072
0.010312461368739605
0.010330121160950511
0.010352261059451848
0.010374852800741791
0.010400358631741255
0.010404317292850464
0.010365233735647052
0.010300814693327992
0.010234754963312298
0.0101775431772694
0.01014895420987159
0.010167391609866173
0.01021548625547439
0.010246404837816954
0.01023690686095506
0.010216126882005483
0.01020100400550291
0.010154797690920531
0.010066446862183512
0.009992932067252696
0.00998514651088044
0.01002231287304312
0.010035126782022417
0.009999822694808244
0.009985597883351148
0.010043798880651593
0.010115787484683097
0.010131238494068384
0.01009687509853393
0.010053034503944219
0.010019689700566232
0.00999504063045606
0.009992409790866076
0.010030819308012725
0.010091642991174012
0.010149121838621796
0.010175126993563027
0.010129412093665451
0.010042546652257442
0.009987069219350815
0.00996210178360343
0.009938923916779458
0.009926590763498097
0.009950819713994861
0.010035987326409668
0.010155162499286234
0.010226491023786366
0.010220287130214273
0.010193942014593631
0.010196271701715887
0.01020622068317607
0.010194367098156363
0.010176109785679727
0.010160675491206347
0.010113176833838224
0.010009942098986358
0.009908122185152024
0.009897891453001649
0.0099888872099109
0.010133177752140909
0.01030411164276302
0.010457107683178037
0.01049623659113422
0.01037673506187275
0.010211155358701944
0.010161688395310193
0.010232449895702302
0.010304385263007134
0.010331983792129905
0.01036067629698664
0.010359644619747997
0.010366176785901189
0.01033006092067808
0.010273785630706697
0.01018239265307784
0.010060263527557255
0.00999560023425147
0.010040834459941835
0.010077947434037924
0.01009524854598567
0.010043747611343861
0.00997743510408327
0.009930582158267498
0.00990526564884931
0.009899231446906924
0.009913481965195387
0.00995603171410039
0.010026308477390557
0.010088791865855455
0.010109763427171856
0.010100985844619572
0.010086703281849622
0.010070448548067362
0.010053795196581632
0.010042422884143889
0.01003248207969591
0.010015359336975962
0.009992236022371799
0.009980210217181594
0.009992981627583504
0.010033933739177882
0.010112580708228052
0.010205076134297997
0.010241233345586806
0.010210885556880385
0.01019221298629418
0.010232289861887693
0.010302854818291962
0.010361832056660206
0.010385289411060513
0.010372343568596988
0.010344391555991024
0.010323781522456556
0.010324276436585933
0.010353002969641239
0.010397167084738613
0.010435570578556508
0.01046696667559445
0.010488347003702074
0.010469664230477065
0.010398816503584384
0.010314233319368213
0.010241180998273194
0.010161782444920392
0.010071854062844068
0.00998528785072267
0.009902143855579198
0.009826099937781692
0.009787992602214217
0.009817806917708368
0.009896055145654828
0.009966928514186292
0.010001246444880962
0.010017755287699402
0.010018858544062823
0.009960680808871985
0.009866264471784235
0.009833841756917537
0.009871835079975426
0.00990312434732914
0.009893365139141679
0.009861097999382763
0.009826423949562013
0.009770410738419742
0.009665258103050292
0.009564756092149764
0.009557506835553795
0.00962511463323608
0.00967391999438405
0.009674410631414504
0.009672924769110977
0.009704034638125449
0.009751338439527898
0.009782524448819458
0.009800631513353437
0.009841916433069855
0.009907955459784717
0.009959257503505797
0.009995960132218897
0.010052913948893547
0.010096612290944905
0.010057526002638041
0.009994457594584673
0.010032157870009542
0.010129236159846186
0.010127511993050575
0.009997139959596097
0.009861592801753432
0.009829861861653626
0.009904641371686012
0.010012668955605477
0.01006786449579522
0.010020257912110538
0.009895259232725948
0.009780051377601922
0.009722370901145042
0.00969309055013582
0.009665655144490302
0.009646902829408645
0.009641869603656232
0.00964307679561898
0.009651008588261902
0.00969251422677189
0.009786769379861653
0.009890648655127733
0.00992968305479735
0.009890844624023884
0.009849860870745034
0.009874719008803368
0.009926058703567832
0.009929602211341261
0.009893001662567258
0.00986389399273321
0.009851819365285336
0.009840710805729031
0.009830423826351763
0.0098436237918213
0.009884410568047316
0.009929776501376181
0.009979474563151599
0.010032212766818703
0.010037081227637827
0.009974611643701791
0.009920878205448388
0.009944814953487367
0.010012035265099258
0.010043249200098216
0.010022581089287996
0.01001351319020614
0.010060518484096974
0.010112770318519324
0.010114157183561474
0.010089456313289702
0.010045591595117002
0.00993788649328053
0.009802823939826339
0.009739616161677987
0.009757473319768905
0.00979161605471745
0.009828277288470418
0.009894037514459341
0.009966110137756914
0.010013683596625925
0.010052518558222801
0.010088828136213123
0.010123992830049246
0.010187280313111842
0.010277394035365433
0.010338340348098427
0.010343519884627313
0.010345671342220157
0.01038070185808465
0.010399306116160006
0.010370203785132617
0.010354929063469171
0.010404270847793669
0.010462932474911212
0.010451441281475127
0.010367706303950399
0.010267654426861554
0.010219123696442694
0.01025336334016174
0.010327832009643316
0.010378190190531314
0.010371719179674983
0.010301676806993782
0.010208160008769483
0.010163526462856681
0.010172144456300885
0.01017589572351426
0.010167700774036347
0.010175561308860779
0.010182202397845685
0.010174978317227214
0.010186506768222898
0.010213230752851814
0.010197198160458356
0.01011595076881349
0.009996078342664987
0.009863521207589656
0.009788527837954461
0.009854644651059062
0.009976630941964685
0.00998712504049763
0.009919112399220466
0.009935252980794758
0.010052001730073243
0.010143545726314186
0.010148465489037336
0.010129307699389755
0.010160038736648858
0.01023971427930519
0.01030745982658118
0.010319542267825454
0.010304044259246439
0.010271819836925716
0.010254120307508855
0.010261620003730059
0.010294837793335319
0.010378132644109427
0.010522293469402939
0.010620575889479369
0.010566037395037711
0.01042297225445509
0.010310933713335545
0.010255957413464785
0.010231194603256881
0.0102176744886674
0.010199505200143904
0.010157967312261462
0.010094204307533801
0.010024760900996625
0.009962332393042743
0.00994774745311588
0.010037959141191094
0.010196908719372004
0.010297580361366273
0.01029386703390628
0.010264209844172001
0.010260154854040592
0.010250198782887309
0.010212813976686448
0.010175385905895382
0.010147698821965605
0.010092654535546898
0.009999261165503412
0.009910737969912589
0.009850275942590088
0.009798275153152645
0.009757045798469335
0.009767740671522916
0.00983478661160916
0.009903495761100202
0.009956605294719338
0.010023302170448006
0.010072044350672514
0.01004657283425331
0.00998608573107049
0.009965321833733469
0.009966626805253327
0.009947266927920282
0.009957817199174315
0.010042325926478952
0.010125074940733612
0.010121472261380405
0.01006240543909371
0.01002580791944638
0.010017511583864689
0.010000873666722327
0.009967043022625148
0.009915146811399609
0.00984245765255764
0.009753890500869602
0.009655658113770187
0.009578649434261025
0.009578249522019178
0.009678795509971678
0.009839396439492703
0.009988954595755786
0.010083667673170567
0.010102407271042467
0.010039653752464801
0.009960733796469867
0.009968616231344641
0.01006324561079964
0.010153823744039982
0.010209916173480452
0.010260238056071102
0.010298359922599047
0.010299002493266016
0.010278033309150487
0.010292651378549636
0.010365112845320254
0.010421392552088946
0.010382769794669003
0.010303561494220048
0.010291349813342095
0.010398407850880175
0.010574271855875849
0.010740756422746927
0.010819418486207724
0.010764564806595444
0.010635429355315864
0.01054983191890642
0.010521011925302446
0.010476425087545068
0.010422130625229328
0.010421111853793264
0.010468406465370207
0.01049759131623432
0.010460188030265272
0.01038647972047329
0.01037139109103009
0.010439003771170973
0.010486636934801936
0.010490899423602968
0.010488669977057725
0.01049348262604326
0.010460730544291436
0.010357198885176331
0.010189925492741168
0.010034930058754981
0.00997688057133928
0.01000441291835159
0.010075785019434989
0.010181593419983983
0.010283894657623022
0.01033329638885334
0.010348706729710102
0.010402278134133667
0.010518699113745242
0.010640232635196298
0.01071347827790305
0.010737807035911828
0.010725330768618733
0.010691407241392881
0.010656836600974202
0.010617509617004544
0.01054423996945843
0.01041581697529182
0.010254597291350365
0.01013975651236251
0.010066352190915496
0.010065897789318115
0.010125606635119766
0.01024967393372208
0.010428799444343894
0.01062472230521962
0.010781596866436302
0.01085173586383462
0.010841170521453024
0.010787589694373309
0.010702701690606773
0.010609513351228088
0.010558913303539157
0.010555545203387737
0.01057183203753084
0.010610793665982783
0.010666596023365855
0.010695329606533051
0.010663874712772668
0.010589161301031708
0.010529960915446281
0.010529274647124111
0.010562215184327215
0.010559869902208448
0.010490327861625702
0.010399595906492323
0.01035013969289139
0.010355573720298708
0.010417840029112994
0.010562909781001509
0.01076137223513797
0.01088953844504431
0.01086366665083915
0.010728276220615953
0.01053935719653964
0.010341291422955692
0.010185062119271606
0.01011642545927316
0.010157760404981673
0.010291010548826307
0.010431720297783614
0.010513533756602555
0.010564033556729555
0.01060434735380113
0.010585618782788514
0.010509995832107962
0.010467237916309387
0.010496332908514887
0.010542321181856096
0.010534905642271043
0.010451617471408098
0.01035784705542028
0.010339034728240222
0.01036312615731731
0.010340880444273353
0.01022592811845243
0.01007071993779391
0.009930414452683181
0.00979936573188752
0.009673817588482053
0.009606359309982508
0.009626004952006042
0.009684937458951026
0.009709285516291856
0.009670876851305365
0.009619692023843527
0.009603385946247727
0.00961427581962198
0.009662296769674868
0.009740081187337636
0.00975998894078657
0.009702629472594709
0.009684548652730883
0.009771267052274197
0.009884858250152319
0.009941477822139859
0.009972665272653104
0.010061323130503296
0.010198929402977229
0.010300791994668544
0.010348921201657504
0.010383976844605059
0.010396420750766992
0.010370484804734587
0.010358174417633563
0.010391958388499916
0.010416507127229125
0.01037319746799767
0.010275707757100462
0.010187354872468858
0.010145807436201722
0.010113969489466398
0.010050326506607234
0.009989089553710074
0.00997626298572868
0.010001981484238058
0.010042347514536231
0.010098637277260424
0.010172169455327094
0.01021865832619369
0.010255918698385358
0.01025538643822074
0.010229071865323932
0.010147663753014059
0.010003469281364231
0.009858767834957689
0.009774112487211823
0.009744983869604767
0.009729339622426779
0.009725329193752259
0.009769187956117094
0.009826719977427274
0.009820829804521054
0.0097753846202977
0.009759049306157976
0.009753863713704049
0.00972620486980304
0.009718559787143023
0.009776847120374441
0.009857424159999937
0.009874250709544867
0.009822558872401714
0.00978255898458883
0.009809555814135819
0.009891195103991777
0.009993345944676548
0.010085602141916752
0.01012500932905823
0.010064623672515155
0.009910397659987212
0.00976361457258463
0.00974173252703622
0.009833847151603549
0.009932041591964662
0.010007501274812966
0.010075994685757905
0.010127274349797518
0.010126166543923319
0.010046015607658774
0.009920972746331245
0.0098757275310345
0.009952600419055671
0.009997298480011524
0.00991550778504461
0.009886269315611571
0.009916234200354666
0.010002074039075524
0.010071244065184146
0.01012103158282116
0.010160415219143033
0.010191063473466783
0.01023017190862447
0.010295685222372413
0.01036403709789738
0.010388140543363988
0.010357595928944648
0.010278553683310748
0.010174559440929442
0.010132588215637952
0.010198702006600797
0.010299630828667432
0.010363973737694323
0.010380393378436565
0.010348623697645963
0.010333470269106328
0.010283333342522382
0.010277133386116475
0.01030731837498024
0.010342642776668071
0.01037882340606302
0.01042721514357254
0.010464294012635947
0.010467494882177561
0.010467125750146807
0.010513898932840675
0.010611322985496371
0.010675562184769661
0.010608536310028284
0.010453975743148476
0.010365362144075334
0.010389322198461741
0.010422660582698882
0.010384541666135193
0.010320041701197625
0.010295806683134288
0.010277876590844243
0.010208168996032328
0.010123019800521433
0.010108854013960809
0.010184814280364662
0.010280263733584434
0.010331976634915918
0.010345449298620224
0.010340761225670576
0.010322758143302054
0.010306726256385446
0.010309606743976473
0.010327077463734895
0.010347522364463657
0.010379233774729072
0.010430028149858116
0.01048031865619123
0.010511981095187367
0.010530615157913417
0.010540140070952475
0.010533474013209343
0.010521978044416756
0.01053093803115189
0.010554207810200751
0.01055380657548085
0.010533032591920346
0.01055925817694515
0.010653209816664457
0.010737489312887191
0.010748144371900708
0.01070479271467775
0.01065711053321138
0.010635891896672547
0.010651167216710746
0.010690838464070112
0.010732370582409202
0.010773763977922499
0.010822499238420278
0.010854108820203691
0.010832911324687302
0.010776768890209495
0.01074839057167992
0.010777401367668062
0.010831092724110931
0.0108596661221236
0.010841515886131674
0.010796344801783563
0.010762308083940297
0.010743708892259746
0.010717674493789672
0.010695748717989773
0.010696519701741635
0.010683824773877859
0.010640907841734588
0.010604508677497506
0.010520124093163758
0.010312485001049936
0.010137840090319514
0.010191800419706852
0.010307586442213506
0.01037105461815372
0.010342291258275509
0.01032671210821718
0.010324036080855876
0.01030628189444542
0.010294625884853303
0.01030068654101342
0.01031259385170415
0.010342905588913709
0.010408289262559265
0.01049266351852566
0.010563291297294199
0.010578786816913634
0.010510206709150226
0.010393527417909354
0.01028655911795795
0.010188569941092282
0.010112455794587732
0.010137981979642063
0.01023003859911114
0.010355906968470663
0.010350864368956537
0.01022971819387749
0.01005902504781261
0.009891065410338342
0.009799180664122104
0.009816105021163821
0.009871799361426382
0.009883234293665737
0.009834058440756053
0.009767589417751878
0.009754398183431476
0.009822899212595075
0.009927457347512245
0.010013624867424369
0.010056629832834006
0.010046223790850491
0.00998365529347211
0.009896222751121968
0.009791734917089344
0.009718876702245326
0.009761105366051197
0.009829789972864092
0.009794210912659765
0.009685251547489315
0.009647429396864027
0.00971509049180895
0.00978705870686099
0.009797180355526507
0.00978857745649293
0.009823722324799746
0.009902919030282646
0.009982178728096187
0.01001969762844965
0.010002108088228852
0.009958808498922736
0.009932164254132658
0.00992899807402864
0.009928823434747755
0.009910324967931957
0.00985201645642519
0.009766817833296955
0.009709465615451336
0.009674606111366302
0.00959672848926857
0.009513348161708563
0.009408788098953664
0.009346022491808981
0.009303290266543626
0.009231399055570364
0.009194857410620897
0.009107996972743422
0.009070327018853276
0.009037812568712979
0.00901842006482184
0.009082170620094985
0.00920787784969434
0.009305905578657984
0.009362505651079118
0.009398310885298997
0.009387502379249782
0.009343138718977571
0.009359221439808607
0.009452958591282368
0.00952540751779452
0.009566492626909166
0.009668178940191865
0.009819324512500316
0.009906203486025333
0.009879151440691203
0.009797273855656385
0.009750812901183964
0.009791541439481079
0.009898670371621848
0.009993467098101973
0.010024988180957735
0.010011416357010604
0.00996580126695335
0.009876274815760554
0.009783377337735146
0.009746904731728137
0.009750115908682347
0.009744218187406659
0.009732948718592524
0.009738370082341135
0.009728621179237961
0.009655659387353807
0.009543944655451924
0.00944683434907347
0.00941087184008211
0.009436354823410511
0.009527209685184062
0.009677429241128266
0.009829720540437847
0.00993696839082986
0.010014262576587498
0.010068286322057246
0.010052715400233865
0.010026190562639386
0.00994726926088333
0.009974239410366863
0.010061531586106866
0.010104631464928389
0.010108190185856075
0.010135250317398458
0.01016307427547872
0.010144884209148585
0.010101708851289004
0.01007195086684078
0.010061044553294778
0.010047156964428722
0.010009060371667147
0.009946207609027624
0.009862314038909971
0.009757010010071098
0.00964821100467816
0.009579483517445624
0.00959410154959187
0.009667707937769592
0.009755327657330781
0.009805802395567298
0.009777648544404655
0.009787840005010366
0.00993277005618438
0.01011625557905063
0.010197707898914814
0.010189980273135007
0.010178347488399596
0.010189124275930226
0.010191142493858933
0.010155350228305906
0.01010959070874378
0.010105437922757119
0.01012024448486045
0.010091852582991123
0.010021798284724355
0.009947025715373457
0.00988689138321206
0.009843525064643472
0.00981264115544036
0.009814890746492893
0.00985789452213794
0.009882539131212979
0.009865662676747888
0.009888569726608693
0.009964833394624293
0.010109044855926185
0.010239980996120722
0.010403326665982603
0.010638699175324291
0.010819069049321116
0.01100195661187172
0.011094750862102955
0.011128728024195879
0.011099039022810757
0.010979417278431356
0.010809904865454882
0.010669041210785508
0.010589409486856311
0.01057910624658689
0.01063478093361482
0.010675625803414732
0.010594230850692839
0.010439432100392878
0.010369534126948566
0.010375492754392326
0.010303486620541662
0.010132420863956213
0.010000315892975778
0.01000299766426906
0.01008972319541499
0.010152089004404842
0.010140459300018848
0.010067340184468776
0.009984329934231937
0.009962650700472295
0.01001813034294173
0.010084261856973172
0.01009927765931934
0.01007187640061602
0.010031753634102643
0.009972459701821208
0.009891414388548583
0.00982660167850554
0.009824287167284639
0.0099074471835047
0.010040326530579478
0.010129157651681453
0.01015582139370963
0.01016476420685649
0.010162585305515677
0.010101620208006352
0.010013194023631513
0.00999108502874151
0.010049673351459206
0.010126451111864299
0.010185395746957511
0.010234875662717968
0.010210688214283437
0.010224723708815872
0.010203200140967966
0.010213968323078006
0.01033126749098301
0.010522797105368227
0.010669838357716798
0.010692269804421813
0.010632536918856204
0.010581693418789655
0.010533134914003312
0.010424608872272074
0.01029994674026966
0.010225553296040744
0.01016561798984185
0.010105872801505029
0.010060877259820699
0.01004515723325312
0.0100523854768835
0.010093307923525571
0.010168331910390406
0.010237748103681952
0.010296093106735498
0.010396327080670745
0.010533003560267389
0.010621255144942552
0.01061859165551141
0.01054702578112483
0.010431358176283538
0.010310799670405687
0.010249152528122068
0.010233761495910584
0.010246513630263507
0.010207278695888817
0.010097638415172696
0.01002951429458335
0.010033136249985546
0.010067779624368995
0.010164118346292526
0.010296525291632861
0.010480319620110095
0.010692892901133746
0.010861694235354663
0.010956385100726038
0.011054027678910642
0.011219452330842615
0.011370507355313747
0.011395524882245808
0.011332821557298303
0.011289838096126914
0.011265345942229032
0.011201930092647671
0.011121289837174118
0.011066346084699035
0.011022285472135991
0.010973977111279964
0.010943360349629075
0.010961880728136747
0.011032295664772391
0.011098265659529715
0.01107847154373303
0.011000355388969183
0.010900787024293096
0.010791867848020047
0.010777286279480904
0.010817430943716318
0.01081277938792482
0.010737368324771523
0.010686689866706728
0.010749060630332678
0.01091707254992798
0.011114109444897623
0.011258191380184144
0.011335196893196554
0.011408540992997587
0.011527663609012962
0.011644550869241356
0.011657037653494627
0.011542868900578469
0.011523143746890127
0.011558178085833789
0.01157460340531543
0.011561184148304164
0.011652289011981337
0.01183548666536808
0.012003625065553934
0.012107753760647029
0.012171579920686782
0.01218827759847045
0.01214640319114551
0.012091761364135891
0.012062839481513947
0.012037308064755052
0.01200399338034913
0.011982208215631545
0.011937383364420384
0.011817022070754319
0.011663458028342575
0.011569549073465168
0.011560683813877403
0.011580971968360245
0.011566059321630746
0.011508957562036813
0.011449202890507876
0.011396974569652229
0.01131399892969057
0.01121945414924994
0.011228443239815533
0.011384869741741568
0.01156009447062388
0.01163185078650713
0.01164681465830654
0.011689467274118214
0.011780325409490615
0.011932889560703187
0.012122830396983773
0.012302883190568537
0.012409391584806145
0.012433294055517763
0.012380484803579749
0.01223568566609174
0.012092085354961455
0.011940174028277397
0.011771465283818543
0.011569742278661579
0.011349884234368801
0.011165760366711765
0.011060738605447113
0.011062190663069486
0.01114390574861318
0.011246624495834112
0.011398342454340309
0.011555879341904074
0.011664967257529498
0.011721036219969392
0.011725727336015552
0.011695767692290247
0.011698122944217175
0.011621946881059558
0.011464901936706155
0.011263898094184696
0.011054501726757735
0.010888353106565773
0.010902689015492796
0.010947806916665286
0.010923303610179574
0.010925899646244942
0.011033352380618453
0.01112902955384925
0.011082412209361792
0.010965392095968127
0.0109131097397767
0.01091223672265187
0.010904182365629822
0.010902770361863077
0.010913163241930306
0.010914926195982843
0.010905415939632804
0.010892651593312621
0.010903407603036612
0.010960295153781772
0.010988212069496512
0.010976590944919736
0.010991319254972041
0.010964247446972877
0.010885790756437927
0.010793973056133837
0.010758344659116119
0.010787369420286267
0.010794204764533789
0.010689917006529867
0.010513711906969547
0.010404594270512461
0.01039989999961108
0.01038530852412805
0.01030042683938518
0.01024282568367198
0.010318537899293006
0.010508700315840542
0.010598288828041404
0.010664871206972747
0.010771932881325483
0.010887121940031648
0.010865711933001876
0.010740376978646963
0.010606870818883181
0.010460613411851227
0.010264257246162742
0.010096263042651116
0.010050694427918642
0.010059548267163336
0.010053230447228998
0.010048186923377216
0.010071789578069002
0.01008647779468447
0.010086736702360212
0.010131734379101545
0.010238786796107888
0.010372880350332707
0.01050744557287544
0.010611802481580525
0.01065120741724968
0.010627835397608578
0.01056963632348925
0.010494213884230703
0.010422463382128625
0.010391114295925945
0.01039267557207495
0.010358354134950787
0.010284073068760335
0.010259408080019057
0.010305401845835149
0.010340190732385963
0.010300321918912232
0.01018670571502298
0.010046740300022066
0.00994960546726361
0.009937023418024183
0.009997178348712624
0.010107943664770573
0.010268625665921717
0.010400765838567168
0.01052207323955372
0.010589322817977517
0.01058914587367326
0.010573741542175412
0.010581473514903336
0.010615144046023489
0.010635140920057892
0.010585032731760292
0.01043609093176201
0.010224311675410718
0.010064430127386004
0.010039420977700502
0.010102720002178102
0.010199758904054761
0.010351653643883765
0.010465555645059793
0.010559749088715762
0.010689710893202573
0.010807584731373936
0.0108605577214621
0.010845971652306616
0.010681019255425781
0.010474627357907593
0.01030488578369841
0.010131392052862793
0.009910732805728913
0.009749316310044378
0.0097191380453296
0.009776651123538614
0.00984714915510267
0.009916862973477691
0.009973190499003977
0.009986895718611777
0.009975531140808016
0.009969988365191966
0.009966050223447383
0.00997161605861038
0.010019073658622802
0.01012484906706959
0.010263989232480526
0.010374846505001187
0.010425452450290322
0.010437109165359289
0.010446270832326264
0.010513916248455643
0.010666611369233579
0.010804776342120022
0.010832044875714928
0.01080927471164614
0.010827316732611508
0.010871515800245106
0.010902114803902805
0.010893614147789776
0.010851799552328885
0.010863924825098365
0.010811894030775876
0.010773969828151167
0.010751494301948696
0.010678445792291314
0.010832860826049
0.01101399518083781
0.011098171635530889
0.011188220533076674
0.011371494778431952
0.011562135177664459
0.011671741707250476
0.011762254440691322
0.011919960444793105
0.012120908393990248
0.012245955639518797
0.012307031401433051
0.012406887596007436
0.012542134560644626
0.012600456555373967
0.012527792861219496
0.012455418622121215
0.012361514524091035
0.012318195474799723
0.012430818437132984
0.012653151971753686
0.012805208442732691
0.012782277741935104
0.01275590412551537
0.012739243814721704
0.012708296948112548
0.012689087428152562
0.012695029077585787
0.012708949884399771
0.012741312587168067
0.012844416196458042
0.013046622991096228
0.01332594090141356
0.013639296879991889
0.013933918825350701
0.014155396928545087
0.014295005949679761
0.01439619411714375
0.014474859826732427
0.014490376240573824
0.014405311560258269
0.014311841640155762
0.014332681249361484
0.0143945478531532
0.014393301287200302
0.014414413378108292
0.014362029526382684
0.014372555632144212
0.014485208855476231
0.01462650871835649
0.014658793688286096
0.014589226604439318
0.014521347398404032
0.014471291173249483
0.014514918581116944
0.014660062473267317
0.014828649847768247
0.01495248677674681
0.01501839668257162
0.015083345046732574
0.015244500993285328
0.015510100128594786
0.015749461485538633
0.015899388876277953
0.016010160422883928
0.016111708257813006
0.0161725035100244
0.01613330325810239
0.016109150499105454
0.016055445878300816
0.015920043957885356
0.015719593693502246
0.015591757653746754
0.015553945605643094
0.015588394845835865
0.015651972114574163
0.015739982277154924
0.015838918404188006
0.015851512872613965
0.015718335951678455
0.015556399796623736
0.01552128308219835
0.015608495995402337
0.015735028453636914
0.015867243895772844
0.015919042439199983
0.015777645483613014
0.015605778750032186
0.015470182779245079
0.01550644709262997
0.015637574500869958
0.01578053881647065
0.015906401704996825
0.016056475297082217
0.016187926093116402
0.01611903123324737
0.015998788939323275
0.01588575287722051
0.01578789065591991
0.01579747077077627
0.015641071503050625
0.015346356176305562
0.01524226626381278
0.015248489014338703
0.015143369941506534
0.01488867103587836
0.014890305374283343
0.014997397612314672
0.014891528328880667
0.014823597297072411
0.01481040428392589
0.014739438870456069
0.014592355592176318
0.014519067683722823
0.014750928478315472
0.015322191412560643
0.0158986163046211
0.01627485385397449
0.016295284742955118
0.016189663575496525
0.016221269287634642
0.01632030394859612
0.01644386925501749
0.01654411369469017
0.016709424850996583
0.016790840541943908
0.01668743903981522
0.016653429623693226
0.016650658790022133
0.01671473607188091
0.016824597532395274
0.016874237908050416
0.01677642896771431
0.016547847366891803
0.01631150647997856
0.016188420755788684
0.016173021253198385
0.01617230203701183
0.016168144021648914
0.016245708547066896
0.01645134383812547
0.01666103859897703
0.016749435064848512
0.01679802761413157
0.016912491526454687
0.0170147304283455
0.017156136808916925
0.01714399689808488
0.017003703431691976
0.01693069530883804
0.016973730290774255
0.017005472334567458
0.01690580658847466
0.01677192796487361
0.016564390743151306
0.01630314054666087
0.01607646374963224
0.01594717023195699
0.01589908291120082
0.015840478297322987
0.01569911594269797
0.015536491917446256
0.015466436827555299
0.015483672774862497
0.015504439356736838
0.015523087601177394
0.01557525860145688
0.015621426852885634
0.015586352106183768
0.01549955417169258
0.015561438149306923
0.015771628115326165
0.015926092125009745
0.015952590203378348
0.015902358361054213
0.015902640961576252
0.015926111456938088
0.01582544237142429
0.015648887418210508
0.015604269069153815
0.015697409228887408
0.015732746466528624
0.015626508253626527
0.015440937052480876
0.015293119794223457
0.015205978574231267
0.015199297734070569
0.015288737080991268
0.015424138782545924
0.015360384515952319
0.015179211599752307
0.014915168967563659
0.014671922302804888
0.014628912606276571
0.014718972141854464
0.01485051232157275
0.014999636977445335
0.015182557075750083
0.015425429558381437
0.015583355305716395
0.015545865327585489
0.015523353014141322
0.015448802863247693
0.01536176832159981
0.015333175065461547
0.015436589897144587
0.015387006748933346
0.015304598119109869
0.015364778798539192
0.01527517820475623
0.01512843019561842
0.015115957118105143
0.015186557713896036
0.015146545823663473
0.01487932990770787
0.0144327258807607
0.013963184568565339
0.013631454976275563
0.013543034442700446
0.01344705626135692
0.013140047036577016
0.012871946718078106
0.01280248585389927
0.01275499032344669
0.012580821285955607
0.012439400281291455
0.01248159681679681
0.012483642338775098
0.012510535132605582
0.012444046949967742
0.012195051538292319
0.011897478308528662
0.011758032257203012
0.011775400603655726
0.011774436405394226
0.011687697907909751
0.011604360516648739
0.011592072863131762
0.011647082928102464
0.0117418388905935
0.011823660884983838
0.011855856797192246
0.011887160756159573
0.012009573485702276
0.012244439809583127
0.012511672445107251
0.012736367536708712
0.012920523337088525
0.01301085275830701
0.013005661414936184
0.013152290710713714
0.013416572790592909
0.013737843891140073
0.014076259697321802
0.01449536310741678
0.014913693042472006
0.015102668621111662
0.014973764969035984
0.01497794828377664
0.015017070542089641
0.015131918680854142
0.015297795902006328
0.015436120352242143
0.015575616783462466
0.015809099688194692
0.016153057096526025
0.016557934258598833
0.017023028859402985
0.01748533739242703
0.017873781288508327
0.017868668099399656
0.01789384094532579
0.018118544353637845
0.01841702910140157
0.018649338714312763
0.01869343507802114
0.01864865079987794
0.018708739983849226
0.01873946974053979
0.018971723560243844
0.019291106273885816
0.019505601243581625
0.01969401662237942
0.0199787252699025
0.020187211851589382
0.020211943320464342
0.020208394802175463
0.020224188498687
0.020299050263129174
0.0203821204113774
0.020366016435436906
0.020404749049339442
0.020603313359897582
0.020827815346419812
0.021038268867414445
0.021157869875896722
0.021111178386490792
0.020951704455073925
0.02076396082295105
0.020552534949965773
0.020667273360304536
0.020926664827857166
0.020997518619988113
0.020920219353865833
0.020923047992400825
0.0209244681103155
0.0208300989237614
0.020750518133863808
0.020742091261781753
0.02078646203968674
0.020766398003324867
0.02081807530252263
0.02092145003611222
0.021013749993871896
0.021047562735620886
0.021079760666470975
0.021290648500435053
0.02184437755960971
0.022682869678828866
0.023546351483091713
0.024299411338288338
0.024940350053366273
0.025377407025080175
0.02548242556862533
0.025699234097264708
0.026438344998750835
0.02740385381039232
0.02816341791767627
0.028436875604093075
0.028332960300613195
0.028551083628553898
0.028863116761203855
0.028926373675931247
0.028913042016793043
0.029079961222596467
0.029262795832473786
0.029412795098032803
0.029474257358815523
0.02932230325881392
0.028980194225441666
0.028618959996383638
0.02834077310981229
0.028119987547397612
0.02792932458454743
0.02800485446350649
0.02834477129159495
0.02864374794298783
0.028729432318359612
0.02874741031555459
0.028748360055033118
0.028645954730454833
0.02869336587144062
0.028951030645985157
0.029139982892666012
0.028997746950481088
0.02859700787579641
0.028349323614966126
0.02845550225349143
0.028534484792035072
0.028725465906318276
0.028782261051237584
0.028570851667318493
0.028685514919925482
0.02882409985177219
0.028712251500692218
0.028412516596727073
0.028055621061939748
0.02756189113482833
0.02737351095303893
0.027303966940380633
0.02724591285455972
0.027172599029727282
0.026941445649135858
0.026733109715860338
0.026724646978545933
0.026907643997110427
0.027118529563304038
0.027314534401521085
0.027753941139671952
0.028171927996445446
0.028564505693502724
0.028938579575624318
0.029101656982675195
0.029024158783722668
0.028868824150413273
0.028960784806404263
0.02937844895524904
0.029751678167376668
0.030162751448806376
0.030885440937709063
0.03160507262684405
0.031853866139426826
0.031803881872911006
0.031803160577546806
0.031731905590277165
0.031473341290839014
0.03171421731589362
0.03199036268983036
0.03214328464819118
0.03235534231876955
0.032385218509007246
0.03231161210220307
0.03232745912857354
0.0324648788687773
0.03265690863132477
0.032957462770864365
0.033338192764203994
0.03367114630294964
0.03393708661198616
0.03415879601612687
0.034407174387015405
0.03447975326096639
0.034443765925243494
0.03449681906495243
0.03467403413495049
0.034768331847153604
0.03456225351430476
0.03399726544972509
0.03316824450390413
0.032263290819246324
0.031606292689684776
0.031152774968650192
0.03091042718384415
0.030920801123138518
0.03067846299149096
0.030159337227232755
0.029439446337055416
0.028896016483195126
0.02878398834494874
0.02898139363853261
0.028811914725229145
0.028493928138632326
0.028374164479319005
0.028365900521166623
0.028235301556997
0.028072636518627406
0.027920347203034906
0.027888723188079893
0.02808288444997743
0.028430692069232464
0.02881545572541654
0.02915840653469786
0.029281534124165773
0.029358601125422865
0.02917820961214602
0.028540513939224185
0.02795336552662775
0.027863668822683395
0.028098509807605296
0.028314016794320197
0.028303413735702634
0.027951329895295203
0.02760451651411131
0.027441364207770675
0.02756803172407672
0.028036543671041726
0.028734611093532293
0.029361772581469266
0.02956887596985325
0.029346430557779968
0.029191560479812324
0.02946360021363944
0.029549042354337873
0.029351844866760075
0.029455073515418918
0.030145591096952556
0.03065414626849815
0.03063848475459963
0.030765703625511377
0.03075267358450219
0.030895075658336282
0.031485141350422054
0.03213944337097928
0.03203045944450423
0.032903961562551556
0.03456146477721631
0.03601712108124047
0.036500743252690884
0.03601764968363568
0.03558065997203812
0.03488705238560215
0.034385353326797485
0.03463247557869181
0.03564658112591133
0.03701731156324968
0.03782704773824662
0.037437609117478135
0.03780202037654817
0.038113607747945935
0.03737679377663881
0.03765046513173729
0.038831723309122025
0.03970538042951375
0.039683560912963003
0.03952055759727955
0.04033146166941151
0.04098296591779217
0.041216673848684875
0.04112534715561196
0.04100358098279685
0.041072850874625144
0.04135556981433183
0.04157388359773904
0.04146133959759027
0.04119670123793185
0.041080021737143396
0.04103060499299318
0.04080691165989265
0.04043900083750487
0.04013851948548108
0.039981839479878545
0.03988906128099188
0.03976304419105872
0.03960152196697891
0.039548555104993284
0.03980056530795992
0.04042709256056696
0.041300318248104304
0.042333471148740504
0.0436398469703272
0.04493810443440452
0.045826658685691656
0.046082232363987716
0.0458839372289367
0.04642908733338118
0.04689273406751454
0.04670802833978087
0.046694804534781725
0.04647905628196895
0.047126769965980204
0.048228262548800555
0.04924862649291754
0.04993581795599312
0.050302361100912095
0.050455767503008245
0.05045466735726222
0.05038412132300436
0.0502653591427952
0.05004337982507422
0.05033641459885985
0.05066327126929537
0.050521634351462126
0.05052707187831402
0.05103221540339291
0.051333673030603676
0.051512880832888186
0.05176660435041413
0.052414334474597125
0.05388381091644987
0.054917265686672184
0.05497153512667865
0.05526120300404727
0.055079384280834344
0.055163336195982994
0.055579475269187245
0.05592048885533586
0.05543862516293302
0.05573373043676838
0.057428669112268835
0.05933527047280222
0.06041535575175658
0.060983268639538436
0.06149800684070215
0.061891532093286517
0.06168885616585612
0.06104161277413368
0.061482586706988515
0.06369874740252271
0.06587168800411745
0.06735265290131792
0.06722341685555876
0.06799312438583001
0.06920225540641695
0.07063141458202153
0.07015320907114074
0.06834155698074028
0.06679818568052724
0.06728873405372723
0.06949384312611073
0.0711981026059948
0.07199573955731467
0.07190189714310691
0.07212362949736416
0.07207049874588847
0.07173422118648887
0.07186128570465371
0.07288726423867047
0.07257080397102982
0.07206444726092741
0.0731028857221827
0.07326854458311573
0.07278610041597858
0.07287109963363037
0.07384551465744153
0.07481222658650949
0.07466737970011308
0.07414236931828783
0.07415925920009613
0.07473209900781512
0.0753481302713044
0.07558407219592482
0.0752950841956772
0.07505574448732659
0.07530409280909225
0.0758360151341185
0.07647908329032362
0.07729784944560379
0.07832693306496367
0.07921440639533102
0.0795413161534816
0.0794983675610274
0.0796309972088784
0.08009832016658038
0.08074319162871689
0.08075126557610929
0.08071352316066623
0.08051784253679216
0.07974682212341577
0.07875932595226914
0.07767996310256421
0.07635789203457534
0.0753720642067492
0.0750017150817439
0.0752224371349439
0.07516656646504999
0.0752867347933352
0.07604589511174709
0.07646941852290183
0.07697113804984838
0.07662511927541345
0.07582791432738305
0.0749822143977508
0.07427021737210453
0.07381076957564801
0.07352938101626932
0.07343728717882186
0.07335279983468354
0.07324615962803364
0.07314323862548917
0.07250671194400639
0.07183054477442057
0.07176857939455658
0.07199016811326146
0.07174873155541718
0.07144867833703757
0.07126877256203443
0.07093233657535165
0.07042911179363727
0.06945696646347642
0.06906809609383345
0.06953704591374844
0.06971549201291055
0.07033524898812175
0.07078792361076922
0.07069527759682387
0.07010783095378428
0.06986103464383632
0.06903288054745645
0.06767628291156143
0.06707621959969401
0.06738975665532053
0.06747642793226988
0.06702205946203321
0.06678043061867356
0.06675217611249536
0.06690989113412797
0.06659140104427934
0.06509469478856772
0.06285695171449333
0.06142886976711452
0.062163106095977125
0.061799776046536865
0.060966802625916895
0.0604468878172338
0.06019356810022145
0.06015315381344408
0.06037063670810312
0.05978364732582122
0.0586283819982782
0.05759349515661597
0.05699691525660455
0.05707591002807021
0.05674403819255531
0.05632387796416879
0.056047511557117104
0.055987200546078385
0.056162243257276714
0.056645477288402614
0.05674795659724623
0.05573513095732778
0.05474530748557299
0.05440624432638288
0.05438146385364234
0.054478705683723094
0.0548865867825225
0.055436212345957754
0.055611131130717695
0.055222408534027635
0.05460174242965877
0.05430242396425456
0.05441921111661941
0.05499331087339669
0.05564011744223535
0.056019557281397285
0.05621961566153914
0.056364338696002964
0.05632486150134355
0.0559222713811323
0.055508330357261
0.05553826254792511
0.05563320940826088
0.055704501066356896
0.05573469193186611
0.05525531036313623
0.05509804251603782
0.05470138646196574
0.05435215583536774
0.05456006488762796
0.05484783427789807
0.05503329836763442
0.055230561271309854
0.05521682891994715
0.05551026769448072
0.05577511455398053
0.05577756371349096
0.05567279674112797
0.05555848158430308
0.055353186507709325
0.05500721069984138
0.0545139946648851
0.05424265849404037
0.054209832819178704
0.05427035450469703
0.054290170832537114
0.0543906757934019
0.05438739058561623
0.05471546133980155
0.055320235500112176
0.05623568041715771
0.057205338422209026
0.05762380272615701
0.05791276303119958
0.05855432532262057
0.059319277750328185
0.06026284976862371
0.06109436127822846
0.06162209219299257
0.06151212717872113
0.060834410144016145
0.05996985524427146
0.05978003660682589
0.060051268548704684
0.06011843987740576
0.05956177928019315
0.058983731432817876
0.0590967229148373
0.059421957144513725
0.059458330497145655
0.05887784231454134
0.05757886384613812
0.0562746596802026
0.05567759268451482
0.05560182840097696
0.05548072098754346
0.055472800605930385
0.055594845209270716
0.055260271141305564
0.0546081870328635
0.05449597847647965
0.0544106304179877
0.053782071988098326
0.05288330395705998
0.05227720006369054
0.05212385920807719
0.05224010790232569
0.052096070521511134
0.05201320819556713
0.05189927790779621
0.05168403464369476
0.05148369012866169
0.05149352686014026
0.0512967954389751
0.051101941452361646
0.050892615104094145
0.05043891530949622
0.049590535601601
0.04857460201252252
0.0479773275507614
0.04806755941361189
0.04854688474908471
0.04887900060974062
0.048681107768788937
0.04795578048098832
0.04673742967657745
0.04526988833211362
0.044107685387134554
0.04355541313067079
0.04336250450462103
0.04349988765548915
0.04359081584494561
0.04349295724183321
0.043076582378707824
0.042357541378587486
0.041836390895769
0.04144852605182678
0.04100816102698445
0.04058382355608046
0.04025727274827659
0.03993431750684977
0.03966321802232414
0.039679974257014694
0.03943165264092386
0.03888591384049505
0.03870708849281072
0.03886203139089048
0.0390160639770329
0.03883455676957965
0.03875509148929268
0.03863280572928488
0.03824135432951152
0.038116291975602505
0.03819266026839614
0.03781748902052641
0.03733153476845473
0.03689533746801317
0.03632363060489297
0.035784626067616045
0.03535817346069962
0.03545376700814813
0.036160041759721935
0.0367371145170182
0.036991412807255986
0.037030537026003
0.03709284705575556
0.03726080807391554
0.037598579516634346
0.037578507931903
0.03712269810028374
0.03619284711778164
0.03545769323129207
0.03543001604732126
0.0353931038454175
0.03454426033422351
0.033528768378309905
0.03259842673316598
0.03165682132355869
0.03142019257415086
0.03141817214898765
0.03147181438747793
0.03175471895374358
0.03170118272304535
0.031189841912128032
0.030493354462087154
0.030173283843323587
0.030033283475786446
0.02965666142757982
0.029426357834599914
0.029299515122547744
0.029214306119829416
0.029204620262607933
0.02906902483664453
0.028659824687056242
0.028280674843117595
0.028375316290184856
0.02879972997121513
0.02887280980590731
0.028868813617154956
0.029065506518818437
0.028908180766738952
0.028690800303593278
0.028768492499366402
0.028896545832976697
0.028616766249760985
0.027877432769164445
0.02742767765186727
0.02750704683829099
0.027102181841619312
0.026433688509278
0.025880668093450368
0.025614542942494153
0.025488604484125973
0.025631656982004643
0.025705126840621234
0.02582143120933324
0.026187485652044415
0.026561385141685604
0.026520141484215855
0.02623070332221687
0.02597306415438652
0.025685458420775832
0.025336154447868468
0.025083556971512735
0.025230548330582678
0.025891990684904158
0.026789580858312546
0.027521793409250678
0.027978074662387373
0.02825588971376419
0.02809684493113309
0.027945451578125356
0.02767637244425714
0.02735970377922058
0.0274701305385679
0.027517539085820317
0.027236995468847454
0.026641289726831018
0.02600946370512247
0.0258225985430181
0.026344124376773834
0.026977456565946342
0.027298838514834643
0.02728908805642277
0.027528511504642666
0.027540692817419766
0.027607210483402013
0.027806740556843578
0.027894447739236057
0.028557023592293264
0.029664655728265644
0.030777261215262114
0.03125574702396989
0.03137164304964244
0.031358906696550545
0.03155304040294141
0.03205223090481013
0.03273284790571779
0.03342268101871013
0.034370436761528254
0.03527408744674176
0.035819672946818176
0.03607564690522849
0.035934393047355115
0.03639592623338103
0.03742997999768704
0.03833470861893147
0.03904146010056138
0.03967719109728932
0.03997255261987448
0.04032311299350113
0.04105430522933602
0.04171150244772434
0.04226033027749509
0.04288331822026521
0.043068301808089016
0.04298063334543258
0.04320068389177322
0.04309964601416141
0.04321298577822745
0.04325606446247548
0.043149414374493066
0.04301399088930338
0.042900504283607005
0.04293452673591673
0.04309468238614499
0.043216004595160486
0.043199572628363964
0.04326850194018334
0.043272466547787186
0.04314319482538849
0.04303021680563688
0.043173717809841035
0.04335588421672583
0.04333863586653024
0.043209703704342246
0.04272744256071746
0.042275839666835964
0.042002979721874
0.042138964580371974
0.04285215897485614
0.043919858271256086
0.04506793395616114
0.04644437882117927
0.04813221784774214
0.04976347026415169
0.05031206267885864
0.051287410468794405
0.05419399253558368
0.0582643334614113
0.06200798938982189
0.06478484033141285
0.06677875430323184
0.06762754846829921
0.06762418829835952
0.06859177219681442
0.07006268286146224
0.07157500859815627
0.07280285337939858
0.07356737524271012
0.07397036449052394
0.07404159184079617
0.07406068772543221
0.0741112358123064
0.0738132346700877
0.07351737620774657
0.07285131949000061
0.07219047414138913
0.07226526860147714
0.07321096735075117
0.07434875412844122
0.07485722983255982
0.07540395882911981
0.07632125473581254
0.07683839756064118
0.0766947719687596
0.07693570907227695
0.0775864745490253
0.07840317271649838
0.07908183198887855
0.07938586310483516
0.07968482354655862
0.08012090641539543
0.08040868566371501
0.08068380190990865
0.08163164515048266
0.08217250526417047
0.08232726351357997
0.08281169569585473
0.0823980578687042
0.08115465867798775
0.08014232798479498
0.07955186998005956
0.07944095466285944
0.07940553909167647
0.07923020468559117
0.07878398596774787
0.07839497879613191
0.07818541834130883
0.07784862019587308
0.0768949541496113
0.07566096056252718
0.07492247814312578
0.07496010275557637
0.07477323849219829
0.07489279441069811
0.07519155010115355
0.07492402633186429
0.07404981942847372
0.07393879404757171
0.07527057256083935
0.07580234637018293
0.07507800427731126
0.07583462071139366
0.07644211882259697
0.07671401372645051
0.07711077181156725
0.07767556656617672
0.07802039740141481
0.07776542918290943
0.07770951174665243
0.07788657293654978
0.07772238506004214
0.07784489295445382
0.07780792111065239
0.07804252101574093
0.07822769138496369
0.07838009145110846
0.07850610820576548
0.07845225908327848
0.07892056864220649
0.07949439982883633
0.07995857244823128
0.08086880115326495
0.08258634683676064
0.08452167950104922
0.08621326059568674
0.08695479252375662
0.08690905069932342
0.08782623471692204
0.08962042544968427
0.09178325496148318
0.09293245455250145
0.09161596015561373
0.09085444442927837
0.09007245276588946
0.08984811603557319
0.08957170295529067
0.08673215890303254
0.08276053888257592
0.07932784699369222
0.0769706001598388
0.07481773323845119
0.0750546828005463
0.07609360471367836
0.07503287343308329
0.07330593360587954
0.07168289206456394
0.07074498364236206
0.0705279092118144
0.06984737371094525
0.06987572957761586
0.07002051978837699
0.07099396711681039
0.07222912599798292
0.07292966765817255
0.07372587439138442
0.07469709887634962
0.07489751324988901
0.07415167201776057
0.07511548970360309
0.07674403551965953
0.07688196362461895
0.07665769858285784
0.0769039768539369
0.07701660930644721
0.07761967408936471
0.07756066451780498
0.07672237166203559
0.07584930022712796
0.07494850127026438
0.0743790180562064
0.07413382964674384
0.07381228480953723
0.07452175926417112
0.07546514096204192
0.07632932693697513
0.0769962383620441
0.07746412393637002
0.07745892390608787
0.07809133691247552
0.07987326501403004
0.08139642616733908
0.08150385092478246
0.08197582267224789
0.08237659932579845
0.08228807046543807
0.081864233748056
0.08153764476068318
0.08159422760363669
0.08191834365949034
0.08191663491073996
0.08214865797199308
0.08202064210548997
0.08214644077699632
0.08203267536591738
0.08200476564466953
0.08253977086395026
0.08321579843759537
0.08287243461236357
0.08171360136941075
0.08105709958355874
0.08156059695407748
0.080353701421991
0.07901854306459427
0.07850406424608082
0.07805459922645241
0.07758278894703835
0.07753550187684595
0.07756600407417863
0.07793720729183405
0.07876724251545966
0.0798425052780658
0.07994903596583754
0.08036342755425721
0.0804605976305902
0.08014915138483047
0.08026730635203422
0.08007073085289448
0.0807945688907057
0.08189096829853952
0.08349207097664475
0.08504060132429003
0.0855300532700494
0.08465869457926602
0.08321110593620688
0.0818377130292356
0.08185526929330081
0.08445114810951054
0.08695258426479996
0.087702291989699
0.08616785374470055
0.08380217654630542
0.08382087017875164
0.08300025954376906
0.08276619317941368
0.0840993619384244
0.08625652827788144
0.08949663706123828
0.09191843300126493
0.09271055815741419
0.092570845852606
0.09276829866226763
0.09200760930310935
0.09200466939713806
0.09373116383329033
0.09557724491227418
0.09678776644170284
0.09739544340409338
0.09756467065773905
0.09808333981782198
0.09809795643668622
0.09834756528958678
0.09740171251818537
0.09672099881339818
0.09743540355935693
0.09870202303398401
0.09966526673641056
0.10048581577837468
0.10133455630391836
0.10029423851054162
0.09853984967805446
0.09787861426826566
0.09893497300799936
0.10056750597432255
0.1026150188362226
0.10317861379124224
0.10327923296019435
0.10353867396712303
0.10466554234735667
0.10576501946896315
0.10572849511168897
0.1050743595417589
0.10535673322621733
0.10462889242451638
0.10311384879052639
0.10199573583435267
0.101533397519961
0.10132497134618461
0.10197610444854945
0.10268738819751888
0.10198762046173215
0.10094228329136967
0.10102694699075072
0.10186347861774266
0.10323686437681318
0.10499566240236163
0.10668914742302149
0.10727372768335044
0.10729600669350475
0.10930991862434894
0.11248998594470322
0.11467082344461232
0.11621188775636256
0.11642775698099285
0.1159121334273368
0.11682984127197414
0.11911943251732737
0.12176321087870746
0.12389545616228133
0.12451359291095286
0.12402653611730784
0.12370779564604163
0.12451108115725219
0.12626261344179512
0.1285074455430731
0.1308388716634363
0.132052474594675
0.13186094297561796
0.1319480768032372
0.13152626409195364
0.13033509540837257
0.12915904111228882
0.12943485510069877
0.13029096742160617
0.13123538176063448
0.13226717308163644
0.13203660984523594
0.13337653858587145
0.1351785019831732
0.13607333642430602
0.1352074161497876
0.13333877961151303
0.13185307289939374
0.13147310400847345
0.13208814701996743
0.1335503641795367
0.13403563994914294
0.13169856360647827
0.12801378580275924
0.12492680967319757
0.12348430386278779
0.12355359136592597
0.1234249735623598
0.12393827826250345
0.12482365536503494
0.12447381049860269
0.12178155346307903
0.11922908848151564
0.11731616381555796
0.11643201535567642
0.11680955919437111
0.11704786478541791
0.11699423822108657
0.11626973100006581
0.1146449841465801
0.1131211479054764
0.11253551966510714
0.11240666361059994
0.11204167590476573
0.11149852296337485
0.1112527922866866
0.11099881500937045
0.11130337400361895
0.11159461920149624
0.11095285347662866
0.1096980621991679
0.108402033704333
0.10744436442386358
0.10664416662883014
0.10567513732239604
0.10499458100181074
0.10499107221141457
0.10406782080885023
0.10248556012753397
0.10032934221904725
0.10029742935206741
0.10123278936836869
0.10126754691358655
0.10127670587971807
0.10187329991720617
0.10264615811407567
0.10312985228840262
0.10338636529166251
0.10390555784571916
0.10439522610511631
0.10400308798532933
0.10363525167107582
0.10368190391920507
0.10414145503658802
0.10511138929519802
0.10635708240792155
0.1072775084618479
0.10726321950554847
0.10602899285964668
0.10471985244192183
0.10378185229375958
0.10305774826556444
0.10272706231102348
0.10205069535877556
0.10017483114730567
0.09808845807798207
0.09721312512643636
0.09790993353817612
0.09971415100153536
0.1013138196989894
0.10077980200294405
0.0982351696351543
0.0951478735404089
0.09451777085196227
0.09519594223704189
0.09643710334319622
0.09750783628318459
0.09785721370019018
0.09752473132684827
0.09648730215616524
0.09520474613644182
0.0944754946185276
0.09480119889602065
0.09555978921242059
0.0966041768155992
0.09673247162252664
0.09841350457631051
0.10074577611871063
0.10194150296039879
0.10146749721840025
0.10081807124894113
0.10212869595270604
0.10273895711638033
0.10103268461767584
0.09972705140244216
0.10068640563637019
0.10245908957440406
0.10375271308235824
0.1040837278822437
0.10384162716567516
0.10389123006723822
0.10510284025222064
0.1070061935018748
0.10787753142882138
0.10773236805573105
0.10754993175156415
0.10756779237184673
0.10731476470362394
0.10754107206128538
0.10815358697902411
0.10947453767061234
0.1120497746532783
0.11411339452024549
0.11610400907695294
0.11769932391121983
0.11803825574927032
0.11780272944364696
0.11875618972349912
0.12040394530631601
0.12205733191221953
0.12332195470109582
0.1244500422803685
0.12562007790897042
0.1266270533623174
0.12726750262081624
0.12710390924476087
0.1274785784818232
0.12786942605860532
0.12731869727373124
0.12595281654968857
0.12500680290162564
0.12447026182431728
0.12430914917960763
0.12439246191643179
0.1243724361481145
0.12489617950282991
0.1254757465329021
0.12505523507948965
0.1243771566497162
0.12503018327988685
0.12447927793487906
0.12421491897199304
0.12585938275791705
0.12642742338124663
0.1251448786118999
0.12500864933710545
0.1265410666912794
0.12819934303406627
0.12921280327253043
0.13033443285152316
0.1319459163537249
0.13205484026111663
0.13227345997933299
0.13251056212931872
0.13170159702654927
0.13045276559889316
0.12997500787489116
0.13029443413950503
0.1305523391906172
0.13045145767740907
0.13008750622626394
0.12924729557707906
0.129011760125868
0.12920302904676645
0.1291014607390389
0.12953480751253665
0.12900803844444453
0.12668692313600333
0.12507986019831152
0.12297501574270427
0.12267172637395561
0.12400946564972401
0.12555658955127
0.12452316509559751
0.12337867928668857
0.12270401560235769
0.12188240188639611
0.12206384013406932
0.12456901284866034
0.1280763521976769
0.13013015448581428
0.13019441322423517
0.13011061737779528
0.1300438235886395
0.12958312730770558
0.12987791402731091
0.12926165760960429
0.1290906787943095
0.1309310966869816
0.13396153564099222
0.13554441477637738
0.13449383651372046
0.13263247383758425
0.13215128535404802
0.13136903394013644
0.13071553950197995
0.13076426445506514
0.1311399877956137
0.13119940498378127
0.13039409406483174
0.12877361077815294
0.12714801494497807
0.12629164068959653
0.1260944927157834
0.12643753055483103
0.12741268465295433
0.1280138605972752
0.12851014151237905
0.12807538175955416
0.12680616385303436
0.12477926142513752
0.12219362854491919
0.11960697209928185
0.1176836290769279
0.1164464190742001
0.11555807687807829
0.11563380857463926
0.11484580888878554
0.11325815178919584
0.11152331569697709
0.10962460795883089
0.10753264914266765
0.1058297835290432
0.1050517260003835
0.10508331438992173
0.10534175964072347
0.10478494473733008
0.10396768358536064
0.10369493773672729
0.10460521459113807
0.10541338506154715
0.10558443742338568
0.10525402275379747
0.10515025060623884
0.1057216863706708
0.1063148335693404
0.1073696717666462
0.1096212132042274
0.11212162449490279
0.11327383651863783
0.11267242534086108
0.11233488578349352
0.11235849633812904
0.11290524524636567
0.11465573409572244
0.11554007340688259
0.11495706004556268
0.11351078317966312
0.11162509148009121
0.10962621907703579
0.10842291945591569
0.10911188160069286
0.10916984995361417
0.10781572876498104
0.10647593718487769
0.10636068635154515
0.10709467095788568
0.10871827107388526
0.11090703336521983
0.1125228994525969
0.11299194991122931
0.11302035055123269
0.11269944319035857
0.11243334820959718
0.11203802254516632
0.11150351276155561
0.1119217984797433
0.1129170449404046
0.11203778231982142
0.11232093923725188
0.11084623353090137
0.10845142587088048
0.10686092074029148
0.106991570382379
0.10736446742434054
0.10775536617264152
0.1083380345767364
0.10787690743338317
0.10500940194819122
0.10049717504065483
0.09764346486423164
0.09731326355133206
0.0976667133718729
0.09852796904742718
0.09998719975817949
0.10069005819968879
0.1001065773004666
0.09884179212152958
0.09616816702764482
0.09381902589928359
0.09371685278601945
0.09535801455378533
0.09695939950179308
0.09822990751825272
0.09927971055731177
0.0979659760883078
0.09706007360946386
0.09738859489560127
0.09828647442162036
0.10004505040124059
0.10301358405966311
0.10594802333973348
0.10741178524680435
0.10787129979114979
0.10766390340868384
0.10669595564249904
0.1064478176413104
0.1073838566057384
0.10904244004748762
0.11064656286500395
0.11183760598301888
0.11273814466781915
0.11348079185001553
0.11405923920683562
0.11464570868294686
0.11541039521340281
0.11582497600000352
0.1153651038883254
0.11531253541819751
0.11536900808103383
0.11544094318989664
0.1157734620012343
0.11650248479098081
0.11712000399362296
0.11673246045131236
0.11765381361357868
0.11934954688418657
0.1201082070544362
0.12026847167406231
0.12037605189252645
0.11984890008345246
0.11970866756513715
0.11985578880645335
0.11951831763610243
0.11940964998211712
0.11896419980097563
0.11754726714920252
0.1150324483634904
0.11242405250202864
0.11114467227831483
0.11182936941739172
0.11215306225698442
0.11207920949440449
0.11245183596853167
0.11319438309874386
0.11318751200567931
0.1119158319151029
0.1130836776131764
0.11531245195306837
0.1177598985331133
0.12043626879341901
0.12304380214773118
0.12491586454678327
0.12599136130418628
0.12617050279397518
0.12545243663713335
0.1250928706675768
0.12490122567862272
0.12440402837935835
0.12382272164802999
0.12391153643839062
0.12483716966118663
0.12581040150951595
0.1266569031495601
0.12726550888270138
0.12720447368454188
0.12669465711340308
0.1269287213124335
0.12828619688749313
0.1293475077021867
0.13077156603336335
0.13167651050724088
0.13161654211115092
0.13210613445844502
0.13268297193571926
0.13355587872676553
0.13501703415531666
0.13649030193220824
0.13750815653707832
0.13854520716704427
0.13887462669983505
0.1384627701807767
0.1385863886633888
0.13827682248782366
0.13753797449171543
0.1375687695434317
0.1382213311549276
0.13783887094352396
0.13681019429117441
0.13523451247718185
0.13358003055676818
0.13348021605052054
0.13460582988802344
0.13487599931191652
0.1335249008703977
0.1338674973277375
0.13301192756276578
0.13162938237190247
0.13140092337038367
0.13109367764089255
0.1285512639163062
0.12524313100613654
0.12349923899397254
0.12301906659733504
0.12278781044762582
0.12327973064035178
0.12338391251862049
0.12223470914643259
0.12003767039626836
0.1183711686776951
0.1182179471012205
0.11858921896200628
0.11782851045951247
0.1176407004892826
0.1175509780831635
0.11701012432109564
0.1167978184716776
0.11764144895598293
0.11787878168281168
0.11755937136244028
0.11744359423872083
0.11740230861119925
0.11720125216059386
0.11710075677372515
0.11724214159883559
0.11693202447611839
0.1166676468309015
0.11675012590363622
0.11657149637583643
0.11595793520566076
0.11658046326600015
0.11753389414865524
0.11801375610288233
0.11820831041317433
0.11772034612949937
0.11757475385442376
0.11774548576679081
0.11823020071722568
0.11880749894771725
0.11893188512418419
0.11817441102582961
0.11703925424721091
0.11553089779801667
0.11283318678382784
0.11069124561734497
0.11011451814789325
0.11023472886532545
0.11029555728193373
0.11145310270600021
0.112214508773759
0.11071871255990118
0.10687796778045594
0.10528354316484183
0.10622789870481938
0.10935898766852915
0.11300719487015158
0.11461580821778625
0.11344602417666465
0.11219463065266609
0.11267626881133765
0.11407526883296669
0.11556361991912127
0.11700132879894226
0.11848397051449865
0.11963004917372018
0.11973038809373975
0.11871335908770561
0.11813618211541325
0.11733724526595324
0.11643633896019309
0.11634241688996554
0.11790173809509724
0.12019758513662965
0.12016209688503295
0.11896443658042699
0.1175814947206527
0.11542363349348307
0.11359328301157802
0.11296822541393339
0.11312769874930381
0.1136314520612359
0.11447855606209487
0.11438302248250692
0.11389265932608396
0.11345235752407462
0.11273022105917335
0.11226443998515606
0.11267945766914636
0.11317732960917055
0.11319591440726072
0.11304099623113871
0.11224904727656394
0.11107883184216917
0.11059449803084136
0.11101996303535998
0.11090071384329349
0.1113501913100481
0.11083028642460704
0.10952228881884367
0.1079617265611887
0.10840741506312042
0.1093005348695442
0.10906464400701225
0.10856221893336623
0.10878543581347913
0.10865801649633795
0.10849021542351693
0.10861014215275645
0.10857273811940103
0.10810993773397058
0.10703474979382008
0.10573140300344676
0.1056596924457699
0.1046131882816553
0.10406722739338875
0.1048385356599465
0.10546524153556674
0.10483734267763793
0.10547680300660431
0.10694498626049607
0.1081526786275208
0.10878916203044355
0.10871683787088841
0.10788607864640654
0.10779358449857682
0.10779835902154446
0.1068748674634844
0.10605493088718504
0.10599417036864907
0.10609088773839176
0.10558117491193116
0.1044799196254462
0.10408287825528532
0.1042262318264693
0.10443759338930249
0.10423859161324799
0.10395696072373539
0.1035873818024993
0.10329954653512687
0.10357726811431349
0.10464767370373011
0.10557689612265676
0.10573108627460898
0.10610476847272367
0.10648006501607597
0.10623642808757722
0.10633958471938967
0.10443573685828596
0.10091655072290451
0.09818593204487115
0.0976824391586706
0.09903617801144719
0.09857417765073478
0.09714037977624684
0.09481855885125696
0.09131126620806754
0.08918895088136196
0.08978563793003559
0.09077909538056701
0.09155293001793324
0.09295571686234325
0.09439869983587414
0.09491702936124057
0.09411900069564581
0.09214216385502368
0.09243189455009997
0.09427234796341509
0.09548451483249665
0.09706004668027163
0.09920800626743585
0.10067497765179724
0.10056502085644752
0.09995398511644453
0.10065673669800163
0.10180406535975635
0.10169086954556406
0.10149780542589724
0.10163881770335138
0.10101812111213804
0.09954812679439783
0.09893489226698876
0.0981546229775995
0.09866830819286405
0.10046093091368676
0.1017668446386233
0.10211104951333255
0.1014848131267354
0.10038522551767529
0.10015410251449794
0.10109616548288614
0.10187737324740738
0.10173333049751818
0.10134768083225935
0.10133954999502748
0.10158090769313276
0.10122098402585834
0.10082219462841749
0.10073316033463925
0.10129429750610143
0.10227413140237332
0.10200363690033555
0.1007318895868957
0.10044280763249844
0.10147947111632676
0.10289295969996601
0.1041262965183705
0.10496215004473924
0.1048721237340942
0.10538930956274271
0.1058671064581722
0.10523526275996119
0.10592674834188073
0.10653099299874157
0.10673895800951869
0.10672844397369773
0.10587639976292848
0.10550390751566738
0.10662252333946526
0.10688019564375281
0.10631226718891412
0.1050459068780765
0.10415460948366671
0.1035520713729784
0.10315433737356215
0.10365705055650323
0.10349546651355922
0.1032310584327206
0.10383689623791724
0.103706494406797
0.104122702954337
0.10427113277837634
0.10448189610149711
0.10478087502531708
0.1054752249782905
0.10585384311154485
0.10589409295003861
0.10663068778347223
0.10731536793988199
0.10699831454548984
0.10676532457582652
0.10685110626276582
0.1068854165636003
0.10645907730329782
0.10686062669381499
0.10672950839158148
0.1067932495335117
0.1077909249253571
0.10906233543530107
0.10975537390913814
0.10923293590545655
0.10803956084419042
0.10730131341610104
0.10765710524749011
0.10791345363948494
0.1074700009683147
0.10724895490333437
0.10662280364893377
0.10576793298125267
0.10488177288789302
0.10315838120877743
0.10045919438358396
0.09767902846448123
0.09551194387022406
0.09432513827458024
0.09445300284773112
0.09337767831049859
0.09233983449637889
0.09151348297949881
0.08986881458666175
0.08748616168275475
0.08516344200819731
0.08305545609910041
0.08253704576287418
0.0825245885271579
0.08220113357529044
0.08171845662407577
0.08207486326806247
0.08232353255618363
0.08261014903895557
0.08307106673717499
0.08283799010328949
0.08398510856088251
0.08450005635619164
0.0836243367753923
0.08256655977107584
0.08186990601941943
0.0827414279943332
0.08363976875320077
0.08376732734497637
0.08324865361209959
0.08293612126726657
0.0828909304831177
0.08241812443360687
0.08157044248655439
0.08132757244165986
0.08144871875178068
0.08135451294947416
0.08259391034953296
0.08349761864170432
0.08368873732164502
0.08316466891206802
0.08346306497231126
0.08331510622054339
0.08232550068292767
0.08175930393859744
0.08108938687015325
0.08013144350610674
0.07997984044719487
0.07988934012595564
0.07938132977578789
0.07936623166315257
0.07860139411408454
0.0780969888344407
0.07854271119926125
0.0785354775423184
0.07802019415888935
0.07791859679389745
0.07770243145059794
0.07698154808487744
0.07628046855796128
0.07625716052949429
0.0762747404910624
0.07608438554219901
0.07635188657790422
0.07614750373642892
0.07625311185605824
0.07653667558915914
0.07614769604522735
0.07644940813072026
0.07619531778153033
0.07637500190176069
0.07652964864391834
0.0759712282475084
0.0749365660827607
0.07472754375077784
0.07518868068233132
0.07414652995299548
0.07420571939088404
0.0748090441338718
0.07475735427811742
0.0745032859267667
0.073342517898418
0.07414251052774488
0.07460998493246734
0.07476235199719668
0.07462260093074292
0.07412000076845288
0.07398724149446935
0.07480710921809078
0.07567237723153085
0.07598409742116928
0.07680166586767882
0.07700765403453261
0.07717212606687099
0.07825524394866079
0.0802460557501763
0.08202372734900563
0.08260743057820946
0.08232754983007907
0.08136955812573433
0.08085435363464058
0.0804493245948106
0.0801802305271849
0.08025183789897711
0.08072147042490542
0.08111103640403598
0.08069455625489354
0.08000594232231378
0.07982901023235173
0.0796353344898671
0.07977526864036917
0.0799743972485885
0.07884789467789233
0.07766384050250054
0.0769377703173086
0.07717713890597225
0.07659188613295555
0.0755809142626822
0.07556478819344192
0.07670561726670712
0.0780716544855386
0.0778301814571023
0.07599284666124731
0.07510326481889934
0.07495863363612443
0.07551136530470103
0.07482038309797645
0.073635872900486
0.07300620536319911
0.07270810035988688
0.07271553799975664
0.07347787657286972
0.0751654039369896
0.07728098629508168
0.07845883455127478
0.07818969230167568
0.07894561163149774
0.0793717828253284
0.07976208676584065
0.08078686543740332
0.08248431032989174
0.08305156948044896
0.08265416148584336
0.08328222175594419
0.0835935896448791
0.08389092581346631
0.08429721666499973
0.084213548861444
0.08373112448025495
0.08346762683708221
0.08394331730902195
0.08413819392211735
0.08426578256301581
0.08470356137491762
0.0847586179105565
0.08481617094948887
0.08516501167789102
0.08513363118749112
0.08538285439368337
0.0865733610233292
0.08819013675674796
0.08922132169362157
0.08947864785790444
0.08956708431709558
0.08931682415306569
0.08885119647253305
0.08909959230106324
0.0903600221592933
0.09203677434474229
0.09332845578901469
0.09406539343297482
0.09478950343560427
0.09507425173185766
0.09562821608968079
0.09673997490201146
0.09748498344328255
0.09859188447706402
0.09874771216884255
0.09960003221873194
0.10070845229085534
0.10097466350067406
0.10174187269527465
0.10137393155600875
0.10059722746256738
0.09963361455593259
0.10001597558148205
0.10108740423806012
0.10170737490523607
0.1017199594154954
0.10169426308944822
0.10145683353766799
0.10102535881102086
0.10042369395960123
0.09931512415874749
0.09743082025554031
0.09545307110995055
0.09352192514110357
0.09314247926697135
0.09477051892317831
0.09754612444899977
0.09849908696021885
0.09780713954474778
0.09814579236321151
0.09877515405416488
0.10000796476379037
0.10208030405919999
0.10400276699103415
0.10451957215089351
0.1048393097287044
0.10644677425734698
0.1076244826707989
0.10845290263183414
0.10900175617542118
0.1091396466223523
0.1093305081455037
0.1091436350857839
0.10922024437226355
0.10938666191417724
0.10859033741988242
0.10722256594337523
0.10609949201345444
0.10571595176123083
0.10572544753551483
0.10596827027387917
0.10619569392409176
0.1061887234589085
0.10670544641092419
0.10788315672893077
0.1086555489897728
0.10875789764802903
0.10832322140224278
0.10748598216101528
0.1061765132425353
0.10393937022425234
0.10326384301763028
0.1050694234855473
0.10574092877563089
0.10582531079649925
0.10622195711825043
0.10689689097926021
0.10702707383781672
0.10612568068318069
0.1078275414556265
0.10993632303085178
0.11200776278972625
0.11331384343560785
0.11349441192112864
0.11341430523898452
0.11330947672016918
0.11337497730273753
0.11323367567267269
0.1139183043455705
0.11438123228959739
0.11356430596671999
0.11316205690149218
0.11412626527715475
0.11451348765287549
0.11396801734808833
0.11286174630280583
0.11169658109545708
0.11036087727174163
0.10982963629066944
0.11091545771807432
0.11216754582244903
0.11281319805886597
0.11294430269859732
0.11231692382134498
0.1107990616094321
0.10878031454514712
0.10690440410282463
0.1054461414180696
0.10485698462929577
0.10491843505762517
0.10420517750550061
0.10264659272972494
0.1016985947266221
0.10167117939796298
0.10085745334625244
0.10020328171085566
0.09944705961737782
0.09819950442295522
0.09757394633255899
0.0983217149367556
0.09950039915274829
0.0993948764540255
0.09949651473667473
0.09917023959569633
0.09778232931159436
0.09665899140294641
0.09615100293420255
0.0960553018702194
0.09547523027285934
0.09552508460823446
0.0962510133581236
0.0968038004823029
0.09666939880233258
0.09712288021109998
0.09665823802351951
0.0947727926960215
0.09273067705333232
0.09258200828917325
0.09424641562160105
0.09465453654993325
0.09422666848171503
0.0930461962055415
0.09134354632813484
0.08992336499504745
0.0895866171317175
0.08910101580899209
0.08758861294947565
0.08636759000364691
0.0861334180040285
0.08707163813523948
0.08861566278617829
0.08993357107043266
0.09092942835297435
0.09129202862735837
0.09099312006495892
0.09104191976599395
0.09189500890206545
0.09280665625818074
0.09365522916428745
0.09505054820328951
0.09516540274955332
0.09492369579616934
0.09504508207086473
0.09482832477893681
0.09359361292328686
0.0928529841452837
0.09336273831315339
0.09412708979099989
0.09405861684121192
0.09329820580314845
0.09284946450497955
0.09243614015635103
0.0915529863210395
0.09059057441074402
0.08904271342791617
0.08665460568387061
0.08375082477461547
0.0816372682247311
0.0816500632232055
0.0808565062424168
0.07932864022441208
0.07694910068996251
0.07434551311656833
0.07433299253229052
0.07547697976697236
0.07640987502411008
0.07670090250205248
0.07642543142661452
0.07561576202046126
0.07544050747063011
0.07641237686388194
0.07721471888478845
0.07625934322364629
0.07576029235962778
0.07650587799027563
0.07758441897109151
0.07853527847211808
0.08005614771042019
0.08146783422213048
0.08185136188752949
0.08120635012164712
0.08035401875153184
0.08123139313422144
0.08289596897084266
0.08451464096549899
0.08550981407985091
0.0855312715144828
0.08578075112774969
0.08588002815376967
0.08612993797287345
0.08660571221262217
0.08677950887940825
0.08710221719928085
0.08677613432519138
0.08660284432116896
0.08667871308512985
0.0864788582501933
0.0864938970375806
0.08658817381132394
0.08570055990014225
0.08443363314960152
0.08492877846118063
0.08453544012270868
0.08377538132946938
0.08345367738045752
0.08374706907663494
0.08350899300538003
0.08377562852110713
0.08378996128682047
0.08476356569677591
0.08651092575397343
0.08852275948505849
0.08979110312182456
0.08942393687088042
0.08987340364139527
0.09125188366044312
0.09307709841988981
0.09455933887045831
0.0949467162694782
0.09389666898176074
0.09482144705485553
0.09631302690133453
0.0970666371891275
0.09746794171631336
0.09783983599860221
0.09783727813977748
0.0980466272868216
0.09760940446518361
0.09713237774558366
0.0963989394903183
0.09508466135244817
0.09388997660484165
0.09300435205455869
0.0928177469363436
0.09375041115563362
0.09470929781906307
0.09498566173948347
0.09492532514035702
0.09480293571017682
0.09437471827492118
0.09300368367228656
0.09306312347762287
0.09367990009021014
0.09388719190843403
0.0938874430116266
0.0935235343221575
0.09296101287472994
0.09243675169534982
0.09202782664913683
0.0919615428801626
0.09262478582561016
0.09299677737988532
0.09302653543651104
0.09309155294205994
0.09381110981106758
0.09477508503943682
0.09537994852755219
0.09531606087926775
0.09622634371742605
0.09785137126222253
0.0997726733982563
0.1010700935870409
0.10142424947582185
0.10114324853755534
0.10098047855775803
0.10145432313904167
0.10273799674585461
0.10437274216208607
0.10524121538735925
0.10465846880339086
0.1048574975412339
0.1054543291311711
0.10606522649526597
0.10544550898019224
0.10464698694180698
0.10369351148139686
0.10276458352804184
0.10192895095329732
0.101380610386841
0.1017477768100798
0.10330812104046344
0.10486172148492187
0.1037457572342828
0.10255566755775362
0.10189876881428063
0.10209441474638879
0.10335209909826518
0.10463783563580364
0.10600876525510103
0.10689040333498269
0.10642706220503896
0.10792757379822433
0.10918016147334128
0.11011938953772188
0.11100962706375866
0.11049475700594485
0.1097595454286784
0.10965454239398241
0.10958639475051314
0.10920782367233187
0.10913318558596075
0.10872876164037734
0.10881133784539998
0.10952921569813043
0.11099052964709699
0.11209186169318855
0.11370338906068354
0.11411241251975297
0.11412490135524422
0.11331689902115613
0.11175028637051582
0.1101976612629369
0.10947062777820975
0.11019899749197065
0.11079674540553242
0.11094255783595144
0.11011069996282458
0.10823112382553518
0.10647312336135656
0.1063252930669114
0.10523783545009792
0.10451893663033843
0.10398961036000401
0.10302322776056826
0.10381365888286381
0.10512190353590994
0.10551827957388013
0.10632965171243995
0.10685283592902124
0.10587637295946478
0.1066400380525738
0.10864300650078804
0.11109916172455997
0.11281216480769217
0.11356818100437521
0.11448142651934176
0.11510603664442896
0.1140679761627689
0.11415843105874955
0.11566059441771358
0.11834748927038163
0.11983094022143632
0.12140214005950839
0.12404846351593733
0.1268488173838705
0.12805092782713473
0.12832348411902786
0.12940463988576084
0.13057062567211689
0.13171142667531968
0.1330606157425791
0.1348946515005082
0.13707743218634277
0.1385930817760527
0.13824484600685538
0.13805048188194632
0.13906355841550977
0.1411125950096175
0.14229198049288244
0.14239299530163407
0.1423229748522863
0.1434073759475723
0.14538761505391448
0.14540180743206294
0.1450117920571938
0.14530964204110206
0.14615845269989222
0.1479542191978544
0.15064830597024412
0.15339655085932463
0.1532410879805684
0.1515923774568364
0.15120807769708336
0.1518311421899125
0.1523698890255764
0.1534084545308724
0.15464267639443277
0.15525388766080142
0.15494797859340906
0.1538114793645218
0.15203644105698913
0.15039574687369167
0.15044726049527526
0.14987241703085602
0.14933010104577987
0.14991798570845277
0.1511714525707066
0.1516390663944185
0.15042912579607218
0.1488607108220458
0.14947263427078725
0.14960068597923964
0.15112482017371803
0.15412295411340893
0.15706812510732562
0.15916585447266698
0.1607104582572356
0.16141471406910568
0.1617135105561465
0.1634397064195946
0.16549461744725705
0.16775940320454538
0.16913236916530877
0.1700177781563252
0.17038037502206863
0.169537208462134
0.1678550194017589
0.16733402664307506
0.1673169842083007
0.16709397080354393
0.16712388712447138
0.16688774658367037
0.16652266171760857
0.16685283745639026
0.1670382625143975
0.16702830394729973
0.166667517805472
0.16569015683140606
0.1664792575314641
0.16753470283932984
0.16796918717678636
0.16777193002868443
0.1674653962487355
0.1674554447690025
0.16718448508065195
0.16719183031469584
0.16733598990831525
0.16665066089015454
0.16604075278621167
0.16724078242201357
0.16707765628118068
0.16567744265310466
0.16354701629839838
0.16184490712359548
0.16122757145669311
0.16004927872680128
0.15860240045469254
0.15863985904026776
0.1575017846794799
0.15515036622527986
0.1527396968519315
0.1504666844336316
0.14759105348959564
0.14427132254932076
0.1416615045722574
0.14163850509095938
0.14314764593727886
0.14378167052287608
0.14337811120320113
0.14204283917788416
0.14124535552226006
0.14009492784738542
0.1386494282493368
0.13861223357729613
0.141050713066943
0.14240466561634094
0.14063760980498047
0.14042643481865524
0.1403624546248466
0.13918136842083187
0.13656840385403485
0.1333905190927908
0.13108523091766983
0.13054804011713714
0.1306932266568765
0.1301442532101646
0.12817368457093836
0.12497828358318656
0.12211298928130418
0.12023852657526732
0.11969606701284646
0.12004446483682842
0.12009949599392712
0.11997718299273402
0.1198782874410972
0.11940359918400645
0.11836108887568116
0.1171826153434813
0.11628696885891258
0.11581943603698164
0.11576405334752053
0.11585008801892399
0.1160057422798127
0.11661927530076355
0.11681745254900307
0.11609815799165517
0.11535307950340211
0.11524825794622302
0.11542465368751437
0.11560772994998843
0.11587371747009456
0.11492122104391456
0.11183990204706788
0.10753585791680961
0.10393087697215378
0.10179783985484392
0.10058908842504025
0.10003882381133736
0.09973451203200966
0.09863935717847198
0.09674510837066919
0.09452281443402172
0.09282458146568388
0.09143350797705352
0.09060045259539037
0.09059291193727403
0.09125811593141407
0.09153260773047805
0.09111805284395814
0.09095120856072754
0.09055419356562197
0.08989843438379466
0.09029695447534322
0.08999660081230104
0.0887524507753551
0.08720016032457352
0.08707585672382265
0.08861599212978036
0.08848676327150315
0.08783786115702241
0.08754692854359745
0.08719310753978789
0.0866563956439495
0.08683007412124426
0.08660004640929402
0.08636219333857298
0.08642392119392753
0.08716576444916427
0.08779540454503149
0.08753466008231044
0.08684502274729311
0.08668111522682011
0.08800963391084224
0.09016150736715645
0.0915341592207551
0.09233362909406423
0.09212852912954986
0.09334134540054947
0.0967193613667041
0.10120674129575491
0.10523856213316321
0.10881804881617427
0.11262332482729107
0.11522212720476091
0.11498413087800145
0.1161598376976326
0.1170583749236539
0.11748354380019009
0.11856433654204011
0.12038158658426255
0.12098560743499548
0.12077417727094143
0.11981189912185072
0.11753743271809071
0.11461763310711831
0.1123612360842526
0.11246305815409868
0.11061947114299983
0.10846497659571469
0.10711050706915558
0.10664528444875032
0.10642259635962546
0.10651207062415778
0.10659474606625735
0.10604093980509788
0.10490192650817334
0.10451646118890494
0.10450849197339267
0.10381005713716149
0.10343081150669604
0.10386469472199679
0.10453485571313649
0.10450154552236199
0.10404301841743291
0.10409738878719509
0.10506833891849965
0.10678356175776571
0.10803501850925386
0.10772870320361108
0.10838327685371041
0.10893514732830227
0.109578498727642
0.10969201034866273
0.10926993390079588
0.10880248880479484
0.10812693630345166
0.10674372874666005
0.10525246515404434
0.1050640798266977
0.10590543587692082
0.10596591608598828
0.10559454625472427
0.10494426066055894
0.10459849602077156
0.10419766317121684
0.1039263139013201
0.1036825144244358
0.10438560534734279
0.10508322476409376
0.10457834225613624
0.10419459969736636
0.10487816996406764
0.10558327903971076
0.10551555261947215
0.10456705865450204
0.10366541548166425
0.10324779485352337
0.10279197135474533
0.1034001653129235
0.10375666449312121
0.1039835579553619
0.10491857231594622
0.10523180363234133
0.10519583530724048
0.10520306102000176
0.1049630915466696
0.10381713303271681
0.10230157145764679
0.10124981883913278
0.1007606577128172
0.10031029503326863
0.09973924149759114
0.09933013130910695
0.09923083546571433
0.09862513308878988
0.09760712326038629
0.09687975818756968
0.09625224407296627
0.09535917681176215
0.09466699780896307
0.09424438624177128
0.09321038919035346
0.09136699911206961
0.08902275044936686
0.08639799263328314
0.0846944936690852
0.08467699769884347
0.08340534766204655
0.0799349896516651
0.07543492943048477
0.07131023323629052
0.06749737386126071
0.06384999086614698
0.0619602877413854
0.06315406989306212
0.061972493780776856
0.05972250967286527
0.05722554426174611
0.05577308913692832
0.055045976731926204
0.054939729599282144
0.05528750449419022
0.05590174162760377
0.05664503273088485
0.056828939132392405
0.05693765015807003
0.05780924097634852
0.05970638007856906
0.06187187303323299
0.0633051325706765
0.06371422720141709
0.0637095184251666
0.06399732168298215
0.06473413937259466
0.06572679460048675
0.06675166219007224
0.06719793540425599
0.06738017285708338
0.06734099682886154
0.06725590866990387
0.06740374436136336
0.06772139933425933
0.06809875095263124
0.06781821299344301
0.06697307121939958
0.06534587006550283
0.06329912456218154
0.06192274069879204
0.06190885062329471
0.06079796343576163
0.05965008036699146
0.05921260221861303
0.059148211283609274
0.05914456684142351
0.058859404996037486
0.05890747817698866
0.05940244739875197
0.06002442547120154
0.060149715268053114
0.05962261411827058
0.05894448243547231
0.058577843122184274
0.05852602211292833
0.05869775292929262
0.059220241555012765
0.05937510972376913
0.059235553951002655
0.0586352070607245
0.05793109617661685
0.057797411726787686
0.05789424682036042
0.0572504436597228
0.05593302667606622
0.05499470829963684
0.05484285892918706
0.05487085752654821
0.05465509144123644
0.05460549027658999
0.054031013390049336
0.053013614788651464
0.05203367292415351
0.05123041776008904
0.050493954783305525
0.04990835228469223
0.0497044074209407
0.04982135802041739
0.04994384681805968
0.04995172604452819
0.04995809130370617
0.05001229452434927
0.04992899292614311
0.04986738881096244
0.05028513506054878
0.05005427069962025
0.049494845359586176
0.049729082654230296
0.049933786001056434
0.04991915852297098
0.05010150478221476
0.05027720456942916
0.05018643424380571
0.05013795975130051
0.05004440953489393
0.0497743380209431
0.04979097461793572
0.04984967279713601
0.04966283062938601
0.049313768153078856
0.049123016698285935
0.048963528987951574
0.04895499822683633
0.04884949760511517
0.04871308969333768
0.04804363480769098
0.04684718965552747
0.04582638304214925
0.04528855188284069
0.04530848595779389
0.044755804571323096
0.04371932293754071
0.04230228542815894
0.04077949201222509
0.03959193701390177
0.0391822022665292
0.03973766555078328
0.040872265584766865
0.04116792498156428
0.0401932309800759
0.03821702878922224
0.03723329874686897
0.037802019356749955
0.039139940217137334
0.03983765275217593
0.03976970583666116
0.039480189313180744
0.03931979708373547
0.038981673601083455
0.03873313090298325
0.039067846634425224
0.03921505430713296
0.03872892017010599
0.038132291152141985
0.038036870411597194
0.038549875519238413
0.03875618546269834
0.03871488481760025
0.03831121348310262
0.03808287874795496
0.03808403178583831
0.03806917188689113
0.03807027750182897
0.03781061645131558
0.03756678036879748
0.03744722200091928
0.03751171993557364
0.037093766811303795
0.03625474880449474
0.03512146240100265
0.03431074666790664
0.03427324666175991
0.034508253121748565
0.03464323380030691
0.03487336897756904
0.034747759383171796
0.03421909045428038
0.033940436765551564
0.033844774169847366
0.03367533900309354
0.03367756631225347
0.033735554963350296
0.03368150610476732
0.03359951830469072
0.033616118566133085
0.03368134851101786
0.033646160610951485
0.03362901547923684
0.033728488851338626
0.03400270128622651
0.034249793952330944
0.034286734899505976
0.03410462954547256
0.033868054738268254
0.033800113634206354
0.03384232671931386
0.03388423353433609
0.03388211039360613
0.03390106372535229
0.0340734170563519
0.03430732995271683
0.03444284216500819
0.034456727053038774
0.03424714154563844
0.03387573577463627
0.03363586247898638
0.03350333492737263
0.03303281389642507
0.03250818709377199
0.03214856320526451
0.031821796926669775
0.03142738119699061
0.031083013424649836
0.03091006160248071
0.030859799291938543
0.030999491014517842
0.031138198245316745
0.031029962422326206
0.03093776280991733
0.031033219234086574
0.031150139425881206
0.031281415075063705
0.031182773527689278
0.031192826447077094
0.03114179812371731
0.03113544834777713
0.031118289357982575
0.030900647058151664
0.030725765111856162
0.030744457854889332
0.03064234700985253
0.03042310810647905
0.030212202598340808
0.030112475915811957
0.03004041314125061
0.02969440344721079
0.028854588386602698
0.027644077707082035
0.026402046191506087
0.025497427275404334
0.025294086853973566
0.02474063978064805
0.02366656840313226
0.022583599500358105
0.021674396926537155
0.02079764399677515
0.019836318800225853
0.01905606417916715
0.018954322724603116
0.019007127527147533
0.018585961353965105
0.0180347314896062
0.017344284914433957
0.016493954746983945
0.015792033248580993
0.015447991755791009
0.015235155113041401
0.015088070891797542
0.015183074087835847
0.015355508346110582
0.01578543708194047
0.016064012069255115
0.016116676344536243
0.01597224825527519
0.015917607941664757
0.015995273124426602
0.01618343961890787
0.016244643167592585
0.016085380888544023
0.016098405751399696
0.016012851581908762
0.015574147263541817
0.015224290336482227
0.015153082446195185
0.015080965370871127
0.014907045331783593
0.014872722895815968
0.014794100490398705
0.014789036847651005
0.014595786472782493
0.014446442201733588
0.014490314717404544
0.014607125166803599
0.014613316329196095
0.014518391662277282
0.014500393620692194
0.014660537666641176
0.01475996283814311
0.014734435481950641
0.014641675874590874
0.014642321872524917
0.014753253236413001
0.014918216345831752
0.015063789458945393
0.015090497960336506
0.015122976968996227
0.015212892540730535
0.015224005351774395
0.015010591908358038
0.014842503597028553
0.014656101088039577
0.014495660294778645
0.01453251485247165
0.014657019642181695
0.014637338574975728
0.014820840004831552
0.014952316046692431
0.01505622083786875
0.015342630981467664
0.015537037281319499
0.015555525692179798
0.015513993548229337
0.015548649444244802
0.015644434234127404
0.015679877190850674
0.01552796371281147
0.015498278047889471
0.015619510528631508
0.015786184696480632
0.0159103781869635
0.01602126173209399
0.016163141266442835
0.016313177081756294
0.01643097698688507
0.016498845131136478
0.01651899655815214
0.016518875071778894
0.016529321684502066
0.01653613684233278
0.01652148153167218
0.016519215912558137
0.016545069538988173
0.016569351456128062
0.016578207379207014
0.01657453240826726
0.016538994340226053
0.016456458438187837
0.01638175457250327
0.016365842455998064
0.01635440018028021
0.016335922703146936
0.016282009612768888
0.0162818194180727
0.016378000895492732
0.016607819152995945
0.016890180031768978
0.017063982924446462
0.01705300138797611
0.016865611444227397
0.01658857785630971
0.01655343051068485
0.016494141165167092
0.016367669370956718
0.016432189270853995
0.016564265098422765
0.01652303940616548
0.016525971768423915
0.016807203772477807
0.017205403819680214
0.01735818388406187
0.01728294721338898
0.017310904115438463
0.01742556902114302
0.017633442725054918
0.01821945269126445
0.0187209109403193
0.018904519295319916
0.019080362319946288
0.019497459335252643
0.01988426722586155
0.02002306551206857
0.0201657923636958
0.020720084933564066
0.021399622219614684
0.022048978498205543
0.022726397346705198
0.023495913627557458
0.024257116108201443
0.02482367687858641
0.025054866308346392
0.025137211116962134
0.025646824408322572
0.026322399661876262
0.026679450115188956
0.026601130636408926
0.02655082244426012
0.026476175347343086
0.02636181051377207
0.026253412254154684
0.02614003982860595
0.02611604582518339
0.026346624959260226
0.026765816286206244
0.027039235359989106
0.026939009530469776
0.026625410546548666
0.026420168466866015
0.02645172748249024
0.026733209234662353
0.026802674429491163
0.026726493295282126
0.02679303179960698
0.02679886090569198
0.026814954821020365
0.02702554527670145
0.027075340314768256
0.02719607069157064
0.027257634112611413
0.027128553870134055
0.02706629707477987
0.027175113265402614
0.027380514247342943
0.02762856399640441
0.027976103192195297
0.028414564039558173
0.028747874605469407
0.028738553207367658
0.028556161937303842
0.028426475110463797
0.02863927436992526
0.028981279176659883
0.02906301506794989
0.028909861310385167
0.029161664890125394
0.029373849611729383
0.029399750712327657
0.02933078124653548
0.02941411139443517
0.029660762171261013
0.03002005477435887
0.030235926895402374
0.030160134206525982
0.030229649054817856
0.030252494947053492
0.03027502287644893
0.030421621571294962
0.03064294233452529
0.030790392966009675
0.030825073816813528
0.030847976505756377
0.030879048174247147
0.030925741931423546
0.030890416903421283
0.030781766762956977
0.030663295281119645
0.030645893020555377
0.030765604092739523
0.0309150706557557
0.031024958342313766
0.03116549558006227
0.031235157079063356
0.03133382459636778
0.03142074754927307
0.03132881325669587
0.031161787169985473
0.031083705872297286
0.030943345627747476
0.030591585282236336
0.030092226197011768
0.029731687754392624
0.029561031791381538
0.02941176672000438
0.029361836640164257
0.029277147161774337
0.02855914759915322
0.027864609751850365
0.027641971106640996
0.027614977387711407
0.02741426998283714
0.027098241681233048
0.026916427873075008
0.02672744056209922
0.026012036856263875
0.025215043858624994
0.024520738585852086
0.023823422715067863
0.023092720876447856
0.022351129879243672
0.021764948051422834
0.02159389079082757
0.02161440172698349
0.021108151162043214
0.02027098190970719
0.01973952349741012
0.019821361806243658
0.020010644332505764
0.02018359415233135
0.020330472863279284
0.02045659478753805
0.020512412069365382
0.020376827935688197
0.019996240623295306
0.019485720079392196
0.019095903784036635
0.01901220541447401
0.019112043785862624
0.019074240061454476
0.0188569996971637
0.01879477655980736
0.018919080821797253
0.0191221224097535
0.019148261449299753
0.019130775602534414
0.018988673174753785
0.018954379856586455
0.019180674636736512
0.01948790821712464
0.01964271204546094
0.019625889253802598
0.01967262583784759
0.01993605143856257
0.020198729820549488
0.020128620462492107
0.019704233692027628
0.01919591741170734
0.01882760364562273
0.018779166624881327
0.018938352200202645
0.0189966110792011
0.0185733554745093
0.01796468460932374
0.0177231293451041
0.017794277016073466
0.017414596318267285
0.017375172646716237
0.01766819151584059
0.018028141795657576
0.01808904092293233
0.01783006894402206
0.01756143344566226
0.017425661380402743
0.017463257354684174
0.017344791027717292
0.017451845803298057
0.017615848556160926
0.01756587259005755
0.017336607505567373
0.017227303772233426
0.017229561232961713
0.017317403671331704
0.01739272499457002
0.017325883619487285
0.01733798906672746
0.017284113145433367
0.017122746640816332
0.016968641113489866
0.016931364592164756
0.01697677925694734
0.017025917530991138
0.017103678658604623
0.01723999126814306
0.017336712069809437
0.01729625031352043
0.017248460431583224
0.017236004527658225
0.0171244477853179
0.017023630770854652
0.016960082561708986
0.016949984803795816
0.016915165982209147
0.016842899778857827
0.01677221402991563
0.016743693803437053
0.016776268919929862
0.016840053922496736
0.016873240093700587
0.016851366055198012
0.016781467315740883
0.016637087613344193
0.016436770306900144
0.016388109270483255
0.016379630365408956
0.016477409745566548
0.01643557864241302
0.016364181214012206
0.01641502782702446
0.016449660556390883
0.01645921696908772
0.01647775458637625
0.016398745933547617
0.01624508078210056
0.016146308295428752
0.01616330455057323
0.016185224610380827
0.0160941005544737
0.01593819190748036
0.015829576794058085
0.01577827110886574
0.01574969061650336
0.01574484691489488
0.015730843776836992
0.015646287729032336
0.015522388997487724
0.015444244705140591
0.015391371711157262
0.015274702096357942
0.015181489381939172
0.015169728826731444
0.01492152594961226
0.01465796728618443
0.014476046804338694
0.014333330080844461
0.01419498324394226
0.014206181573681533
0.014181444225832819
0.013960053422488272
0.013693866836838424
0.013604494943283498
0.013671877817250789
0.013620557500980795
0.013298954428173602
0.012914432110264898
0.012716547399759293
0.012677658987231553
0.012677317797206343
0.012693639802746475
0.01255241086706519
0.012316834949888288
0.012184088649228215
0.01224746169988066
0.012347153062000871
0.012344907424412667
0.012335143247619272
0.012447806922718883
0.012318466128781437
0.012088088653981685
0.011913443496450783
0.011892006830312312
0.011990330177359282
0.01190351820550859
0.011767470156773924
0.011779718035832047
0.011895977747626603
0.011904612458311021
0.011880470048636198
0.011994856768287718
0.012305613216012716
0.012569800592027605
0.012693698024377227
0.012645205301232636
0.012579697398468852
0.012575292284600437
0.012676312699913978
0.013092782790772617
0.0137301442399621
0.01415436301380396
0.014018142390996217
0.013940468528307975
0.01390336730517447
0.013681835015304386
0.013428857959806919
0.013348134104162454
0.013552725184708833
0.013800241509452462
0.01396638514008373
0.014134466224350035
0.014291969235055149
0.01446419585030526
0.014680290841497481
0.014916514200158416
0.01513407071121037
0.015372666530311108
0.015633651418611408
0.01580329523421824
0.01580955909565091
0.015718115591444076
0.015609318488277495
0.015510383467189968
0.015411454252898693
0.015570934764109551
0.015674027260392905
0.01575541266705841
0.015928163924254477
0.015960360546596348
0.01605013488791883
0.016154234325513245
0.016097821122966708
0.016153349238447846
0.016255028075538577
0.016372200562618674
0.016498282235115767
0.01660452746786177
0.016665947418659927
0.01670507333241403
0.01678518532309681
0.016904883095994593
0.016984295970760285
0.016985150328837337
0.016953779850155115
0.016939115691930056
0.016929090307094156
0.0168795932456851
0.016936140577308835
0.01703061060514301
0.01709810601081699
0.017171950782649218
0.017237394261173905
0.017253400417976083
0.017260635485872627
0.017330879755318166
0.017473881063051522
0.0176659154612571
0.017873999755829574
0.01803815028630197
0.01806922578252852
0.017982566636055707
0.01790239688474685
0.01786801002919674
0.017788835065439344
0.017632068772800265
0.01749703535810113
0.01745194839313626
0.01745321469847113
0.017447699061594903
0.017444248702377083
0.017461646483279764
0.017512279548682272
0.01750646500848234
0.017547587277367712
0.017559137484058737
0.017490581921301783
0.017389877019450068
0.01737613113131374
0.017472937144339083
0.017555966670624912
0.017547996821813284
0.017529460941441356
0.01758907419629395
0.017739421520382166
0.017956464560702445
0.018153521567583084
0.018180803498253226
0.017960063437931238
0.01769302764441818
0.017395232673734426
0.017147912397049367
0.01700700038578361
0.016938867811113596
0.016880920599214734
0.01683555151335895
0.016935785869136452
0.01713623130694032
0.01706906563602388
0.016655210703611374
0.016108921146951616
0.015805061729624866
0.016092075458727775
0.016537929312326016
0.017156638209708034
0.017925025266595184
0.018623244375921787
0.019031394110061228
0.01873847690410912
0.019253772483207286
0.020160874989815055
0.020909228743985295
0.02134042401332408
0.021408145502209663
0.021198030984960495
0.02105721553787589
0.021117373276501893
0.02101107647176832
0.02062035464681685
0.020601729676127434
0.020717934230342506
0.02088343943003565
0.02117664758581668
0.021643206044100225
0.02227355397772044
0.022703486448153853
0.02301983404904604
0.023157211556099355
0.022997358106076716
0.02290140604134649
0.02298814488109201
0.02320295204408467
0.023547967365011573
0.02364149854052812
0.023529105777852236
0.023538003503344954
0.02348791870288551
0.02337182510178536
0.023381304973736406
0.023549086302518844
0.023600228209979833
0.023374154730699957
0.023178803427144887
0.023079276331700385
0.023089085626415908
0.023075208868831396
0.02308469219598919
0.02325073830317706
0.023419358022511005
0.02354684884659946
0.023652988648973406
0.023784292098134756
0.023943276782520114
0.024101086971350015
0.024268498620949687
0.024330277354456486
0.024311493495479227
0.024258787785656752
0.024202790302224456
0.024152531111612915
0.02410909936297685
0.02402751682791859
0.02386637808289379
0.023693677727133034
0.023620620206929743
0.02364357201848179
0.023655993812717498
0.02361564008053392
0.023603035677224396
0.023615018725395204
0.023643971816636623
0.02365851677954197
0.023667628951370714
0.023760490901768207
0.02382236794568598
0.023895492870360614
0.024028608687222005
0.02415632360614836
0.024147026403807104
0.02397791935596615
0.023764946949668228
0.023608792466111483
0.02348666552454233
0.023315576682798565
0.023062872136943042
0.02289503871463239
0.022827771347947418
0.022834680979140102
0.02286040343809873
0.022904777796939016
0.02306507813744247
0.023260674052871765
0.02336684585083276
0.023386775925755502
0.023446590760722755
0.023577940156683325
0.023619511546567083
0.02364361655898392
0.023609045650810002
0.023446879163384438
0.023184917732141912
0.02289628656115383
0.022481909096240996
0.021833677687682213
0.021005428032949566
0.02030584993772209
0.019702744083479048
0.01923915810417384
0.01932944102678448
0.018674643244594336
0.01775262170471251
0.017041348041966557
0.01664290763437748
0.016583722294308247
0.016782520795240997
0.016898560598492623
0.01676082960795611
0.01667047732975334
0.01676279307343066
0.01654226053506136
0.016346740494482218
0.01613450423348695
0.015727901719510554
0.015228362926281989
0.014675841690041125
0.014118508873507381
0.01367985347751528
0.01348613157402724
0.013467350569553673
0.013486571577377617
0.013347186837345362
0.01307853146456182
0.01274308932479471
0.01263655662536621
0.012756361346691846
0.012736182473599911
0.012781114378012716
0.012937902216799557
0.012979432032443583
0.012800708077847958
0.012624534121714532
0.012617590124718844
0.012581997965462506
0.012558399834670126
0.01260122727137059
0.01290275622624904
0.013480985560454429
0.014030495728366076
0.01420599976554513
0.014069249192252754
0.013858072203584015
0.01377804025541991
0.014044057098217308
0.014642605422995985
0.015174587680958211
0.01525828255340457
0.015217604828067124
0.015246981554664672
0.015195285193622112
0.015128759536892175
0.015110417157411576
0.015162261757068337
0.015287969540804625
0.015437189964577555
0.015562236602418124
0.015676424694247543
0.01579303395934403
0.015895173964090646
0.01598795868922025
0.016166205485351384
0.016380873066373168
0.016585615663789213
0.01675985117442906
0.016903608469292522
0.0170111048175022
0.017059384286403655
0.0170198035845533
0.016923682945780456
0.016856627245433627
0.01685422804672271
0.016903249267488717
0.01699428883381188
0.017111054235138
0.01728032932151109
0.01756508389953524
0.01777304880786687
0.01778057270217687
0.017725834641605615
0.017928906469605863
0.01817239059600979
0.018312884056940676
0.018210925385355948
0.017975895102135837
0.01776341994293034
0.017599381650798024
0.01745028766337782
0.017365253111347557
0.017318048286251723
0.017222971031442283
0.0171686316980049
0.01723933095112443
0.017236076849512755
0.017370907976292073
0.01758037474937737
0.01777491133660078
0.017803703160025178
0.017739493916742503
0.01770772859454155
0.017763312002643944
0.017847432955168187
0.017885193689726294
0.017884291764348744
0.017873391089960933
0.017870020736008883
0.01793167138006538
0.018080725492909552
0.018196433959528805
0.01817558423615992
0.01814266003202647
0.01824731331784278
0.018394095599651338
0.018420183584094047
0.018493201420642435
0.018557189851999282
0.01863425746560097
0.018819796605966985
0.019024609024636447
0.01900132749695331
0.01906480492092669
0.019279634640552105
0.01937801661901176
0.019314136682078244
0.01933905967976898
0.0193076101411134
0.01925681754015386
0.019448902388103307
0.019800141132436694
0.020112187848426402
0.02027936405967921
0.02032868255395442
0.020312664238736032
0.02033942174166441
0.02046245993115008
0.0205580231314525
0.02042242373339832
0.020068903076462447
0.019499947377480568
0.01885605783201754
0.018465724177658557
0.018364255102351307
0.018391236108727754
0.01834913152270019
0.017975820624269546
0.017261727442964912
0.016696132067590953
0.016753834392875432
0.017020630897022784
0.017129290075972678
0.017195458309724927
0.017213070937432347
0.017147763296961785
0.017003730055876076
0.016826079925522208
0.01663314851000905
0.01646609100047499
0.016320212078280747
0.01620908797252923
0.01616103514097631
0.016109718116931616
0.015959344739094376
0.01578403396997601
0.015731692025437952
0.01578873793594539
0.015812514419667422
0.015711860004812478
0.015556665658950806
0.015506910695694386
0.015592888877727092
0.015677979211322964
0.01564831633120775
0.015539237433113157
0.015476660239510238
0.015454026297666132
0.015380107425153255
0.015103439907543361
0.015091884923167527
0.015403599124401807
0.01574493706226349
0.01576445285696536
0.015568669307976962
0.015312514966353774
0.01524296167306602
0.015373610015958548
0.015515558626502753
0.015556040448136627
0.01564493480604142
0.015768054435029627
0.015853417771868408
0.016017060400918125
0.016264208839274943
0.01651143138296902
0.01682771901600063
0.016924126059748232
0.01689333510119468
0.01696928179822862
0.017131738825701178
0.017161070094443856
0.017251298339106144
0.017458793208934367
0.01773092314135283
0.017861950886435808
0.017775711440481245
0.018143623219802976
0.018471015174873172
0.018429097482003273
0.01822498285677284
0.018142012958414853
0.018034960590302945
0.018245048513635995
0.0186816548043862
0.01897886870894581
0.019048044476658105
0.01905041473452002
0.01895009926520288
0.018831349653191866
0.018660536538809537
0.018689360599964858
0.01898779852781445
0.01914453907869756
0.01920377115253359
0.019372619776986538
0.01967497127596289
0.01991686319001019
0.020112539157271386
0.020279478915035724
0.02020117038860917
0.019944086503237486
0.019703818806447088
0.01959691373631358
0.019604757907800377
0.019688878706656397
0.01974443253595382
0.019649453833699225
0.019542888556607067
0.019547705254517496
0.019503680849447848
0.01939080910757184
0.019322401620447637
0.019300792808644475
0.019375017140991987
0.0195059219468385
0.019633726086467504
0.019746577590703963
0.019867993453517557
0.019919822444207966
0.019793954542838037
0.019574756324291228
0.019430010253563522
0.019365647109225392
0.01929645778145641
0.019203245053067804
0.019258169187232853
0.019415427669882773
0.019586907289922236
0.019662133888341485
0.019643049598671497
0.0196842437190935
0.019738804576918484
0.019830266484059392
0.019988322923891248
0.02013077635783702
0.020148403611965477
0.020043901544995607
0.019912388417869808
0.019859014814719557
0.01988900688011199
0.019908992941491305
0.019914368968456983
0.019992028009146453
0.020127974268980324
0.02019645641092211
0.020104077439755202
0.02001688382588327
0.01999193815048784
0.020134121500886976
0.02001219514757395
0.01965836489573121
0.019264213014394044
0.019136974448338152
0.01918277157470584
0.019320901315659285
0.019440127997659148
0.019447310394607484
0.019463899936527015
0.01961861942894757
0.019736654995940624
0.01969335714355111
0.01954265037551522
0.019308281820267437
0.019014373645186423
0.018673050776124002
0.018363853711634875
0.018129448299296202
0.017972778654657306
0.017749127065762878
0.017494989284314214
0.01755723521579057
0.01762385974638164
0.017490179114975034
0.017179115694016218
0.01697043473366648
0.016991588468663395
0.016582166524603963
0.01623157878406346
0.016214801706373693
0.016277289777062835
0.016209719195030628
0.01623700134921819
0.01590530716814101
0.015284356265328824
0.014779028180055321
0.014663526182994246
0.014692520010285079
0.014819219373166562
0.014825655515305698
0.01487911086063832
0.014714005263522267
0.014420237867161631
0.014184567402116955
0.013922711545601487
0.01383796307258308
0.013912887135520578
0.014116873661987484
0.014400020455941558
0.014693081229925156
0.014878346715122462
0.014771284060552716
0.014690855867229402
0.01490211593452841
0.01519387774169445
0.015453815208747983
0.01575957111082971
0.01600235520862043
0.01604402868077159
0.016275054491125047
0.016492117787711324
0.016791320256888866
0.017307413797825574
0.01780443225055933
0.017923554480075835
0.0177801813185215
0.017646081359125675
0.017616738458164038
0.017654996844939888
0.017743851896375416
0.017927543306723238
0.018192181987687947
0.018404925311915576
0.018458669018000366
0.018420262415893375
0.018554020035080613
0.01860776398330927
0.018544226470403373
0.018494308115914463
0.01860049971845001
0.018772322162985803
0.018719189739786087
0.018687855610623957
0.018571876659989356
0.018400006531737744
0.018224076307378708
0.018229555771686137
0.018375116344541313
0.018573172250762583
0.018761840625666083
0.018912303503602745
0.01904087297618389
0.019154935348778962
0.019222977068275214
0.019226756850257515
0.019201831729151308
0.019216744764707982
0.01919044822920114
0.019089566436596216
0.019033366856165232
0.018992135734297335
0.018897103099152445
0.01904464929830283
0.01913157192990184
0.019075026749633253
0.018908650814555585
0.018735637348145248
0.018598769027739763
0.018463251092471183
0.018321897010318933
0.018201413517817854
0.01811252285260707
0.018092972063459455
0.018186129466630518
0.018334576683118938
0.018477948564104736
0.01860716562718153
0.018732194770127535
0.01873389771208167
0.018694757763296366
0.01877543402835727
0.01882025911938399
0.018730045491829515
0.018531731707043947
0.018366737673059106
0.018282865486107767
0.018218662589788437
0.0181491342978552
0.018082717331126333
0.01798748377710581
0.017842659042216838
0.017702810261398555
0.01766468443442136
0.01779582374263555
0.01795286878477782
0.018086374034173788
0.018133158003911375
0.018049631672911345
0.01793892218731344
0.01802432298194617
0.018192143007181586
0.018508991566486655
0.018782800659537316
0.01877566342242062
0.018800492007285355
0.018577369204722347
0.018147965241223574
0.01767719890922308
0.01721599721815437
0.016772676073014737
0.016362158060073854
0.016441840082406997
0.016578580290079116
0.016364321885630487
0.01600119367707521
0.015654689385555684
0.015274949702434242
0.015016172775067388
0.014992080726660788
0.014735086485743523
0.014558008713647723
0.014472035486251115
0.014249549959786237
0.013923128200694919
0.013766087903641165
0.013833421310409903
0.013838795330375433
0.01387220655567944
0.013880759729072451
0.013884559348225594
0.013873247089795768
0.013775436147116125
0.013580233054235578
0.013448836617171764
0.013596241539344191
0.01360546272713691
0.013489640862680972
0.013449539546854794
0.013427050644531846
0.013454416263848544
0.013690745388157666
0.01410204214975238
0.01426252516452223
0.014302371102385223
0.01433699456974864
0.014307774333283306
0.014238309543579818
0.014259302406571805
0.014289590427652002
0.014215630646795034
0.014026506864465773
0.013832946885377168
0.013747463831678033
0.013682945002801716
0.013505756263621152
0.013775563100352883
0.014181793709285557
0.014476120267063379
0.014687726786360145
0.014776127389632165
0.014861519783735275
0.015089158588089048
0.01515156077221036
0.015085974140092731
0.01507894657086581
0.015244254255667328
0.01542771412525326
0.015468530091457069
0.01548334321938455
0.015626554326154292
0.015851284195668995
0.016091482457704843
0.016333047375082968
0.016480681635439396
0.016473084585741163
0.016387522369623184
0.016286887479946017
0.01619421236217022
0.016161030223593116
0.016250764499418438
0.01634757310152054
0.01634000914171338
0.016234324402175843
0.016307034860365093
0.016432570298202335
0.0164728862605989
0.016507689263671636
0.016624056068249047
0.016761903492733835
0.016851000119931996
0.016934835314750672
0.01705021067522466
0.017124458202160894
0.017075524432584643
0.016935258493758737
0.01685087477322668
0.016929411655291916
0.017104388047009707
0.017259664321318268
0.017340705250389873
0.017254560966975988
0.016943476772867144
0.016635606028139592
0.01657981394790113
0.016590441362932324
0.016750974212773145
0.016976471813395618
0.0171037095785141
0.017128736600279807
0.017148458822630344
0.01728711574804038
0.017220072923228146
0.016993946940638126
0.01675885188393295
0.016654321858659386
0.016600676402449607
