0.009753250170033425
0.009717845355626196
0.009733112105168402
0.009801872363314033
0.009873827621340751
0.009925819069612771
0.00997667749878019
0.010038461138028651
0.01008872281294316
0.010116999309975654
0.01015369969420135
0.010218999942298978
0.010293237573932856
0.010339339619968087
0.010312599493190647
0.01017919093137607
0.009964657006785274
0.009757587772328406
0.009646740630269051
0.009650195683352649
0.009696670996490867
0.009712726585566997
0.00970853797160089
0.009719554714392871
0.009731032704003155
0.009729093255009503
0.009751887023448945
0.009816949740052223
0.009877805409487336
0.009895045852754265
0.009871185221709312
0.009831835981458426
0.009806087957695126
0.009804734303615987
0.009819403965957462
0.009825437462422997
0.0098108842340298
0.009808307464700192
0.0098466627439484
0.009899062507320195
0.009915520909707994
0.00989878292195499
0.009899148989934475
0.009921795206610113
0.009941217214800417
0.00997724644606933
0.010048752387519925
0.010148091320879758
0.01026033581700176
0.01031368960859254
0.010257329558953643
0.010171533061657101
0.010094350303988904
0.00991568949073553
0.009634511412587017
0.009452435739804059
0.00947540592169389
0.009577176242601126
0.009625487627927214
0.009657975735608488
0.009772538454271854
0.009946226396132261
0.01005628886865452
0.010045806702692062
0.009989309632219374
0.009988735693041236
0.01005795603385195
0.010139955498743802
0.010190587523393333
0.01021033042576164
0.010218270192854106
0.010201870538294315
0.010127372888382525
0.010028285926673562
0.009988055911380798
0.010019087607506662
0.010048230327665806
0.010017300781328231
0.009958186077419669
0.009940715788397938
0.009976963927038014
0.01002619821112603
0.010053151822648942
0.010060647535137832
0.010078189631458371
0.010120004953350872
0.010173970924224705
0.010225711050443351
0.010267978983465582
0.010292715958785266
0.0102914679213427
0.010245994185097515
0.010139847220852972
0.010033138180151582
0.01004357319092378
0.010182436590548604
0.010324990076478571
0.01039078164845705
0.010428968402557075
0.01050789930857718
0.01061411548173055
0.01066098356153816
0.010595163512043655
0.01048564151627943
0.010428079722914844
0.010392290388699621
0.010275398762896657
0.01015894919866696
0.01001007780432701
0.009974053932819516
0.010029902176465839
0.010134643593337387
0.01021832020021975
0.010220160991884768
0.010193205976393074
0.010220293202437461
0.010259208153001964
0.010250599675346165
0.010255089588463306
0.010319586971309035
0.010386884394101799
0.010424086770508439
0.010461534196510911
0.01051334967603907
0.010568886350374668
0.010603444802109152
0.010576421171426773
0.010489116644021124
0.010407919778954238
0.010375350697431713
0.010359570437576621
0.010316934084985406
0.010268732651602476
0.010287346662953495
0.010377049781382083
0.01043118536937982
0.01037893162574619
0.010290177837014199
0.010255790881346911
0.010260477664414793
0.010248841480351984
0.010219797340687365
0.010201587721239776
0.010204380317591131
0.010221332025248558
0.010242046858184039
0.010252932021394372
0.010239383152220399
0.010229680177289993
0.010301750509534031
0.010453993992414326
0.010557609912939369
0.010550098977982997
0.010542772312182933
0.010626953043974936
0.010717992710415274
0.01069623522926122
0.010581810474395752
0.010479455064050854
0.010416081834118813
0.010311921306420118
0.010133872723672539
0.009999185379128903
0.01001748014241457
0.010112871224991977
0.01013662205543369
0.010056833103299141
0.00994341829791665
0.00987342293607071
0.009890257276128977
0.009958250226918607
0.009978713223244996
0.009933397085405886
0.009925618814304472
0.010013203185517341
0.010115981858689338
0.010163628333248197
0.01021042570238933
0.010303371637128293
0.010396935152821243
0.010464336075820029
0.010517671862617135
0.010533110627438873
0.01048002288909629
0.010378475650213659
0.010279800584539771
0.010212896594312041
0.010161846035625786
0.010099840816110373
0.010033417751546949
0.010002735769376159
0.010029926844872535
0.010068995947949588
0.01005783474072814
0.010007671781349927
0.009971222991589456
0.009964357865974306
0.009965676565188914
0.009947482510469854
0.009900897201150656
0.009852143628522754
0.009843866035807877
0.009891899921931326
0.009957687242422252
0.009995582967530937
0.01003159879008308
0.010120667896699161
0.010173759697936475
0.010278231052216142
0.010307892828714103
0.010248278542421758
0.01012333380524069
0.009997858444694429
0.009944019839167595
0.009964958613272757
0.010005798975471407
0.010050867630634458
0.010091703340876848
0.010058345349971205
0.009944351259618997
0.009862135590519756
0.009853586701210589
0.009847031848039478
0.009838122765067965
0.00989475446753204
0.010012760439421982
0.010147811598144471
0.010293089656624944
0.010410924656316638
0.010431884473655373
0.01037309345556423
0.010323204430751503
0.010256884486880153
0.010202981915790587
0.010119789564050734
0.010051600504666566
0.010077226273715496
0.010166947462130338
0.010226632778067141
0.010243238534312695
0.010295878238976002
0.010434312205761671
0.010614335399586707
0.01078112594317645
0.01090277919312939
0.010910470976959914
0.010785605802666395
0.010642619223799556
0.010543393632397056
0.010411912018898874
0.010247239824384451
0.010156035216059536
0.01013977345544845
0.01008389562368393
0.009968884701374919
0.009918228681199253
0.00998630681540817
0.010066198869608342
0.010063874018378556
0.01001927285687998
0.01003725653514266
0.010139362637419254
0.01021055867895484
0.010157683682627976
0.010059373714029788
0.010067181701306254
0.010193671791348606
0.0102958232909441
0.010279620606452227
0.010186684469226747
0.010091112561058253
0.010062549856957047
0.010162117511499673
0.01035701768938452
0.010505861497949808
0.010504128416068853
0.010396432438865304
0.010283467180561274
0.010197470262646675
0.010126785752363502
0.010072498305235059
0.01005595680559054
0.010096781807951628
0.010166748680640013
0.010214403236750514
0.010240474143065512
0.010290846310090274
0.010389145200606435
0.010492055914364756
0.010535864208359271
0.010512637498322874
0.01046646741218865
0.010457128933630884
0.01048469677567482
0.010451888090465218
0.010316754465457052
0.010183648278471083
0.01013268317328766
0.01011664349352941
0.010079408765304833
0.010031823182944209
0.009993322608061135
0.009959146964829415
0.009940569293685258
0.009940202308353036
0.00992332696216181
0.009911268632858992
0.009954468065407127
0.010017845374532043
0.010077617736533285
0.010172022350598126
0.010279424933250993
0.01033987822709605
0.010336102398578078
0.010305121534038335
0.010219413286540658
0.010147318949457258
0.010111729055643082
0.01013756631873548
0.010224185411352664
0.010306480610743164
0.010315727752167731
0.010243705289904028
0.010114722948055715
0.00997119037201628
0.009877550615929067
0.009848338663578033
0.009851599934045226
0.009921940336935222
0.010096524253021925
0.010267286519519985
0.010304678254760802
0.010296905401628465
0.010276008816435932
0.010287056071683764
0.01030358545249328
0.010283320068847388
0.010234032825101167
0.01020033158129081
0.010193341299891473
0.0101612368109636
0.01006929126335308
0.00995032204547897
0.009839004680979997
0.009751526911277324
0.009717783257365227
0.009747954867780208
0.009810238261707127
0.009869804149493575
0.00990163702517748
0.009900999499950557
0.009906863325741143
0.009940939908847212
0.009973535346798599
0.009984562846366316
0.009957830000203102
0.009892726303078234
0.009873491385951639
0.00998461416689679
0.010150289868470282
0.010201863469555974
0.010132029862143099
0.010105127820279449
0.010179739107843488
0.010229067753534764
0.01017224432900548
0.01010072160512209
0.010116046213079244
0.010188454946037382
0.010236383934970944
0.010233121709898114
0.01018708414863795
0.010084107599686832
0.009926140585448592
0.009818715688306839
0.009877548466902227
0.010031395789701492
0.010116706476546824
0.010130798995960503
0.010177325406111777
0.010255680193658918
0.010274186236783863
0.010205431482754648
0.010135321209672839
0.010142727515194565
0.010191169460304081
0.010195837300270795
0.010140908611938358
0.010094474737998098
0.010108386210631579
0.010142059372738004
0.010140149549115449
0.010102316299453377
0.01005883156787604
0.010062692069914192
0.01014882192015648
0.010279447298962623
0.010381576218642295
0.010417791123036296
0.010427255667746067
0.010474678298924118
0.010551891208160668
0.010597551211249083
0.010573790355119855
0.010497789026703685
0.010426329118199646
0.010377707693260163
0.010324727525003255
0.01027018240885809
0.010216430407017469
0.01014060851186514
0.010083513238932938
0.01011981506831944
0.010225147523451597
0.010272140477318316
0.01027405502507463
0.010236846171319485
0.010197319448925555
0.01014281450305134
0.010061668297275901
0.010001047104597092
0.01001862481702119
0.010100879960227759
0.010175807580817492
0.010193659448996186
0.010162520171143115
0.010107708859723062
0.010041641220450401
0.009969900604337454
0.0098999116406776
0.009854337729047985
0.009860740983858704
0.009916112804785372
0.009966600958723575
0.009964668641332537
0.009947384702973067
0.009968000981025398
0.009999667110387236
0.009998062362428754
0.009979019942693412
0.009972742402460426
0.009966987494844943
0.009953461366239934
0.00996958405012265
0.010027231711428613
0.010076020953711122
0.010084310106467455
0.010069038204383105
0.010040944095235317
0.01001079729758203
0.01001282196957618
0.010050543833058328
0.01008019796339795
0.010070088237989694
0.0100429245387204
0.010060793191660195
0.010121990258339793
0.010104088454972952
0.009957803497090936
0.00979180977679789
0.009714485153090209
0.00977920349687338
0.00988310034852475
0.010007424231152981
0.010153952871914953
0.01024098229361698
0.010213219525758177
0.010144776937086136
0.010137761505320668
0.010197911981958897
0.010264338010456413
0.010303095325361937
0.010325676642823965
0.010334580230992287
0.010300865243189038
0.01021861628862098
0.010149524931330233
0.010151032619178295
0.010175918431486934
0.01013630064437166
0.010040886546485127
0.009970834692940116
0.009951449318323284
0.009934661483857781
0.009891201469581574
0.009839992087800056
0.00980202436214313
0.00978914158185944
0.009793445197865368
0.00977800756925717
0.009743925021030008
0.0097396778780967
0.009774895492009819
0.009815850334707648
0.009826498238835484
0.009775209138169885
0.009673466328531504
0.00962975630769506
0.009768933709710836
0.0100253911386244
0.010183990488294513
0.010176196210086346
0.010113648336846382
0.010077227964065969
0.010062092689331621
0.010058581444900483
0.010063374256715179
0.010036354863550513
0.009945865247864276
0.009832847195211799
0.009738201345317065
0.009641698519699276
0.009549824434798211
0.009532442376948893
0.009598174013663084
0.009675405174493789
0.009779318908695132
0.009992375231813639
0.010244417106732726
0.010353320981375874
0.010284416379872709
0.010171903290320188
0.010119707055855543
0.01011156735708937
0.010086953286081552
0.010039057275280356
0.010023284046910703
0.010053386015351861
0.010051328679546714
0.009983216607943178
0.009938463815487922
0.009977454193867743
0.010033287156838924
0.010042669209651649
0.010026095020584762
0.009992661729920655
0.009920757971704006
0.009837777579668909
0.009816696890629828
0.009909570645540954
0.010083969777915626
0.010229184129275381
0.01027487728279084
0.010248437894042582
0.010206292753573508
0.010201550116762518
0.01026176636805758
0.010336805807892233
0.010366435965988786
0.010365512070711702
0.010345518342219293
0.01027443578466773
0.010181728140451015
0.010154518724884837
0.010194247893523425
0.010216001598164439
0.010209812286775559
0.010266281752847136
0.010374553196597844
0.01042790484149009
0.010403275096323342
0.010311041984241456
0.010248063134495168
0.010224052390549332
0.010228492724709213
0.010262521342374384
0.010296343432273716
0.01029518677853048
0.010256868407595902
0.010213529055472464
0.010206738288979977
0.010228407331742346
0.010225948933511973
0.010178126704413443
0.010100664687342942
0.01001598735107109
0.009949161638505757
0.009907532886136322
0.009890965644735843
0.009903005678206683
0.009915557173080743
0.009907600341830403
0.009918321867007761
0.00997417013393715
0.010035239872522653
0.010075837189797312
0.010137514602392912
0.010237269485369325
0.010316536794416607
0.010341141438111663
0.010344322526361794
0.010356294026132673
0.010370286616962402
0.010378763701301068
0.010404102168977261
0.010453377149533481
0.010473331147804856
0.01038749927887693
0.010168888550251722
0.00990410292521119
0.009734443384222686
0.009693574288394301
0.009698231797665357
0.009687119917944074
0.009675805610604583
0.00969289662083611
0.009737445281352848
0.009807566879317164
0.009900759779848159
0.009992918404750526
0.010071515582967549
0.010145346687640994
0.010208273844327778
0.010248316738288849
0.01028631414519623
0.010340248811990022
0.01034565582871437
0.010227335952222347
0.010052992452401668
0.009954214310273529
0.009939413277897984
0.009937739546876401
0.009931317470036448
0.009947500801645219
0.010002701960038394
0.010074631383176894
0.010102023971267044
0.010056771670933813
0.010011394459288567
0.010041661320719868
0.010099793255794793
0.01009918074356392
0.010057569392956793
0.010053211518097668
0.010101035533007235
0.010158007368445396
0.010204411642625928
0.01024915344780311
0.01027755406452343
0.010235926320310682
0.010098410602658987
0.009924569595605136
0.00978981089545414
0.009703954472206533
0.009641345664858818
0.009580968446098268
0.009497551312670112
0.009392169760540128
0.009326855198014527
0.009349116759840398
0.009421187273692339
0.009485569898970425
0.009546874386724085
0.009643657049164176
0.009767405805177987
0.009849984727334232
0.009844510566908866
0.00979594758246094
0.009789537265896797
0.009854216650128365
0.00994937286246568
0.009981231330893934
0.009859640628565102
0.009649045784026384
0.009396226517856121
0.009228592019062488
0.009203605293296278
0.009331747875548899
0.009558683391660452
0.009745487510226667
0.009791086320765316
0.009750586866866797
0.009724298249930144
0.009723549021873622
0.009745056084357202
0.009840613182168454
0.010042171117383987
0.01027980437502265
0.010404996564611793
0.010351668044459075
0.010242143461946398
0.010184134980663657
0.010153664774261415
0.010074698787648231
0.00997115290723741
0.009900722126476467
0.00983804845251143
0.009742612580303102
0.009671415844932198
0.00968143519712612
0.009719233501236886
0.009730872120708228
0.009754091573413462
0.009825037647970021
0.009909223159775138
0.009964510877616704
0.009994343905709684
0.010021240147762001
0.010047719865106046
0.010055427267216146
0.010032960949465632
0.009988452927209436
0.009947748300619423
0.009943265416659415
0.0099777810764499
0.010009383393917232
0.009986623374279588
0.009912675395607948
0.009851354067213833
0.009837608747184277
0.009847781572025269
0.009866092610172928
0.009905410155188293
0.009962073722854257
0.00998849023366347
0.009937998284585773
0.00982909086626023
0.009730454606469721
0.00970046606613323
0.00976130789378658
0.009878930652048439
0.009963908446952701
0.009965037577785552
0.009925004409160465
0.009895061126444489
0.009879548980388791
0.00987276538508013
0.009874050391372293
0.009872113808523864
0.009859056137502193
0.009867064682766795
0.009935348937287926
0.010015698445495219
0.010008118157275021
0.009914087995421142
0.009828992364928126
0.009788219020701944
0.009745196781586855
0.0096805684058927
0.009631562512367964
0.00960962954442948
0.009574318109080195
0.00961397982435301
0.00965898942667991
0.009613101398572325
0.009671979653649031
0.00989692695904523
0.01021607622737065
0.010452034664340318
0.010519892326556146
0.010484003168530763
0.010428490771446378
0.010380121958442033
0.01031877814559266
0.010223154742270708
0.010126704659778624
0.010085107532795519
0.010090077454224229
0.010099552914034575
0.010103897424414754
0.010089805305469782
0.010058916178531946
0.010072843318339438
0.010118133604992181
0.010225750093813985
0.010325476170983165
0.010363159626722336
0.010297914876136929
0.01014134195400402
0.009980365631636233
0.009917786470614373
0.009966918195132166
0.010052015113178641
0.010120870294049383
0.01017329333582893
0.010171450292691588
0.010033768485300243
0.009797221997287124
0.009652434941381216
0.009700097085442394
0.00983331348747015
0.009951120733749121
0.01002356510143727
0.010079767205752432
0.010151314486283808
0.010236726810690015
0.010307174869813024
0.01034520675893873
0.01034276770427823
0.010311126289889217
0.01029298756737262
0.010290541977155954
0.010254416887182743
0.010174666198436171
0.010081079751253129
0.009999540178105235
0.009954977070447058
0.009944786604028194
0.009945271778851747
0.009964773601386695
0.010013249211478979
0.010064590545371175
0.010095400717109442
0.010110182606149464
0.010134562426246703
0.010190770004410297
0.010265368295367807
0.010318531445227564
0.01033135925186798
0.010327885951846838
0.010328242366667836
0.01031413208693266
0.010256271592807025
0.010139869335107505
0.010022651499602943
0.010027019900735467
0.010145916065666824
0.010218035667203368
0.010182821140624583
0.010129384975880385
0.01011135621694848
0.010118372722063214
0.010152802201919258
0.01021252564387396
0.010270968547556549
0.01030399584211409
0.010307812395039946
0.010310145961120724
0.010336991022340954
0.010352839494589716
0.010285405651666224
0.010140926174353809
0.010046010152436793
0.010097141531296074
0.010222170031629502
0.010286751119419933
0.010275785110425205
0.010270915934816003
0.010289271946530789
0.010260118213482201
0.010183423841372132
0.010176522526890039
0.010194208777975292
0.010266053245868535
0.010445559148211032
0.010533473119139672
0.010471909567713737
0.010322669248562306
0.010214560548774898
0.010173196650575846
0.010155899364035577
0.010165942749008536
0.010211754229385406
0.010259701004251838
0.010267288654576988
0.010219031821470707
0.010149816754274071
0.010100358410272747
0.010074645273853093
0.010043636399786919
0.010016686785966157
0.010017032872419805
0.010022639266680925
0.009997881657909602
0.009949008456896991
0.009904439551755786
0.009874633285216988
0.009869067824911325
0.0099053287319839
0.009957495245616883
0.009959421001840383
0.009904776327311992
0.009864392345771194
0.009861949512269349
0.009837142704054714
0.00979498634347692
0.009842795645818114
0.009982599290087818
0.010065878387540578
0.010031897658482194
0.009966901182197034
0.009930322004947811
0.00992726779775694
0.009980046274140477
0.010076496005058288
0.010139650974888354
0.01013248845934868
0.010096268018241972
0.010060985269956291
0.010013997447676956
0.009947628574445843
0.009875874489080162
0.009816003658343106
0.009769950984045863
0.009728817336726934
0.009694738329853863
0.009685627250000835
0.009722756845876574
0.009802193341311067
0.009880796754732728
0.009920219958294183
0.009922734659630806
0.009915112680755556
0.009917636911850422
0.009910602211020888
0.009861556387040765
0.009802583549171686
0.009799151823390275
0.009854107834398747
0.009916543343570084
0.009953524966258556
0.009970954258460552
0.009989556777290999
0.010031019533053041
0.010083882377948612
0.010097057349048555
0.010084027308039367
0.010112719184253365
0.010153983966447414
0.010134054720401764
0.010085240886546672
0.010059695849195123
0.010009181392379106
0.00990009589586407
0.009776432227808982
0.009718031582888215
0.009791519548743964
0.010005371070001275
0.010208888857159764
0.010258357466664165
0.010245780071709305
0.010304260465782136
0.010346564990468323
0.01025732583599165
0.010143677105661482
0.010171282670926303
0.010321193055715413
0.010463165179826319
0.010528001321945339
0.01053335355129093
0.010529967297334224
0.010534424637444317
0.01050899971742183
0.01041773298755288
0.010279092413838953
0.010150827167090029
0.010075565034057946
0.01006826683646068
0.010115030768793077
0.010166109050624072
0.010198895684443415
0.01023900369182229
0.010266432261560113
0.010220010415650904
0.010130095907952637
0.010116083258762955
0.010221283251885325
0.010356644941493869
0.010413650767877697
0.010434067351743579
0.010523138588760049
0.010664776291232556
0.010769350749906153
0.010807658557314425
0.01078357707709074
0.010706559296231717
0.010619047502987087
0.010549441988114267
0.010495191421359778
0.010478870521765202
0.01051565053872764
0.010556068709120155
0.0105532692768611
0.010525402668863535
0.010508876803796738
0.010503043590579181
0.010478343316353857
0.010438227432314307
0.010432543728966267
0.010472637687344103
0.010498934942297637
0.010458122070413084
0.010351693939883262
0.010226661262568087
0.010083470549434424
0.010014877098146826
0.01003805844578892
0.010077243845444173
0.010087027372792363
0.010107502629980445
0.010170221161097288
0.010258947047404945
0.01035126624861732
0.010433377041481435
0.010505154288839549
0.010582157096359878
0.01064882549457252
0.010651331429835409
0.010576527183875441
0.010470566083677113
0.01038399855606258
0.010351874006446452
0.010381912400480359
0.010439494149759412
0.010479447776451706
0.010482170826289803
0.010453810174949467
0.010409269663505256
0.01033979411702603
0.010220788670703768
0.010089610419236124
0.010051930614281446
0.010162018141709268
0.010337328873574733
0.010430837876629084
0.010387608131859452
0.01028083409415558
0.010208688143175096
0.010215080822817982
0.01026219607098028
0.010281002367846667
0.010295132594183087
0.010390854512806982
0.010544298649765551
0.010666121689137071
0.010702460922766477
0.010624693231657148
0.010407532087992877
0.010155657732393592
0.010034496786538512
0.010033234506845474
0.010022597219794989
0.009998496428597719
0.010036199300084264
0.010103494024369865
0.010110583605710417
0.010043759972322732
0.009966636055614798
0.009960912629030644
0.010047256790567189
0.010149534763768316
0.010200070990249515
0.010234575008507819
0.01029694750206545
0.010339108328334987
0.010313865882344543
0.01024312079884112
0.010141701707616448
0.010025274890940636
0.009957494689151644
0.009964771911036223
0.01000107663916424
0.010031808274798095
0.010052824092563242
0.010059697108808906
0.01004817130509764
0.010014856175985187
0.009986825252417475
0.010023541287519038
0.010104474774561823
0.010123218689113856
0.01004734800197184
0.009941473598591983
0.009869053822476416
0.00986043059034273
0.009894134856294841
0.009902172146830708
0.009861330678686499
0.009820978802163155
0.009793918873183429
0.009738699735607951
0.009672278149519115
0.009648706985171885
0.009655310257803649
0.009669012806843966
0.009724244573153556
0.009814544902183116
0.009865282068494708
0.009874912831000983
0.009909819245804101
0.00995606201235205
0.009970060142222792
0.00999568497063592
0.010042100832797586
0.01007731590885669
0.010018413183279335
0.009931437848135828
0.00993496046634391
0.01004912021337077
0.010182645730674266
0.010254974637646228
0.010252652964554727
0.010197060646023602
0.010131511171348393
0.010077505421359092
0.00999752346193418
0.009880981070455163
0.009798898058943451
0.009803883996792138
0.009854069447610527
0.009876478286460042
0.009853021854069085
0.009819644002709538
0.009815868802834303
0.009863266206812113
0.009961192815098911
0.01007092570886016
0.010143520296551287
0.01018437671707943
0.010233908740337938
0.01027858299901709
0.010236500271130353
0.010052765617147089
0.009812784956302494
0.009696677692700178
0.009759197707753629
0.009887116218451411
0.00999708914430812
0.010079619463067502
0.010116861464921386
0.010112469156738371
0.010091788051649928
0.010043695017229766
0.009964294850360602
0.009910904329735785
0.009921794317197054
0.009939471126999706
0.009911710782907902
0.009891213327646255
0.009934618906117975
0.010008172069210558
0.010055903212632984
0.010065886594820767
0.010047562937252223
0.009995178345125168
0.009916275453288109
0.009875429056119173
0.009908338985405862
0.009936094849836081
0.00989145043771714
0.009837387774605305
0.00984183985274285
0.009851897929329424
0.009814847344532609
0.00978830597596243
0.009814803190529346
0.009842312226537616
0.009820658969692886
0.009777322586160153
0.009792340830899774
0.009869478121399879
0.009892510240897536
0.009827978685498237
0.009824161876458674
0.009958163490518928
0.010072476719506085
0.010039531486108899
0.009976510517299175
0.00999681869521737
0.009997984359506518
0.009889532623346894
0.009804944680072368
0.009803015443030744
0.00987909537507221
0.009933217517100275
0.009954868194181472
0.01001078714383766
0.010097982108127325
0.010134691565763205
0.010126644338015467
0.010173872306477278
0.010289325502235443
0.01039275478804484
0.010447849410120398
0.01044700084021315
0.010348964827135205
0.010165874077938498
0.010011985281016678
0.009955162620171905
0.009943222377914935
0.009937540965620429
0.009956181151792406
0.009990483226720243
0.010019919674377889
0.010057315588928759
0.01012230011401698
0.010201048890594392
0.010238952047657221
0.010212884629145264
0.010170791000127792
0.010142944161780179
0.010119645239319653
0.010099876415915787
0.010072944823186845
0.010048751111607999
0.010077608111314475
0.010148108717985452
0.010176148400641977
0.010128736649639904
0.010067366932053118
0.010076395687647163
0.010186630061361938
0.010326042850501836
0.01036280905129388
0.010262136831879615
0.010126082717906684
0.01004073488060385
0.009997615206521005
0.009978395123034715
0.010004608109593392
0.010086396262049675
0.010192274684086441
0.010276615878101438
0.010305338255129755
0.010265465583652258
0.010182223105803133
0.010094359940849245
0.009991794610396027
0.00987451225053519
0.009814760552253575
0.00982156552374363
0.009802785306237637
0.009747220580466091
0.00973282114136964
0.009760315001476555
0.009784226494375617
0.009837134564295412
0.009954161487985402
0.010058984516654164
0.010050756875425577
0.009947913943324237
0.009865652292501182
0.009876946732401849
0.009943998488597571
0.009999097369145601
0.010042064723093063
0.010109473033808172
0.010193600882776082
0.010243774517439306
0.010237442355137318
0.01019952835747972
0.010160105274990202
0.010152882495895028
0.010206314818933606
0.0102863317145966
0.01032099107047543
0.010305260601453483
0.010316454861313105
0.01039310141466558
0.010450123455375432
0.010402659932151437
0.010309852925129235
0.010263520230073481
0.01023025335278362
0.010155849263537676
0.010112740844488145
0.01015886855078861
0.010177541491575539
0.010071931097190828
0.00995836898451671
0.00997433647280559
0.010052877925336361
0.010144102312624454
0.0101651324541308
0.010141457312274725
0.010146427238360047
0.010194983596447856
0.0102256755460985
0.01022527614608407
0.01023541582748294
0.010249962755478919
0.010214114785194397
0.01010837683454156
0.009999614232219756
0.009971578277181835
0.010016011020634324
0.010060723409987987
0.010064703894313425
0.010032012849114836
0.009981568725779653
0.009941333630122244
0.009932585542555898
0.009942636301275343
0.009972356776706874
0.01005552225280553
0.010141852758824826
0.010116710688453167
0.009990562009625137
0.009869733091909439
0.00979127229657024
0.00974256643326953
0.009726716871373355
0.009748363257385791
0.00980478984536603
0.009872403342742473
0.009926931934896856
0.009990297202020883
0.010095690083689988
0.010226571529638023
0.010322098764590918
0.010319235753268003
0.010196889718063176
0.010031440479215234
0.009958238382823765
0.009999327878467738
0.010044266686309129
0.010035131324548275
0.010021515854168684
0.010048550132196396
0.010106582271400839
0.010169333722442388
0.010208568032830954
0.010196064440533519
0.01013921945123002
0.010081861559301615
0.010045098366681486
0.010015193726867438
0.009996721297502517
0.010000991001725197
0.010009978075977415
0.01001907497877255
0.010041314472910018
0.010060814644675701
0.010062156859785319
0.010057167375925928
0.010056280945427716
0.010075126627925783
0.010112767156679183
0.010130685465410351
0.01013724088901654
0.010188049590215086
0.010257197576574981
0.01024750930722803
0.010155861279927195
0.010080613396130502
0.010045531569048763
0.00998283022083342
0.009882209333591163
0.009815104173030704
0.009822677841875703
0.009867433020845055
0.009903049715794622
0.009922092775814234
0.009926904290914536
0.009924013398122043
0.009937147940509022
0.009970835000276566
0.00998128302861005
0.009925965443253517
0.009837258451152592
0.009795616406481713
0.009830582882277667
0.00990615834016353
0.009964186321012676
0.009947144051548094
0.00985793671803549
0.009782519415020943
0.009760774730239064
0.00980789101216942
0.009892498324625194
0.010003505733329802
0.010083080902695656
0.010077745304442942
0.010059176469221711
0.010107882795855403
0.010154707173351199
0.010119811242911964
0.010055675006005913
0.010029896434862167
0.010030665467493236
0.010021734333131463
0.009998756430577486
0.009985373211093248
0.009984700533095747
0.009967276006937026
0.009923831408377737
0.009897577580995858
0.009925334346480668
0.009972204281948506
0.010004324459005147
0.010042928864713759
0.010084070365410298
0.010091821390669792
0.010039087908808142
0.009911743628326803
0.009769778496120126
0.009731679633259773
0.009828915682155638
0.009978212530259043
0.010111782404128461
0.010227415491826833
0.010307714326772839
0.010315171075053513
0.010267953535076231
0.010209320667199791
0.010136019024066627
0.010040028833318502
0.009947402649559081
0.009872005269862712
0.00981580623658374
0.009806885966099799
0.009862236853223294
0.009929074607789516
0.009930710196495057
0.009874838141258805
0.009841088636312634
0.009861413126345723
0.009884438083972782
0.009855041995178908
0.009785064819734544
0.009726078195963056
0.00970326520036906
0.00970775014255196
0.009721577239688486
0.009738490949384868
0.009769950632471592
0.009815438422374428
0.009849674582947046
0.009851616034284234
0.0098253496713005
0.009813512605614961
0.009878183021210135
0.010015416326932609
0.010122577925212681
0.010120231020264327
0.010043173904996365
0.009949461582582444
0.009858019798994064
0.009792221519164741
0.009766578790731728
0.009757587255444377
0.00974610949633643
0.00975185007089749
0.009789227985311299
0.009833085499703884
0.009863421393092722
0.00988434293307364
0.009891166489105672
0.009875561739318073
0.009867179689463228
0.009904919804539532
0.009940618979744614
0.00989330961368978
0.009799601745326071
0.009750536363571882
0.009753756651189178
0.00978106033988297
0.009835662022233009
0.009907448692247271
0.00995820895768702
0.00997345281066373
0.009958555763587356
0.009900724235922097
0.009820382494945079
0.009817825951613486
0.009939733652863651
0.010065561824012548
0.010091484701260924
0.010022485728841275
0.009968047519214452
0.009955960719380527
0.0099785808310844
0.010027549490332603
0.010052815168164671
0.010029037918429821
0.009992917405907065
0.009975835832301527
0.009976903556380421
0.009975102683529257
0.009949488493148237
0.009914168666582554
0.009916566116735338
0.009986530696041883
0.01008731518406421
0.010152076897211372
0.010174545233603567
0.010187768957111985
0.010201495753135533
0.010226486821193249
0.010256044298876077
0.010247376640327275
0.0102107281726785
0.01020868582651019
0.01025578775908798
0.010315746814012528
0.010348932975903153
0.010344297201372683
0.010333633329719306
0.010331102795898914
0.010285283774137496
0.010164100788533687
0.010042314913589508
0.010014803009107709
0.010064371125772596
0.010104897457640618
0.010103527903556824
0.010086554817389697
0.01007538432488218
0.01006693611619994
0.010056178036611527
0.010048947588074952
0.01004510371480137
0.010039477504324167
0.010045348377898335
0.010066816948819906
0.010077910723630339
0.010078619292471558
0.0101030458859168
0.010143748100381345
0.010135776561219246
0.01004581140121445
0.009939119445625692
0.009908017911948263
0.009965626667253672
0.010052057069260626
0.01010325669310987
0.01010487092891708
0.010098107641097158
0.010115841515362262
0.010125570436939598
0.010078922412358225
0.009993718850892038
0.00992560752434656
0.009901545958127827
0.009921163527760655
0.009959238898009062
0.009965088029857724
0.009924521408975125
0.009897911988664418
0.009930398010183125
0.009978555277921259
0.00999490404035896
0.00999901836970821
0.010016245031729341
0.010040951296687126
0.010076119941659271
0.010113516931887716
0.010113740200176835
0.01008791457861662
0.010076257074251771
0.010055122452322394
0.010032305240165441
0.010076859812252224
0.010145095542538911
0.01012373972684145
0.01002004937035963
0.009899802354630083
0.009785400701221079
0.009700805104803294
0.00966087436536327
0.009658712188247591
0.009716382091864944
0.009839935367926956
0.00995057423831895
0.009957188707776368
0.009883997775614262
0.009848852369468659
0.009892751367297024
0.009921838822774589
0.009861589795909821
0.009758982069324702
0.009678001846186817
0.009611542078200728
0.009527212677057832
0.009447837166953832
0.009406130500137807
0.009443662504199892
0.009506583926267922
0.009567216853611171
0.009674440142698587
0.009831080685835332
0.009929512105882167
0.009893516849260778
0.009794488071929664
0.009739610205870122
0.009739887353498488
0.009756666482426226
0.009766117732506246
0.009744342952035367
0.009692113425116985
0.00965420094318688
0.009650492183864117
0.00964934914605692
0.009630338388960808
0.00961100887041539
0.009613953954540193
0.009619276637677103
0.009561245199292898
0.009417446746956557
0.009262918038293719
0.009194624728988856
0.009228245161939413
0.00928053333191201
0.009271100512705743
0.009221069577615709
0.009209266812540591
0.009262844109907747
0.009336641230620444
0.009401549198664726
0.009481071268673986
0.009571403518784792
0.009637495619244874
0.009681675352621823
0.009707583896815777
0.00969315767288208
0.009648488939274103
0.009608171202708037
0.00959228667197749
0.009618845097720622
0.009691778875421733
0.009775829664431513
0.00984555261908099
0.009931717640720308
0.010038706150371581
0.010083578573539854
0.010027143189217895
0.00995470765279606
0.009935522435698658
0.009937070419546216
0.009922409926075489
0.009901076424866914
0.009866165169514716
0.009788572569377721
0.009692620693240315
0.009654610075522214
0.009709999184124171
0.00982042137067765
0.009918427006341516
0.009964794921688735
0.009976007991936058
0.009968354154843838
0.009914378584362567
0.009811178790405392
0.00971763948444277
0.009688805635087193
0.009707435325253755
0.009736750887241215
0.009774109243880957
0.00980468170484528
0.009794488851912319
0.009758687827270478
0.00973211280303076
0.009700971364509314
0.009664915814064444
0.009681005317252129
0.009784633796662091
0.009954298401717097
0.010124494119081647
0.010210302032064647
0.010191636744420975
0.010120713855139912
0.010029342717025429
0.009923794073984027
0.009835610433947295
0.009790114730130882
0.00976038065738976
0.009708691544365138
0.009649503261316568
0.009620805874001236
0.00961665240349248
0.00960430160863325
0.009585467183496803
0.009612627041060478
0.009753874342422933
0.009976141070947051
0.010144479698501527
0.010116969880182297
0.009978210842236877
0.00985744176665321
0.009732104865834116
0.009574072535615414
0.009481299938634037
0.009500193456187845
0.00954140990274027
0.009542729472741485
0.00952528336783871
0.009512419893871993
0.009515485207084567
0.009557293409015984
0.009652897990308702
0.009790498884394766
0.009930129831191152
0.010020326487720013
0.010036302616354078
0.01000559477135539
0.009985802459996194
0.00999603925505653
0.010004251718055458
0.010005368031561374
0.01003514985088259
0.010074854027479888
0.010054504286963493
0.00999128133058548
0.009990956387482583
0.010081444054376333
0.010166132990270853
0.010172132153529674
0.010141118250321596
0.010127158421091735
0.010121860452927648
0.010120530994608998
0.010129628796130418
0.010117918772157281
0.010076019116677343
0.010053597020450979
0.010067462623119354
0.01007830502698198
0.01006685608997941
0.010033384365960955
0.00997712270822376
0.009927169946022331
0.009896552416030317
0.009830127896275371
0.00970412390306592
0.00960906762862578
0.009640003035310657
0.009749982876237483
0.009803503644652664
0.009783598422072827
0.009814187320880591
0.009934750881511719
0.010049140434712172
0.01013426308054477
0.010258617473300546
0.010376788240391762
0.010353215921204537
0.010197179913520813
0.010056513277813792
0.009992121851537377
0.00995428384281695
0.009941008822061122
0.009992680421564728
0.010076014036312699
0.010117768833879381
0.010096372296102345
0.01004429868189618
0.009977183197624981
0.009898667512461544
0.009858493129722774
0.009891528391744942
0.00992985229473561
0.009909663158468902
0.009879330866970121
0.009879809885751456
0.009849863795097917
0.009738852318841964
0.009583091232925653
0.009443736639805139
0.009362571558449417
0.009359590027015656
0.009436855814419687
0.009586075320839882
0.009773229947313666
0.009939705594442785
0.010041385407093912
0.010073994630947708
0.01007397926878184
0.010093403123319149
0.010153201203793287
0.010212969593703746
0.010212123703677207
0.010159650018904358
0.010102624292485415
0.010013890780974179
0.00985365682747215
0.00970109990099445
0.009670466082170606
0.009742944398894907
0.009812145757023246
0.009841440613381564
0.009873331408016384
0.009936326933093369
0.01000404948135838
0.01003777809208259
0.01005195477977395
0.010091477832756936
0.010145209368783981
0.010153591164853424
0.010098980851471423
0.009999861186370253
0.009849656377919019
0.009677618381101639
0.009593684102874249
0.009670602392870932
0.0098332129442133
0.00992652058135718
0.00990192900178954
0.009854782174807042
0.00985605280380696
0.009878912458661944
0.009906247914768756
0.009963781835976989
0.010033610903192311
0.010055507447104902
0.010016879907343536
0.009964409992098808
0.009931251532398164
0.00990387168014422
0.009856320158578456
0.009775527901947498
0.009662744267843663
0.009558220659382641
0.009544200799427926
0.009649994957726449
0.00979021750157699
0.009871418075636029
0.009898656404111535
0.009926744801923633
0.009975928589701652
0.010030837215017527
0.010063555997330696
0.010043419932480901
0.009976931549608707
0.009918822203762829
0.009898638972081243
0.009881992645096033
0.009857274848036468
0.009877752161119134
0.009933008486405015
0.009941861717961728
0.009940001263748855
0.010009371463675053
0.010049776965752244
0.009931334648281337
0.0097646364569664
0.009745254144072533
0.009858993005473167
0.009963560348842293
0.010012050538789482
0.010025844136253
0.010015588835813105
0.01000795315951109
0.010022114156745374
0.01004134736256674
0.01005782195366919
0.010076165054924787
0.010091920774430036
0.010104866097681225
0.010098919663578272
0.010051934630610049
0.01000082777114585
0.009997031746897846
0.010033221652265637
0.01009923566132784
0.010199766340665519
0.010297492179088295
0.010377267531584949
0.010495698102749884
0.010636224234476686
0.010671346674207598
0.01056446869391948
0.010393674185033888
0.010227607802953571
0.010084165853913873
0.010012350289616733
0.010027548568323254
0.01005197431659326
0.010026591499336063
0.009987660725601017
0.009997254880145192
0.010054384269751608
0.010093400971964001
0.010081928563304246
0.010062300297431648
0.010071977549232542
0.010098011733498424
0.010106172505766153
0.010084023559466004
0.010061336527578534
0.010063115113880486
0.01006004323484376
0.010025964435189962
0.010008940610568971
0.010059389602392912
0.010140419295057655
0.010190279162488878
0.010210048332810402
0.010231980665121227
0.010253714045975358
0.01026711362414062
0.010303352514747531
0.010367710448335857
0.0103863414702937
0.01029649406671524
0.010151891675777734
0.010070571145042777
0.010085841447580606
0.010122067730408161
0.010122709337156265
0.010114349469076842
0.01012531578540802
0.01012996033532545
0.010106080882251263
0.010079431645572186
0.01009946417529136
0.010199496485292912
0.010341102634556591
0.010423877073917539
0.01041163895279169
0.010375404208898544
0.010376291158609092
0.010378077684435993
0.010304257185198366
0.010162479972932488
0.0100572056369856
0.010046698483638466
0.010054986991453916
0.009987792503088712
0.009869607293512671
0.009782699232455344
0.009759836217854171
0.009805855038575829
0.009896980503108353
0.009965213681571185
0.009995480186771601
0.010034779978450387
0.010067768495064229
0.010043476859573275
0.009995546333957463
0.009968821816146374
0.009921763446182013
0.009854264974128455
0.009856072820257395
0.00992668361403048
0.009952824572101235
0.00989923248300329
0.009863526604603975
0.009907087858300656
0.009946863721124828
0.009889638430904598
0.0098111235559918
0.009707376572769134
0.009649646182078869
0.00962045620661229
0.009607964295428246
0.009664897327311336
0.009801470302045345
0.009907277673482895
0.00991115446202457
0.009885138566605747
0.009894420672208071
0.009892568322829903
0.009819280803203583
0.009689662619493902
0.009573896103538572
0.009546581488102675
0.009595637586899101
0.009624506577383727
0.009584180775564164
0.009546863902360201
0.009593815407715738
0.009724768735468388
0.009869190563913435
0.00997312342049554
0.010006780356634408
0.009995137290097773
0.009995452775619924
0.010009638392366469
0.009996629420202225
0.009971854051109404
0.009994558757171035
0.010055575650185347
0.01009217239683494
0.010106599333230406
0.010137834169436246
0.010167820665519684
0.010181430464144796
0.010211553771514446
0.010258262588176876
0.010276531763374806
0.010240398480091244
0.010154329384677111
0.010036708652041853
0.00992417694767937
0.009850348317995668
0.009810679715592414
0.009793940954841674
0.009806582925375552
0.009830844749230891
0.009831622270867228
0.009810705096460879
0.009808697099797427
0.0098509018169716
0.00989671923685819
0.009892597121652216
0.009864307655952871
0.009864421726670116
0.009891403368674218
0.009927766451146453
0.009967278582043946
0.010003461276646704
0.010035615174565464
0.01004633269738406
0.00999636938329786
0.00987677552504465
0.009722288937773556
0.009599585563410073
0.009607854513451457
0.00977545183384791
0.009962199528235943
0.01001485506305471
0.009969414949882776
0.009958903389051556
0.01000533863902092
0.010039063000585885
0.010043317531235517
0.010056750082876533
0.010083821790758521
0.010093921036459506
0.010080568708945066
0.01006228477228433
0.010047589184250683
0.010043168428819627
0.010062804198823869
0.01009533238830045
0.010114382382016628
0.010118073718622327
0.010116259788628668
0.010115974782966077
0.010129422794561834
0.0101369594829157
0.010075523373670877
0.009951542292255908
0.009881973799783736
0.009931293888948858
0.010014423171523958
0.010009713754989207
0.009899701005779207
0.009799610001500696
0.009839118332602084
0.009965635302942246
0.010178120823111385
0.010415212637744843
0.010657282446045429
0.01079188043018803
0.010714722941629588
0.010514978331048041
0.010398170242551715
0.010419908477924764
0.010458481330424547
0.010462830399628729
0.01052326950011775
0.010651872269809246
0.010732223601080478
0.010726154565345496
0.010673623869661242
0.010557609563693404
0.010374201412778348
0.010261717343237251
0.010333353350870312
0.010458989923354239
0.010435797832906246
0.01026821404695511
0.010114836662542075
0.010068098383489996
0.010092332067433745
0.010128994977567345
0.010176681936718524
0.010243797262664884
0.010283010674174874
0.0102526437304914
0.01020999467233196
0.010230907232034951
0.010277749099768698
0.010278469189070166
0.010261215036734939
0.010276148619595915
0.010299132131040096
0.010304691821802407
0.010312384937424212
0.010341745151672513
0.010391735739540308
0.010458101376425475
0.010533007346093654
0.010574093980249017
0.010534114963375031
0.010424172843340785
0.010305528889875858
0.010248133498243987
0.010274900833610445
0.01032018565107137
0.010287671266123653
0.010157725531607866
0.010021216792520136
0.009989164124708622
0.01006153958151117
0.010145323658362031
0.010188332924153656
0.010201035221107303
0.010200550532899796
0.010204921804834156
0.010224190957378596
0.010240684575401247
0.01024381619412452
0.01025506132747978
0.010279062534682453
0.010288665648549794
0.010250081352423876
0.010138671807944775
0.010010624567512423
0.009979897760786116
0.010047086381819099
0.010101961649488657
0.01009909259621054
0.010083208798896522
0.010082545385230332
0.010096079311333597
0.01012893178500235
0.010155583242885768
0.01013794933911413
0.010099505654070527
0.01007410852704197
0.010043574061710388
0.010002505017910153
0.009978437516838311
0.009965545265004039
0.009942922506015748
0.009927994187455625
0.00993662984110415
0.009950475953519344
0.009957776928786188
0.009975996930152178
0.010010653000790626
0.01001173947704956
0.009931739254388958
0.009819655558094382
0.009770902418531478
0.009809427098371088
0.009870570609346032
0.009871061043813825
0.009786587730050087
0.00963801149977371
0.009435341346543282
0.00923366941511631
0.009157125155907124
0.009241062363144011
0.009359686644747853
0.009398664741311222
0.009388497564941645
0.009405740352813155
0.009426729511469603
0.009376748208887875
0.009301600668113679
0.009327066254336387
0.009443893898278474
0.009539598114788533
0.009605644387193024
0.009701359693426639
0.009774635040666908
0.009723130452912301
0.009595271307043731
0.009544082689099015
0.009623462290037424
0.009756461323704571
0.009841838118154556
0.009842971495818347
0.00981256880098954
0.009819136227015406
0.009846059835981578
0.009826708491891623
0.009759408500976861
0.009688265370205045
0.009621997091453522
0.009574248292483389
0.009603641361463815
0.00971895452355966
0.00982168865390122
0.009818267887458204
0.009723998014815152
0.009621439320035279
0.009572410734836011
0.00957683633081615
0.009587223248090596
0.009578655539080501
0.009596906132064759
0.00967451073229313
0.00974530294071883
0.009730452091898769
0.009638684568926692
0.009536714956630022
0.00949770980514586
0.00956759526161477
0.009721245060209185
0.009871060845907777
0.009934055299963803
0.009899861083831639
0.009839511278551072
0.009823965155519546
0.009853899634908885
0.00986764880362898
0.00980614302214235
0.00970968086272478
0.009691641838289798
0.009771199168171733
0.009856338906101882
0.009897482502274214
0.009908048631623388
0.009888561735861003
0.0098570790537633
0.009852174497209489
0.009860056636389345
0.009843218736350537
0.009806100889109074
0.009771884405054151
0.00973747459705919
0.00968195598339662
0.009621122074313461
0.009617202926892787
0.009702184600755573
0.00981678472366184
0.009871512369718402
0.009865023661404848
0.009863265748135746
0.009879895888734608
0.009885829470586032
0.009883916811086238
0.00988268718821928
0.009868024953175337
0.009848273855168373
0.009848935503978282
0.009856831363867969
0.009845653434749692
0.009832618504296987
0.00986159831751138
0.009936890166718513
0.009991167010739446
0.009971274072304368
0.009921359368599952
0.009908768413588405
0.009951090782415122
0.010036266422830523
0.01012392501346767
0.010177532499656082
0.010211575315333904
0.01022990093799308
0.010201035453937947
0.010145624577999115
0.010134763699024916
0.01018074003746733
0.010218897650483996
0.010222853343002498
0.010240976950153708
0.010280084973201155
0.010276084286160767
0.01021163513418287
0.010139260990545153
0.010078100622631609
0.010007491437718272
0.009953706744126975
0.00996139004593715
0.009996902192942797
0.009990400513634085
0.00993332538055256
0.009861408586148172
0.009815476208459586
0.009826508348342032
0.00985442214179784
0.009806530701462179
0.009690591820981354
0.009626288472209126
0.00966909400653094
0.009770396118983626
0.009884224149864167
0.009976956327445805
0.009986732040997594
0.009887660164386034
0.00975844528991729
0.00970297026913613
0.009732308539096266
0.0097820541029796
0.00981062572915107
0.009826448317617177
0.009831482435110957
0.009804817717522382
0.009766083962749689
0.00977872616611421
0.009863160066306591
0.00997727081179619
0.01007728889817372
0.01014623544877395
0.010180503090377897
0.01017606928013265
0.010138264663983137
0.01009339074837044
0.010048623553011567
0.009968423836398869
0.009907118189148604
0.009806382034439594
0.00973470555851236
0.009705287152901292
0.009737605906557291
0.009870987182948739
0.010078572544734925
0.01023335957666859
0.010232248159591109
0.010166474075522274
0.010099105995614081
0.010078943422995508
0.010072054106276483
0.010081269824877382
0.01011134405154735
0.010142175678629428
0.010162338328082115
0.010172245756257326
0.010163162366952748
0.010146018371451647
0.010140041392296552
0.010113890666980296
0.010039484025910497
0.009970403006300331
0.0099689962528646
0.010002796354237944
0.010009104320779443
0.010007308446802199
0.010036660227924585
0.010078868453856558
0.010129442194011063
0.010209267968311906
0.010273932521231472
0.010258043515495956
0.01019614826887846
0.010171805839054287
0.010207644063048065
0.010283063764218241
0.010368661051616072
0.01043798892525956
0.010487703599501401
0.010523333973251283
0.010550563666038215
0.010550832522567362
0.010488614269997925
0.01040382313542068
0.0103630385058932
0.010331406034529209
0.01025027398718521
0.010149483256973325
0.010077820988371969
0.010012794027570635
0.009926743244286627
0.009873719275929034
0.009896277722436935
0.009929940344300121
0.009909091989975423
0.009872690893243998
0.009891998304519803
0.009972884978633374
0.010081129553727806
0.010186872186604887
0.010263580158352851
0.010312362627591937
0.010374583657830954
0.010483747385442256
0.010602087473962456
0.010649812004994602
0.010612214133143425
0.010535538489930331
0.010459934852551669
0.010424754656851292
0.010442790582310409
0.010466806907206774
0.010452907246071846
0.010404499671421945
0.010336801633238793
0.01026697899447754
0.010230042778421194
0.010242269150912761
0.010276040805038064
0.010304989768192172
0.010329350898973643
0.010345860037487
0.010329138974193484
0.010267702480778098
0.010202842990402132
0.010172571036964655
0.010137734815943987
0.01005295512266457
0.009960432511288673
0.00992574253352359
0.009940540420357137
0.009944501968566328
0.009905713051557541
0.009854386129882186
0.009842807359527797
0.009880168149247765
0.009941347953863443
0.010016519408673048
0.010029475910123438
0.010060183175373822
0.010082688750699162
0.010122889580670744
0.010161739648319781
0.010089448844082654
0.009876411648001522
0.009701153584755958
0.00972444752464071
0.009818049916066229
0.009883402541745454
0.009895965398754925
0.009900321105960756
0.009878001518081873
0.009818870679009706
0.009752070442773401
0.009716638217214494
0.009729025468695909
0.009771195552311839
0.009810108528472482
0.009831059062853455
0.009843935607932508
0.00985743231140077
0.009868882279843092
0.009878012004774063
0.009907696812879294
0.009973161835223437
0.010021126396022737
0.009984504680614919
0.009877181828487664
0.009760694694705307
0.009689148494508117
0.009711181733291597
0.009833114012144506
0.009995120668318123
0.010110020516440272
0.01011396984802559
0.01003915258217603
0.009994637914933263
0.010007771824020892
0.010001384529750794
0.009953257602173835
0.009914457509294152
0.0098939451132901
0.009864343176595868
0.009826328160706908
0.009793013292364776
0.009764613809529692
0.009750434453599155
0.009763408810831606
0.009793519817758351
0.009835216163191945
0.009889222697820515
0.009926045127213002
0.00992725376272574
0.009934125333093107
0.009994171354919671
0.010080579994246363
0.010110146689694375
0.010054710167460144
0.009976230640895666
0.009922035308554768
0.009864905113354326
0.009776664564851672
0.009665924073196948
0.009530521354172379
0.009384021197911352
0.009300418940838426
0.009335909101646394
0.009458993033040314
0.009584459085017443
0.009647509965579957
0.00966796699911356
0.009707295449916274
0.009762003624346108
0.009778869149740785
0.00974243641132489
0.009685954058077186
0.009640922325197608
0.00961839776718989
0.009628093158826232
0.009664856093004347
0.009699234678409994
0.009722862909547984
0.009761056476272643
0.009825899705756456
0.009907547070179134
0.01000374170485884
0.010112631262745708
0.01020332904299721
0.010241242626216262
0.01023970675189048
0.010232795150950552
0.010228090840391814
0.010219187028706073
0.010203144054394216
0.01017803959082812
0.01013272415380925
0.010057580017019063
0.009983292492106556
0.009960049679502845
0.009993551208171993
0.01004594707628712
0.010051261642947793
0.009959813430905342
0.009845744094345719
0.009838641856331378
0.009919233259279282
0.009964786653872579
0.009940108191221953
0.009882689686492085
0.00981238364474848
0.009748945648316293
0.009722467723768204
0.009754037286620587
0.00984083730261773
0.009926020079292356
0.009947503923904151
0.009941405979916454
0.009986554651986808
0.010063294216524809
0.010096788045484573
0.010078297785948962
0.010044210751075297
0.01001313695916906
0.009976964369416237
0.009923361493274569
0.009872258843388408
0.009860797133296729
0.00989913435652852
0.009967107505071909
0.010024718716740608
0.010040211929008365
0.01001096970634535
0.009941017143428326
0.009875256002414972
0.009883838091045618
0.00990958756301552
0.00983022537548095
0.009691315370146185
0.009626137879677117
0.009625952779315413
0.009626472340896726
0.009683087442535907
0.009854762218892574
0.010071958634071052
0.010252224800642579
0.010389364974107593
0.010470324982888997
0.010462931809015572
0.010412962713744492
0.010375762640032917
0.010356452472042293
0.01032054656650871
0.01027514363406226
0.01022876255447045
0.01015216056490317
0.010039276466704905
0.009939100262708962
0.00988961705006659
0.009873332125134766
0.00985632129944861
0.009824600769206882
0.009783975074533373
0.009764199249912054
0.009785550320520997
0.009833056479692459
0.00989938688231632
0.009966635424643756
0.009974104478023946
0.009918529954738915
0.009893537759780883
0.009937183919828386
0.009977648698259145
0.009972262911032885
0.00995687564369291
0.009973088067490608
0.010023640834260732
0.010077305971644818
0.010102387997321785
0.010088462987914682
0.010048113502562047
0.010011927392333746
0.010003709970042109
0.010020181492436678
0.010049401680007577
0.010076828519813716
0.010066794205922634
0.010000027937348933
0.009923461193684488
0.009885651874355972
0.009859325180295855
0.0098212906322442
0.00981992595596239
0.009884312150534242
0.00996152141597122
0.009994929670356215
0.010014895680360496
0.010079435657244175
0.010160886405501515
0.010192562639713288
0.010166612404864281
0.010117917782627045
0.010093069598078729
0.010135632718447595
0.010218440617900343
0.010238495201338082
0.010150940348394215
0.010034525925293565
0.00998239082051441
0.010014498105738312
0.010102361391764134
0.010203486329410226
0.01027614698978141
0.010301836733706295
0.010292468504048883
0.010274014761671424
0.010268642671871931
0.010267549804411828
0.010240134065970779
0.01019456323934719
0.010170000395737589
0.01017620088532567
0.010193773296196014
0.010197670604102314
0.010173796201124788
0.010140788881108165
0.010130764150526375
0.010140831319149583
0.010126111295539886
0.010066079541575164
0.010003168941475451
0.009956938233226537
0.009899779055267573
0.009850328441243618
0.009836028437130153
0.00983055189717561
0.009846620080061257
0.009932501153089105
0.010059426131192595
0.01016177095239982
0.010222031644079834
0.010232903840951622
0.010165960984304548
0.010021723981481045
0.009838491273112595
0.009640087916050106
0.009459620818961411
0.009388787711504847
0.009476099596358836
0.009623014535754919
0.009738692166283727
0.009829054835718125
0.009929878043476493
0.009995459660422057
0.009993640044704079
0.009977527600713075
0.00999001678545028
0.010011898633092643
0.010027217995375395
0.01004313893383369
0.01005802660714835
0.010079710255376994
0.010115859003271908
0.010125189011450857
0.010073868413455785
0.00999146322021261
0.00991078674327582
0.009863399022724479
0.009913349021226169
0.010059567221906035
0.010167543983552605
0.010124097550287843
0.00999335405882448
0.009918867198284715
0.009944777770433575
0.009998186104930938
0.009997191892471164
0.009946838389150798
0.009919350224081427
0.0099480499047786
0.009992548516020178
0.010006960111204534
0.009986904342658818
0.009948970363475383
0.009900167987216263
0.00984003528719768
0.009779773675836623
0.009732322895433753
0.009695244401227683
0.009667513922322542
0.009658632739447058
0.009675808602478355
0.009708746746182441
0.009726886511780322
0.009724813383072614
0.009731800800655038
0.009736197933088988
0.00969129535369575
0.009611118372995407
0.009567826592829079
0.009594377307221293
0.009651739904657007
0.009708794788457454
0.009776179241016507
0.0098225182085298
0.009797657104209066
0.00975159223889932
0.009770436962135136
0.00983807041309774
0.009866633703932166
0.009817780652083457
0.009749827468767762
0.009730865661986172
0.009735430341679603
0.009698439214844257
0.009629342972766608
0.009591367687098682
0.009610442582052202
0.009656062205322087
0.00969254694879055
0.009722388489171863
0.009763306661043317
0.009805964522529393
0.009827097796369344
0.009830790711566806
0.009839813699945807
0.00985523111652583
0.009876125850714743
0.009922504862770439
0.009970376470591872
0.009947395673952997
0.009859547768719494
0.009785297706257553
0.009726337939500809
0.009652682982850819
0.009614921242464334
0.009630392438266426
0.009623587615787983
0.009566032006405293
0.009504252979531884
0.009473887193016707
0.009498083556536585
0.009591191199142486
0.009706980085466057
0.009773866662289948
0.009810759583488107
0.009883858817629517
0.009955480075441302
0.009941620312165469
0.009864565250463784
0.009798094637226314
0.009743110220879316
0.009677132633514702
0.009643293730914593
0.00969307062914595
0.009803010895848275
0.009907684386707843
0.009984532268717886
0.010046551642008126
0.010089372852817177
0.010122329071164131
0.010171595858410001
0.010218284009024501
0.01022489186609164
0.010200572060421109
0.010176505211275071
0.010150421208236367
0.010092479710001498
0.009989383688662201
0.00986493591684848
0.009765978700015695
0.009736093101091683
0.009778763551730662
0.00983640073100105
0.009850989496335387
0.009851005787495523
0.009897325851488859
0.009952871832065285
0.009938416732475162
0.009872737578116358
0.009823520123027264
0.009802046513650567
0.009788077783305198
0.009782539296429605
0.009793592034839094
0.009817428893875331
0.009846679219044745
0.009866520001087337
0.009865844049490988
0.009871319115627558
0.00990546801360324
0.009915788695216178
0.00984725083457306
0.009745349942240864
0.009678641690406949
0.009630681667476892
0.0095764688285999
0.009589259589556604
0.009746293479111046
0.009964856875594705
0.010060583741869777
0.009986302533652633
0.009876638215500862
0.00982404749142006
0.009793435377068817
0.009762823018245399
0.009751005740836262
0.009748848858289421
0.00974829601822421
0.009760536856483669
0.00977088555227965
0.009746485704090447
0.009699926928151399
0.009709494879934936
0.009823215217329562
0.009963050321675836
0.010016043512150645
0.009986827762331814
0.009961668998003007
0.009964194807689637
0.009947172263637186
0.009897719868458808
0.009860414720606059
0.009869309435598552
0.009910120409913362
0.00994419163092971
0.009948285506106913
0.009922163852024823
0.009878485163208097
0.009848657762631774
0.009864266086369753
0.009911447642371058
0.00995009605307132
0.009983786719385535
0.010026904928963631
0.010038295108824969
0.010010288578923792
0.010015800020191819
0.010074815154075623
0.010129189391154796
0.010143890362232923
0.010106055890209973
0.010013501946814359
0.009919654773548246
0.0098860669368878
0.00990009997971356
0.009919078366365283
0.009933354584500193
0.009946831041015685
0.009965044821146875
0.009980834920424968
0.009967535035684705
0.009937198895495386
0.009932571509853005
0.00993372009601444
0.009887049205135555
0.009816167575772852
0.009778213747777044
0.009761931654065848
0.009728291556239128
0.009681222236249596
0.009652158480603247
0.009664030927233398
0.009738909560255707
0.0099043572624214
0.010125885957386345
0.010287561248987913
0.010311823098454624
0.010233397104311735
0.010133651760406792
0.01006495750742033
0.010034534719306976
0.010017493083141744
0.009989365234505386
0.009944169158115983
0.009872697563841938
0.009785696824546903
0.009743512484710663
0.009763622567988932
0.009784794002771378
0.009789724848233164
0.009819390599150211
0.00987403601873666
0.009924474924337118
0.00996187399374321
0.009978778287768364
0.009983920047525317
0.010020581104326994
0.010084736936260014
0.010103183591272682
0.010059768366627395
0.010031716178636997
0.01005681072594598
0.010074703679420054
0.01003759047947824
0.009998612424824386
0.0100218272395432
0.010060370378196239
0.010022040151525288
0.009910798696801067
0.00982523986371234
0.009822383008431643
0.009837070859503002
0.009791915942914784
0.009717712348792701
0.009678739556111395
0.009685433888807892
0.009739520433358849
0.009825368644669652
0.009882681125309318
0.009906501797959209
0.009956490898039192
0.010020775373559445
0.010008707302622497
0.009887518023606389
0.009739858109969645
0.00966177198337391
0.009646446809638292
0.009631868686992675
0.009615696640685201
0.009627939965575934
0.009652562346309424
0.009654018962755799
0.009633096668403595
0.00963268721010536
0.009691832633689047
0.009780564922839402
0.00982980198226869
0.00982406543334946
0.009803720065392554
0.00980045086471364
0.009806192670948803
0.009805840307381004
0.009796532879117876
0.009768796709831804
0.009735436660703272
0.009729588106274605
0.009746084953658283
0.00976482282858342
0.009796214324887842
0.00984925452619791
0.009893096834421158
0.009885740221943707
0.00984254910144955
0.009834632191341371
0.00988128275377676
0.009891944169066847
0.009803708079271018
0.009697903338819742
0.009649306971114128
0.009614516128785909
0.009573916182853281
0.009574380391277372
0.009607669219840319
0.009628794447053224
0.009643359240144492
0.009658802021294832
0.009640774249564856
0.009591399661730974
0.009571263475809246
0.009601038955152035
0.009640379121992736
0.009687565341591835
0.00975931674009189
0.009770231756847351
0.009656868914607913
0.009556403048336506
0.009615070768631995
0.009759164839051664
0.00984234067145735
0.009868533555418254
0.00991591345053166
0.009961516219191254
0.009944692824501545
0.009916582612786442
0.009974831347353757
0.01009969979757443
0.010188338269945234
0.01022695992141962
0.010277879722416401
0.01033340248512104
0.010346746772993356
0.010317811898421497
0.010236098400782793
0.010133580898400395
0.010024023219011724
0.009964464846998453
0.00997548753162846
0.010032194396480919
0.010123950962442905
0.010195190075319261
0.010197523983661085
0.010167837168555707
0.010173268450889736
0.010213866154663265
0.010227187934797257
0.010188367781229318
0.010130309043452143
0.010069623393937945
0.010023358655162155
0.01002921343082562
0.010078213002998382
0.010145499426871539
0.010246247958857566
0.010361746030393987
0.010434300864581018
0.010449670804664492
0.010412490530870854
0.010333490062039345
0.010269688463304193
0.010256668888032436
0.010266224015504121
0.010283766419161112
0.010322939346078783
0.010379372404422611
0.010445346327032893
0.010516924008261413
0.010576208306010812
0.010613447949290276
0.010629427512176335
0.010624365617986768
0.010606715534813703
0.01058068723184988
0.010540735153481364
0.010477543245069682
0.01039364726515487
0.010332508275751025
0.010331765529699624
0.010356873597484082
0.01035307561745867
0.010321945399045945
0.010301491704303771
0.01032133209751919
0.01039883165853098
0.010499974451959134
0.010518065441865475
0.01041136785177514
0.010262819118797778
0.010154363841284066
0.010145553085021675
0.010241574868559837
0.010411741242278368
0.010538264918141067
0.010508617323357611
0.010471965621691197
0.010338867993559687
0.010286998732481152
0.010321894229855388
0.010403749265242368
0.010465584697667509
0.010481041418388485
0.010466958130709827
0.010424359708558768
0.010361624900251627
0.010320963449776172
0.010334460204467178
0.010411865783389658
0.010540715134702623
0.010653002681210636
0.010675291027873755
0.010631303903646767
0.010605874035973102
0.010618210050743072
0.010617766627110541
0.010610511770937591
0.010658671443816275
0.010705540592316537
0.010616725906729699
0.010470408336259425
0.010381612537894398
0.010400462115649134
0.01040946368360892
0.010385673162527382
0.010385801626835018
0.01039678844390437
0.01036091908114031
0.01028232617303729
0.010217798044905066
0.010193308966699987
0.010185284547042102
0.010173432375304402
0.010157930902205408
0.010156625390518457
0.010225523503031582
0.010336408975999802
0.010458192047663033
0.010544267895165832
0.0105745271127671
0.01054717475315556
0.010480357941705733
0.010451946929097176
0.010483123124577104
0.010512852896936238
0.01051518232561648
0.010525911543518306
0.010563273974694311
0.0105984326871112
0.010623891612049192
0.010673819060903042
0.010741564680356532
0.010788416350260377
0.010817021958064287
0.010819318019784988
0.010758960703387856
0.010681003911886365
0.010671772614587098
0.010715205462183804
0.010740153682418168
0.01073051811894402
0.010716784563846886
0.010727397275622934
0.010751435726415366
0.010752614822704345
0.010726916699204593
0.010697864370886236
0.010663172863423824
0.010609204599168151
0.010547257245052606
0.010485233226791024
0.01042949611786753
0.010401499904692173
0.010395718526560814
0.010392144753132016
0.010401082234457135
0.01043353647692129
0.01047287872992456
0.010490263181272894
0.010473860455676913
0.010456946573685854
0.010488121954258531
0.010566535138059408
0.010651833799201996
0.010711516090668737
0.010719558922573924
0.010688688734080642
0.010691640712320805
0.010742367503698915
0.010781357020605356
0.010789885509293527
0.010731731648556888
0.010574743703473359
0.010348200034350157
0.010206251107156276
0.010264566447585822
0.010316109575796872
0.01040176350157708
0.010394108707550913
0.010375820267945528
0.01035784518579021
0.010310905831865967
0.010270260393153876
0.010281763898674398
0.01032222825801
0.010346946828067303
0.010345182891469448
0.01031072043813765
0.010240469065029173
0.010166498327162116
0.010121314425487072
0.010104618675541133
0.010121529714670032
0.010182603595312685
0.01024177927756682
0.01022937567671761
0.010135746083687992
0.010015489014331252
0.009973472449928522
0.010071588386781514
0.01018038832815364
0.010229288584087044
0.01020336760673672
0.010194751757662743
0.010225225726608188
0.010276778507977724
0.010353175208438188
0.010435594664886593
0.010475940930191427
0.01046489313710481
0.010440816779155284
0.010431807024870067
0.01042741266777739
0.010416663659270853
0.01040631376672536
0.010381157870870083
0.010321674498263746
0.010242246051784604
0.010150840806309134
0.010043721511028707
0.009940342488698661
0.009858829202130437
0.009810662977397442
0.009812920361291617
0.009857478698249907
0.00992915052222088
0.010027677272446453
0.010116249460261316
0.010126089677214622
0.01003862011479214
0.009909254857338965
0.0097970464034006
0.009718980202451348
0.00965811581350863
0.009599733643699437
0.009572454206645488
0.009622281407937408
0.00972665439825505
0.009808981935493647
0.009832580157089979
0.009835828281939029
0.009867137384135275
0.009889252260327339
0.009821042288094758
0.009683661879971623
0.009592737902421504
0.009600577731616796
0.00965108055388555
0.009682108494453133
0.009684226913377643
0.009659912372007966
0.009594057749491186
0.009498808805365116
0.009442076862324029
0.009478754180017859
0.009596890562679618
0.009747396842576563
0.009861387475393713
0.00988944060401991
0.009874583347700536
0.009893804627936334
0.009927821333985776
0.00989858217537403
0.00981089768698439
0.009735764295328408
0.009698743403423577
0.009686305322684347
0.00970067975576967
0.009751925789751113
0.009814905393868685
0.009831038520205766
0.009780070763081312
0.00971215301891789
0.009682024011854083
0.009680341486819089
0.009667812997940927
0.009656243016943336
0.009685114733874798
0.009735666578635574
0.009747082241810858
0.009712066042702645
0.009687799422536045
0.00970513978973031
0.009736971682868897
0.009761966306250543
0.00979619582882151
0.009860332130920142
0.009929860171396285
0.009941850004252047
0.009893552814610303
0.009866509966086597
0.009895783110987395
0.009906186661683023
0.009834861343260854
0.009733591345138848
0.009689192937221378
0.009718765113502741
0.009769375729374587
0.009766761153005064
0.009704361357726156
0.00966891303192824
0.009708893310744315
0.009753476791083814
0.009726650943048299
0.009670203481800855
0.009666938914451749
0.009697943900246173
0.00970032879151404
0.009692065520212054
0.009718729828018696
0.00976623159367591
0.009801891981624067
0.0098300524125807
0.009873227432835847
0.00993026653304696
0.009974913992919028
0.010000718880910427
0.010037601504009216
0.010105982816312462
0.01018282561097294
0.010231449787970632
0.010242658171337097
0.010233753679785877
0.01023173268418759
0.010233753463253378
0.010183462484274059
0.010058047042693943
0.00994490300770849
0.00994275088654831
0.010025774019304663
0.010101672089658677
0.010151023785583675
0.010192434766795487
0.010218803477473557
0.010237188916653395
0.010265678323339671
0.010263839720282704
0.010185193673241883
0.010081037366762757
0.010029468429274857
0.010009094993583857
0.009963779670652002
0.00993582044262439
0.01000733261462301
0.010149152253288775
0.010249965623952449
0.010266824963036925
0.010246648110914976
0.010228719965089112
0.010207717646844685
0.010183780232910066
0.010182404161896556
0.01020954007981345
0.010240128953009844
0.010233680566307158
0.010132581638172268
0.009932303712703287
0.009743899081368
0.009678173160646111
0.009712174069136381
0.009754210058599711
0.009781306425575167
0.009825747350696475
0.009866565882693976
0.0098521738499403
0.009801146443933248
0.009765986963175237
0.009752317871898413
0.009741903613321484
0.009744344123173505
0.009791633787099272
0.009885962270200253
0.009978471230715514
0.010023400243371726
0.010033084147144109
0.010043095925357192
0.010060560053680091
0.01007967495592311
0.010093796842265874
0.0101067697070539
0.010147042255848646
0.010209020087495446
0.010229212937410921
0.010185495966579765
0.010140546830371022
0.010127389170229435
0.010095824804157019
0.010035438607446849
0.010003110328689217
0.010001766756176948
0.009996907757595182
0.010011292460840196
0.01008028743090108
0.010166236103978009
0.010188288299832492
0.010136376586742699
0.010084885268006473
0.010072514526546
0.010069680893793702
0.010056250812485814
0.010043940825853496
0.010044350773096084
0.010059978638309985
0.010095530250109732
0.01013406230136752
0.010130414441227913
0.010076930501963944
0.01000564629677683
0.00993323763133958
0.009869631105102599
0.009815969206392765
0.009756936677731573
0.00969331008149311
0.009629910974763334
0.009571593485306949
0.009552486650645732
0.009582613883540035
0.00960690517211333
0.009598590268287807
0.009613058981485664
0.009684514536056668
0.009765831609256566
0.009807428470812738
0.00980558222392574
0.009788919042330235
0.009798249045852572
0.009834038410335779
0.009848562700208277
0.009827815894968808
0.00981125286547467
0.009802465955726803
0.009767235403414816
0.009722209589090198
0.009720005148556083
0.009772843914106488
0.009848005287349224
0.009934165328741074
0.010042682304047049
0.010125303890090436
0.010125395394861698
0.010079772884491831
0.010037651173770428
0.009978498436976225
0.009884638101793826
0.009791283067315817
0.00973425047006458
0.009716436699964106
0.009740702202543616
0.009811760396696628
0.009900470045395196
0.00997266918187961
0.010026410494465381
0.010067197512835264
0.01009666478028521
0.010144245508126915
0.010258250944316387
0.010425579119473696
0.010571146348956973
0.010650788531638682
0.010654844725504518
0.010579678476788104
0.010460704958532005
0.010363271520473063
0.010328887943178416
0.010348430681042374
0.010383605821989477
0.010422753009479493
0.010480539456475526
0.010538242631591857
0.010547951543703676
0.010489572938531637
0.010379795217886567
0.01028321976074949
0.010215264870785177
0.010187830093782395
0.010195331922732294
0.010184178864583372
0.0101138861826621
0.010005358555354178
0.009956287057138979
0.009950356418266892
0.009955047944094986
0.009991101187188179
0.010097458185628056
0.010261193993501365
0.010416385983116925
0.010536438135895878
0.010656440260354429
0.010794637808576226
0.01093431105138734
0.01105939099797979
0.011164383189752698
0.01124911658698693
0.01130912097170949
0.011360015864484012
0.01144352818839252
0.01155413752887398
0.011634165921714157
0.011658204209525139
0.011638126710895449
0.011573156986851246
0.011464749274309724
0.011355054299347103
0.011292839574161917
0.011240085787139833
0.01115192898316309
0.011163860424421728
0.011225077433045953
0.011314474381506442
0.01145460800267756
0.011602932591922582
0.011685870785731823
0.01172969130333513
0.011812380701303481
0.011928566922433674
0.012022299324162305
0.012083340280223637
0.01209602354792878
0.011991348061710596
0.011942090159282088
0.011825229786336423
0.011947051915340125
0.012041359725408256
0.012034768764860928
0.0121902287309058
0.012329635571222752
0.012392186289653183
0.012424257241655141
0.012419659190345555
0.012348694594111293
0.012338734990917146
0.012308212437201291
0.01242443387163803
0.01260649475036189
0.01271188180660829
0.012618151982314885
0.01254152634413913
0.012638539185281843
0.01286534694256261
0.013171178528573364
0.013481826174538582
0.01375785845099017
0.014026294378563762
0.01430747022619471
0.014582283950876445
0.014824948278255761
0.015009600911289453
0.015116316326893866
0.015157553276512772
0.015186529019847511
0.015261194210033864
0.015383488244842737
0.015476421427447349
0.015460949740372598
0.015352661930955946
0.015231708732899278
0.015142828009556979
0.015063907846342772
0.01495835259091109
0.014844076849985868
0.014898642299231142
0.01497399207437411
0.015005049756728112
0.015117868203669787
0.015158222278114409
0.015079737633932382
0.014985205770935863
0.014946993719786406
0.014939774486701935
0.014937918754294515
0.014975317497737705
0.015101765021681786
0.01527188055915758
0.01541042946279049
0.015444291927851737
0.015401279262732714
0.015404792125336826
0.01553635337157175
0.015791091278661042
0.01606196742504835
0.016290220839437097
0.016423604658339173
0.01643022068310529
0.016290936872828753
0.016081838484387843
0.015821675616316498
0.015639322579372675
0.015517065818421542
0.015393969488795846
0.015276544492226094
0.015175595602486283
0.01507426927331835
0.014997503305785358
0.014983505895361304
0.014953330717980861
0.014832182484678925
0.014810471897944807
0.014787102055270224
0.0148427654360421
0.014967646503355353
0.014963655814062804
0.01523356841178611
0.015576233095489443
0.015801335780415683
0.01595409558387473
0.016115112418774516
0.016131996547337622
0.01602583360625431
0.015955018699169158
0.01584612059639767
0.015651542381383478
0.015679481450933962
0.015830225350800902
0.015989632296841593
0.01615456661442295
0.016289799511432647
0.016370738237164915
0.01651314462069422
0.0167792934528552
0.01681041350122541
0.016887073148973288
0.016875772997736932
0.016787221296690403
0.016816244618967177
0.01674092808039859
0.01659094986738637
0.0165161246759817
0.016722326586022972
0.017052625571377576
0.017372134048491715
0.01763546292670071
0.017971165888011457
0.017975387847982346
0.01778948607854545
0.017755991583690046
0.017840086426585914
0.01779143315507099
0.01755102167837322
0.017334654834121464
0.01726061658235267
0.0172988420445472
0.017315785051323473
0.017108654689509423
0.016975774290040137
0.016898626100737602
0.01658579258946702
0.016540055545046926
0.016639286582358182
0.01685110275633633
0.017217553639784455
0.0176063676411286
0.0178858584491536
0.01814991504419595
0.01850931632099673
0.018880405477248133
0.01907963289646432
0.018960591095965356
0.019091294191312044
0.019275530809536576
0.019340838466305285
0.019268340535927565
0.01921180176315829
0.019161824877373876
0.018975770114921034
0.018939519990235566
0.019033259644638745
0.019087554120924322
0.019298360103275628
0.019554181382991375
0.019792717567179353
0.020005971505306662
0.020175367386545986
0.020344299867283554
0.020659664815757425
0.021121269988361745
0.02152755406219512
0.02179707942996174
0.021975218800362198
0.021980195769574492
0.02170460281893611
0.021598656065762042
0.021776218437589704
0.022342799298930915
0.023119279274251312
0.023615681142546238
0.023776991330087184
0.02379082321887836
0.023740525154862552
0.02374918427551165
0.023896024639252573
0.024046015441417695
0.024318977377843113
0.024899322900455444
0.025625250185839832
0.026165880106855183
0.026388660897500815
0.02630650278646499
0.026448461988475173
0.02662227421766147
0.026491449994500725
0.026804404782596977
0.026808884616475553
0.026554490968119352
0.026625094404444098
0.026651427098549903
0.026493003098294138
0.026534580131992697
0.026742819482460618
0.0269385517667979
0.02689070113468915
0.027267320728860796
0.02763642212608829
0.027514126696623863
0.02752882178639993
0.02759189723059535
0.027559725826140493
0.02758108078269288
0.02775467058410868
0.028032366742845625
0.02835311840521172
0.028545437881257386
0.02867169216275215
0.029063145548570903
0.029457405626308174
0.029666758636012674
0.02973265974782407
0.029631739521864802
0.029355023347306997
0.029053725928533822
0.02878820062847808
0.028575144193600865
0.028480024416930972
0.029088366890791802
0.030070853584911673
0.030740473589394243
0.030909019701648503
0.030908051228616385
0.03104243323672563
0.03124206616776064
0.031714433480519805
0.0325681063067168
0.033802629241254184
0.03541581394849345
0.03680998482275754
0.03757241298211739
0.03758042742498219
0.03831036712508649
0.0393421170511283
0.04004697254160419
0.040326662596780805
0.04051185128511861
0.04067855919478461
0.040693525101523846
0.04058457524050027
0.04039737038547173
0.040182146939914676
0.040676171998493375
0.04139099201653153
0.042298827399499715
0.042950143085327
0.04310052394401282
0.04379162574419752
0.04417611016426235
0.04416203222004697
0.04436129546025768
0.04504880249034613
0.04573848492698744
0.04587375609204173
0.04587681518867612
0.04611597117036581
0.046416945613455024
0.04646903771208599
0.04624208901776001
0.04580567582976073
0.04565516892354935
0.045861321578267965
0.045879750307649375
0.045648270768579094
0.04579831490060315
0.046214344401378185
0.046451558265835045
0.046453267128672454
0.0460976323694922
0.045539091473910956
0.04527118712896481
0.04555738389259204
0.046183025180362165
0.04674298000056296
0.046692046280950306
0.04696256850846112
0.04751203920925036
0.0481091341865249
0.04841613346710801
0.048148092310875655
0.04747458389494568
0.047733204544056204
0.04810167606920004
0.04797960728406906
0.04772868697531521
0.04783583274576813
0.047705486821942034
0.0476131450664252
0.04772533711977303
0.04784051143564284
0.04847960061160848
0.04960125468904152
0.050515662885736674
0.050988525012508036
0.050978343365713955
0.05097216320456937
0.05061451569199562
0.050085280232597146
0.050073231689166275
0.050148546809796246
0.050265554026700555
0.050163448425009846
0.05021350040333346
0.050071589923463763
0.049792789677158
0.049805659912526605
0.04964764553587884
0.05021475192159414
0.050825025979429485
0.05109527719439939
0.051477345034945755
0.052372468465473505
0.05296532976673916
0.053662808535154906
0.055336349876597524
0.0571042552147992
0.058445649556815624
0.05942757771117613
0.05980904356809333
0.0597145226621069
0.05939605235820636
0.059144676651339975
0.05982524009188637
0.06066286542220041
0.06140193595783785
0.06212149475235492
0.06295774405822158
0.06344123767456039
0.06293727872194722
0.06165348784532398
0.060793644012883306
0.06140976153779775
0.06187172817531973
0.062467880994081494
0.06289273641072214
0.06243876308435574
0.062250797350425276
0.06230097194435075
0.06246353743597865
0.06292177298106254
0.06375654560746626
0.06506304950453341
0.0665294060157612
0.06822626283392311
0.06992441807407886
0.07151776843238622
0.07262668260140344
0.07192338268505409
0.07289714005775749
0.07557858124142512
0.07866431891918182
0.08120947594055906
0.08365608567139134
0.08640137865208089
0.0883545065834187
0.088325375742279
0.08838396253297105
0.08869213901693002
0.08904122207779437
0.08998674619710073
0.09138947241939605
0.09292457947740332
0.09449864543508739
0.09574914746452123
0.09647930095205083
0.0973419820703566
0.09794088850263506
0.09774650681298226
0.09767386962426826
0.09768699917709454
0.0977743064193055
0.09787298997165635
0.09767323985463008
0.09732825641753153
0.09752032042248175
0.09855154809774831
0.10079748911084607
0.10316898840945214
0.1041780407144688
0.10356205788906664
0.10500594916986301
0.10675403263885527
0.10948485426139086
0.11397151932585985
0.11898461879463866
0.12203549063298852
0.12247718838276342
0.1228583341022022
0.12351521450094878
0.12417430458124727
0.1242719913762994
0.12378214178839698
0.12358864887384698
0.12420167081989347
0.12531528029125183
0.12662671824451535
0.12813122458057477
0.12987140057142824
0.1317040327587165
0.13355344602139665
0.13521517917281017
0.13618499681353569
0.1364355805912055
0.1379814463038929
0.13943407975370065
0.13996041238773616
0.14108297292841598
0.1427161821583286
0.14441536533180624
0.1444810599461198
0.1456990864383988
0.1484050551475957
0.15129822528222575
0.1523311019013636
0.1506365849915892
0.1495873459847644
0.14931340747512878
0.1498705820599571
0.15098551316885278
0.15180670741945504
0.15197364740073682
0.15199119584402068
0.15138364220736547
0.15112463221186773
0.1516605849005282
0.15217338347807527
0.15190867388620974
0.15148136077914387
0.15181375617394224
0.1525248283939436
0.15247999344719573
0.15307800657115878
0.15335727233439683
0.15315114020137116
0.15360118634533138
0.15541866911808028
0.15629093527095392
0.15582849360769616
0.15675945113878698
0.15764325246913358
0.1576251159864478
0.15669702735496685
0.1550554373743944
0.15296281144255772
0.15071952040772885
0.14868264926830307
0.14752324821660295
0.1479504921240732
0.14735574799589812
0.14559779729926958
0.1431896811607294
0.14074008609633892
0.13814023518003524
0.13498062956379728
0.13348307305946946
0.13433550621615722
0.13462277524871752
0.13399637106340379
0.1337065305840224
0.13319142675958573
0.132476455187425
0.13105224995641038
0.1292412854474969
0.1286915921093896
0.12853407847229392
0.127964057023637
0.12719060173723848
0.1270562690263614
0.12686379629885777
0.12662937397835777
0.12636598378187044
0.1259156885021366
0.12579700428061188
0.1256245408183895
0.12597790196305142
0.12519410269102083
0.12225448194658384
0.1194998708087951
0.11814295554766431
0.11836543345125392
0.11690560147166253
0.11470296157058328
0.11200708081712946
0.1085659249778837
0.10540844565490261
0.10412404407048598
0.10448842422803864
0.10395026551093905
0.10365332629764452
0.10327043295837939
0.10302177411736921
0.10303907602094114
0.10292643640656024
0.10265205619158223
0.1023875315580517
0.10152646499685943
0.10057855514110997
0.10009601548314094
0.09912985210539774
0.09695553799625486
0.09559498102404178
0.0956843870645389
0.09605570191983133
0.09454855072079227
0.09282726034289226
0.09184357085032388
0.09062339265365153
0.08850756680592894
0.08656673384597526
0.0866803520778194
0.08557396175339818
0.08263990208040922
0.0799219303810969
0.0787749055819586
0.0791576178651303
0.07872322462731972
0.07790901436703279
0.0764130062633194
0.0741429345891811
0.07257767503615468
0.07202417691238225
0.07209418082609773
0.07243116441182793
0.07241527064004913
0.07130962467519567
0.0692932963790372
0.06760973769938573
0.06639408070594072
0.06554250933928416
0.06457843172829598
0.06532633498776703
0.06518390377284959
0.06419662345200777
0.06299047479405999
0.06190482030157
0.06118359930114821
0.06140487058321014
0.06231377763208002
0.06095942741027102
0.05982244379119948
0.059472996573895216
0.05974844236625358
0.060677220029756423
0.06207932444987819
0.06327793438453228
0.06368693583179265
0.06391436709323899
0.06422864869236947
0.06438873304519803
0.06470425616018474
0.06489875939674676
0.06447108458261937
0.06401158479275182
0.0640397956315428
0.06389908636687323
0.0632285276753828
0.06254835960455239
0.0639284611842595
0.06504217372275889
0.0647398349409923
0.06410921588540078
0.06351512810681015
0.06361479825805873
0.0630495146359317
0.06207308300072327
0.06145635104738176
0.06126796768046915
0.061333585795946416
0.06182893387274817
0.06295562625629827
0.06459338991204276
0.0667590903211385
0.06893850383581594
0.07098105335840955
0.07137962626758963
0.07085653976770118
0.0719196496740915
0.07321987652219832
0.07501373171806336
0.07752300715772435
0.0802890971279703
0.08252464151242749
0.08311998955439776
0.08236233370378614
0.08161830638768151
0.08091262191999704
0.08119566596345976
0.08250546294264495
0.08281392242992297
0.08245738941477612
0.08222863123985008
0.08238238182617351
0.08226381487445905
0.08133126698667184
0.08042497892165557
0.08008912688354031
0.07952500537736341
0.07850658329436555
0.07785162807675078
0.07788919741287828
0.077098092159722
0.07597029149299488
0.07529172429814934
0.07499800153076648
0.07522512956755235
0.07538666880922391
0.07545415913686156
0.07536526432959363
0.07501222823979332
0.07465417895000429
0.0744118447857909
0.07422926487401128
0.07406786724925041
0.07388891797978431
0.07365585389314219
0.0733232103753835
0.07323691204423084
0.07347916320431977
0.07403750271303579
0.07393554548500106
0.0741027882322669
0.07424500693567097
0.07393705607159064
0.0735706771700643
0.07313600934576243
0.07316350695444271
0.0735771678085439
0.07403109522536397
0.07379333210876211
0.07376192607916891
0.07291305396007373
0.0718427922273986
0.07123466844437644
0.07087471683276818
0.07028923217207193
0.0696240707160905
0.06923077242914587
0.0692302334937267
0.06959932607365772
0.06910366791533307
0.0689559813006781
0.06907156873494387
0.06846788162132725
0.06670708436984568
0.06497271238826215
0.0646146023995243
0.06487949264934287
0.06486722879111767
0.06465728401439265
0.06415079122642055
0.06356796059058979
0.06338035185122863
0.06330430751899258
0.0632469444628805
0.06279440455138684
0.06278436841443182
0.06326641897438094
0.06186253493884578
0.061496356735005975
0.06274492755765096
0.06358683516271413
0.06416278276359662
0.06398598082130774
0.0641440207627602
0.06481635656906291
0.06560498484410346
0.06677760437130928
0.06790976141346619
0.06806662577204406
0.06704874408664181
0.06545696694636717
0.063857347574085
0.0630377067392692
0.06342206235276535
0.06474725160282105
0.06587603364139795
0.0649336438602768
0.06370091306511312
0.06252874088706449
0.061649410224054006
0.06137596318265423
0.06175205095671117
0.06268397263251245
0.06298843213357032
0.06214358226163313
0.06208444978808984
0.06253072653198614
0.06298149183858186
0.06330491570290178
0.06364007305819541
0.06415916125290096
0.06490822532214224
0.06567210824927315
0.06621821673121303
0.06618630845099688
0.06608238093787805
0.06637557383393869
0.06714406851446256
0.06820630845846608
0.06939771604491397
0.0704027007543482
0.070749315621797
0.0710039620101452
0.07226147273788229
0.07323491361225024
0.07362415014533326
0.07366169059183449
0.07378120531793683
0.07441231682896614
0.07509826724184678
0.07505767683731392
0.07464043676387519
0.07458457636879758
0.07443783591268584
0.07436191426357254
0.07497960663633421
0.07618223933735863
0.07722340484382585
0.07707405731780455
0.0779117211024277
0.0790855746716261
0.08013775331666693
0.08095743244979531
0.08102315486874431
0.08116049373988062
0.08215784720145165
0.08314804500434547
0.0836176919657737
0.08351771286688744
0.08413821045774966
0.08480537459254264
0.08488180441781878
0.08548136667115613
0.08585262521868571
0.08560098891844974
0.08523490835679695
0.08435611369321122
0.08346426396863535
0.0831197390309535
0.08329729310935363
0.08313144086161628
0.08304021483054384
0.08350039876997471
0.08470018887193874
0.08623920339159667
0.08738805144792422
0.08774281232384964
0.08759938436327502
0.08756922708591447
0.08777356812497601
0.08794722465798259
0.08779450956732035
0.08852997921174392
0.09042435773648322
0.0928041158337146
0.09454981170361862
0.09539537078002468
0.09622697374783457
0.09603442972060293
0.09537611993262544
0.09409867076203227
0.09440129436086864
0.09569865109398962
0.09622221764875576
0.09610643436666579
0.09561465869424865
0.09471959277288988
0.09369697023415938
0.09305412588175387
0.09301639626501128
0.09295987633289769
0.0924603423802182
0.09104216055711731
0.08872563645010814
0.08641020202543587
0.0850584123050794
0.08504910402931273
0.08465141809079796
0.0836718743853271
0.08239576883381233
0.08073864937527105
0.07891520220786333
0.07783452981384471
0.07804726075381041
0.07853749052854254
0.07819766510743648
0.07734576480463147
0.07599743257975206
0.07550481776474044
0.07658776448806748
0.0775059938756749
0.07721685519674792
0.07668296908028424
0.07717528158333152
0.0782640685653314
0.07869274427648634
0.07892617224017158
0.07893650705460459
0.07871938068419695
0.07899606034625321
0.07997500930912793
0.08125503693707287
0.08130838837940246
0.0805495399609208
0.08024173762416467
0.08035020651761443
0.08062535374891013
0.0806317998492159
0.08001377132954075
0.07889610694022849
0.07853020013775676
0.07862785787321627
0.07854195568943396
0.0794441853184253
0.0811109461239539
0.0816854973253794
0.08024653525091707
0.07909337288700044
0.07904203557176516
0.078550816886127
0.07764455201104284
0.07668740452965722
0.0757666528923437
0.07537516721058637
0.07522455463418737
0.07433405871037393
0.07349553356645629
0.07327958018984645
0.07377447850303724
0.07315381539519876
0.07306861523771659
0.07326894563855603
0.07325671832310036
0.07403862969717011
0.07482602745760232
0.0746749973972328
0.07528624423779547
0.07613090238068253
0.07688975743483752
0.07766837060451508
0.07844179639359936
0.07884462395682931
0.07855948977172375
0.07766222997801378
0.07678167753154412
0.0766876386734657
0.0774116366636008
0.07803990118205548
0.07757631095824763
0.07733707278501242
0.07790469341678545
0.07966862264787779
0.08119697583140806
0.08150070780655369
0.08035449879476801
0.07865778216160833
0.07716176053741947
0.0771340810903348
0.07794652022887022
0.07873033853480592
0.07996377618052065
0.08006765334866942
0.07964435904286801
0.07904355010716245
0.07866482438053936
0.07854396007489413
0.0782139899698086
0.07845306722214446
0.07912024214630947
0.07948176034027711
0.07960375924827531
0.08008929348317906
0.08039404852548614
0.08046803520526737
0.08049024236854166
0.0806539516360499
0.0808460623724386
0.08140571030788124
0.08192548038205132
0.08149033169960603
0.08117656469345093
0.08120262702228502
0.08118539123097435
0.08098611885216087
0.08068630736088381
0.08022306068334728
0.07949871433665975
0.07927436526166275
0.07953335140598938
0.07991773537825793
0.08108894786098972
0.08250422859098762
0.08278792029246688
0.08177749826572836
0.0811538992030546
0.08177677580155432
0.08366094522876664
0.08631901026237757
0.08817832439672202
0.08742436094209552
0.0861522992188111
0.08537699880776926
0.08577297897310927
0.08670057028299198
0.08764636011095718
0.08843386877095327
0.0885161622497253
0.08841445061843842
0.08880393259460106
0.08971255815355107
0.09049086496466771
0.0910367686767131
0.09134056569542735
0.09068380574695765
0.08891399278538302
0.08835760216228664
0.08963297458831221
0.09099131146678702
0.09244377708062529
0.09333654600894079
0.09376333732623607
0.0945260551571846
0.09560111673315987
0.09609433553181589
0.09605138052254915
0.09629311552038416
0.09632639900548384
0.09657453331863508
0.09758092458127067
0.09900868886848911
0.09863271173322573
0.09887835475616157
0.09837230826495215
0.097301833210513
0.0966856879577972
0.0975549585535191
0.09824272569501773
0.0993158142408356
0.10113751928787679
0.10279075329890475
0.10287588749779389
0.10243947910377756
0.10381955350749195
0.10627987884683535
0.10896686952095479
0.11145021677948534
0.1134232495049946
0.11452153777470812
0.11489602246321738
0.11483305148081854
0.11496736084111035
0.11512524573132396
0.11505267943721265
0.11494037467287853
0.11508415166288614
0.1154337994940579
0.11638162803836166
0.1171124789537862
0.11755739143816754
0.11801047446671874
0.11836005499120801
0.11788864163914696
0.11751011789543554
0.1188107617595233
0.12098555085249245
0.12331794945523143
0.12554444711422547
0.12653760253218935
0.12669784859055652
0.1266326734726317
0.12682721309596673
0.12732257005758585
0.1282630849862471
0.12969577184412628
0.13129339116159827
0.1324557782104239
0.13308037092443556
0.1329901256156154
0.13225984980817884
0.13274646761361508
0.13335992144420744
0.13322704929858445
0.1323648887942545
0.13203464701073245
0.13189509096322583
0.13185523975174873
0.1319913692236878
0.13190179071156308
0.13136836090823636
0.13042430580127984
0.12900327903451397
0.1276392935356125
0.12686421890277416
0.12706740354187787
0.12694372426718473
0.1264926819736138
0.12523902181070298
0.12287952165352181
0.12049145101103932
0.11996120970463381
0.12023611843120306
0.12120307085104287
0.12225233636097982
0.12202102952636779
0.12019273761194199
0.11957243971526622
0.11991250414634123
0.120359093954321
0.1209537514904514
0.12226498201722279
0.1237310623493977
0.12446168530732393
0.1241718386625871
0.12389771691057831
0.1245331319491379
0.12491183643927797
0.12483870908850804
0.12411928511690348
0.1230184985185042
0.12228265579091385
0.1220825162762776
0.12194264455698431
0.12190744641236961
0.12251030725892634
0.12352215119171887
0.12368841368705034
0.12341833409154787
0.12356343044200913
0.12367691096616909
0.12404515121132136
0.12520461578387768
0.12517580337822437
0.12565488811116665
0.12677730304421858
0.1277745632454753
0.12728121011052282
0.12572192544816063
0.12375997938448563
0.12131584854098038
0.11917635988676921
0.11861678988672793
0.11846049207029864
0.11628947028424591
0.11420567429857328
0.11232143552741036
0.11007218080572784
0.10770076730987058
0.10627362875500694
0.10618768122978509
0.10586493570823223
0.10467982155736535
0.10274012056877836
0.10086115799145773
0.09957072900375351
0.09869867087109015
0.09796911449870095
0.09699963541002944
0.09589130569947883
0.09416395812295378
0.09241018006578088
0.09138732655439526
0.0912054150016047
0.09076348675182089
0.08934623749228195
0.087236567446962
0.084646670978982
0.08266506999963895
0.08127630408620462
0.0806837359070778
0.0809304017224349
0.08118488780921325
0.0805024299188517
0.07932479645125567
0.07809753215871751
0.07705725207692012
0.0762508477200754
0.07551823004381732
0.07480529791442678
0.07484279025346041
0.07451570959994569
0.07397204235428945
0.07408363997703418
0.07480272704036907
0.074449156941846
0.07463581326883287
0.07508937557693571
0.0755247937864624
0.07609246927080676
0.075920352388639
0.07517067491076887
0.0742047616885975
0.0730085497489199
0.07307048708898947
0.07325645858887583
0.07278292739065365
0.07270333957625554
0.07210925124352797
0.0709162221243605
0.07029005377087742
0.07003982394002378
0.06909678395139053
0.06758602821733803
0.06624543457524851
0.06583693959051744
0.0665945239039138
0.06628313328139485
0.06567995751276612
0.06490475135855377
0.06373607673216611
0.06174761505331844
0.05961933827726171
0.05832105042412877
0.057979373207781466
0.05880659074522555
0.05988785276655108
0.06032740142894909
0.05958993290551007
0.05908553842222318
0.059736320616211744
0.06086947218282148
0.061655592252500356
0.06145257219672203
0.06073878582334146
0.06125708424020559
0.06269159390823915
0.06449643836822361
0.0653413990023546
0.0639376683998853
0.06253028820967302
0.06147967076394707
0.0613418795960024
0.06300219143740833
0.06496812043711543
0.06526866822037845
0.06426916148047894
0.0651646939269267
0.06673216499155388
0.06785448502982035
0.06845248612109572
0.06844696400687099
0.06778929255669937
0.0677986712893471
0.06904691414441913
0.06978779091034085
0.06923175601987168
0.06775533792795613
0.06712975214933976
0.0666745312907733
0.06646739233983681
0.06703195639653131
0.06851444894680753
0.07074405243853107
0.07271854775957763
0.07385803411947563
0.07415378632489592
0.07377199281472713
0.07408812994137406
0.07412897540256382
0.07515737472567707
0.07748443007934838
0.07981356383301318
0.08126304309116676
0.08170826092595235
0.08201837622793391
0.08316316054901109
0.08504389568930491
0.08663384542800485
0.08789125728420913
0.08841348277870566
0.08817655055550859
0.08761208635522053
0.08784483397612348
0.08873316982993856
0.08961111711570993
0.08978889730060473
0.08935625845100731
0.08967841126257553
0.09019611751893536
0.09017850991105661
0.08993577289860695
0.08950104506453499
0.08872829692903907
0.08839809689670801
0.08910954798106104
0.08975239877589047
0.09044114934746177
0.09084136352874339
0.09075823351508007
0.09087539133848622
0.0906607347051613
0.08994997897651047
0.09018446141388267
0.09049981467891484
0.09102428619749844
0.09199111764319241
0.09207664934918285
0.09192549386527389
0.0924429262499325
0.0932000207528472
0.09334427184890956
0.09396161725977435
0.09451608628267422
0.09448362104361877
0.09408721419749781
0.09366883322130888
0.09333166708005593
0.09337055959971621
0.09422169531462714
0.09555941461585463
0.09753295001806692
0.09976339035434649
0.10105178770376369
0.1009633528534323
0.10083595781819894
0.10039824215695262
0.10110331468749792
0.10375416505150498
0.1060703676356934
0.1057459971262142
0.10468601336004213
0.1036187333893031
0.10366759445751086
0.10439570609480142
0.10318061677739024
0.10266950481105595
0.10230337258893997
0.10218514088308439
0.10285872361157089
0.10317569801351055
0.10318371784407646
0.10197211829014123
0.10064269857946784
0.09916946009965613
0.09819308976409957
0.09836613298859448
0.09841718782437965
0.09860221441136673
0.09810902374563739
0.09780291312374174
0.09869358050636948
0.10006311002653093
0.10105077451793477
0.10217625067569315
0.10334266901016236
0.10390129078412429
0.10407930024201051
0.10451573389116675
0.10481828439747914
0.10493251363513992
0.10502638864796608
0.10518640148686245
0.10523671333678067
0.10509906517807394
0.10500579276820644
0.10517147918930277
0.10547455276595429
0.10528024330502377
0.10485913386801257
0.10427373482612894
0.10263760605128482
0.10021944843465462
0.09850868985289708
0.09877002802444622
0.09918028807267547
0.09854923016624526
0.09730184264015407
0.09610476924106479
0.09524734142934904
0.09466664919862523
0.09439328290056437
0.0950880734436214
0.09554798690602183
0.09502888598944992
0.09388792186742649
0.09385765336919576
0.0957170696533285
0.09717026878148317
0.09716601656982675
0.09809216992696747
0.09961510609835386
0.10101169793168083
0.10247641220921651
0.10365112414583563
0.10433993419632316
0.10425524784950539
0.10339494345709682
0.10235726182814688
0.10223532595206052
0.10242471098899841
0.10292935273377225
0.10403919723816216
0.10476469959132373
0.10475516594480723
0.10436051610391588
0.10424857140285894
0.10450757028302178
0.10462049003690481
0.10435548343230039
0.10418549526948481
0.10457391600124538
0.10387659256579354
0.1032791559305042
0.10301577365491539
0.10335997035726904
0.10461602544179187
0.10610668812645599
0.1064563995716162
0.10586560647469014
0.10461413218872621
0.10260576734086499
0.10092536924406886
0.10091467499267309
0.10239347325870768
0.10209719927050173
0.10080746614141389
0.09873296508099884
0.09618366649141535
0.09370577034074813
0.09300526563543826
0.09286665520165116
0.09251013873144984
0.09163165059871972
0.09080873980652542
0.09103413183940574
0.08972932436270639
0.0880756161850877
0.08693106624064967
0.08625508319120855
0.08576860002242029
0.08552449293667451
0.08579694137442857
0.08513567024609074
0.0846923867217265
0.08494551454670728
0.08537153115030378
0.08435761384665966
0.08292394560296089
0.08250596935395152
0.08255499714519829
0.08258707835571841
0.08341303530847653
0.08404728380031884
0.08268757627811282
0.08023145997431129
0.07976943931076676
0.08083475548308343
0.08159675678005442
0.08311866949079558
0.08455963110318407
0.08445969243533909
0.0826152032148093
0.08047754731727765
0.07882742811692879
0.07788231221027672
0.0775561936176382
0.07784410349559039
0.07806957827415317
0.07834187542786822
0.07766857619397342
0.07721924822544679
0.07718717715702951
0.07693570174276829
0.07635367357637733
0.07540285747963935
0.07484274365007877
0.07435772676952183
0.07430314902216197
0.07394155180081725
0.0743953378405422
0.07501951860031113
0.07432641108054668
0.07391201347345486
0.07391950499266386
0.07424234879901633
0.07392584883142263
0.0723445708071813
0.07070676684612408
0.07091993568232283
0.07105123762739822
0.07083129664184526
0.07050809849984944
0.06996421044925227
0.069364131630864
0.0687885719910264
0.06789952089544386
0.0680020447797142
0.06921721718972548
0.07016066492069513
0.07091203777585178
0.07115180714521557
0.07092230144888162
0.0711814983189106
0.0721721155475825
0.07260373688302935
0.0717250607488677
0.07122820784337819
0.07127922834362835
0.07204172218684107
0.07293987609446048
0.0737952485587448
0.07513500561006367
0.0758733486989513
0.07585029423236847
0.07569632369559258
0.07537998797371984
0.0749463614448905
0.07486640426795929
0.07469510263297707
0.07464969034306705
0.07460205203387886
0.07406546962913126
0.07312324643135071
0.07251817133277655
0.07270503267645836
0.07317727765534073
0.0731989582721144
0.07273095490876585
0.07260719794314355
0.07250650906004012
0.07192540333140642
0.07194763649720698
0.07212628809269518
0.07188599405344576
0.07143126187846065
0.07122786885593087
0.07140634460374713
0.07185607924126089
0.07221242404077202
0.07204921602737159
0.07162293478380889
0.07159858617000282
0.071694882302545
0.07124502591788769
0.07064195164479316
0.07007343605160714
0.06986091972328723
0.0702937235031277
0.0701910099387169
0.07048252557404339
0.07054959768429399
0.0691643269592896
0.06704216870944947
0.06621675809845329
0.06619394246954471
0.06584342200309039
0.06469865419436246
0.063653655750677
0.06284271847922356
0.06225957215297967
0.06215750913135707
0.06225720522925258
0.062383964993059635
0.06258862614631652
0.06245636833831668
0.06186279774643481
0.06160881681367755
0.062051473348401484
0.0627770243305713
0.06384410630911588
0.06453750408254563
0.06513873293995857
0.0655764117371291
0.06578677969519049
0.06663401333615183
0.06680484340991825
0.06698159120511264
0.06704067445360123
0.06729993253014982
0.06666085545904935
0.06635611143894493
0.06672349508851766
0.066070535806939
0.06545903961639851
0.06494997364468873
0.06501017772126944
0.06532706091646105
0.06529573533218354
0.06455635990016162
0.06333176027517766
0.062317075473256406
0.06156959451269359
0.06067536291666329
0.06046688782982528
0.06054843162652105
0.06109858262818307
0.06106047444976866
0.06044720827136189
0.0597238898742944
0.05875998019240797
0.057996135279536246
0.057528695212677124
0.05630535130854696
0.0551676288060844
0.05432445848826319
0.05490163725335151
0.055294766849838195
0.054819693136960265
0.053968747681938115
0.05246822375804186
0.05135628380812705
0.05015936642885208
0.04994456729851663
0.05084012267179787
0.051388865197077395
0.05094303851015866
0.05014883792959154
0.04959250725340098
0.04986846782267094
0.05009531656745821
0.05036999510601163
0.05062039835844189
0.0505910959513858
0.0502395543968305
0.05014007281512022
0.05065836038906127
0.05121649852953851
0.05128884225152433
0.05201117710676044
0.053249921249225736
0.0549286069907248
0.05612393526826054
0.0568832569103688
0.057542734146118164
0.05818494573701173
0.058600309318862856
0.05825876886025071
0.058720627482980486
0.059471219750121235
0.059583515780977904
0.05987258415669203
0.05964096950832754
0.06004070017952472
0.060476845023222266
0.06031742364168167
0.06036039107944816
0.061127333231270314
0.06184629596304148
0.06267988129984588
0.0622988637490198
0.06131781380623579
0.06071711167693138
0.06149299714248627
0.06320748066995292
0.0650501248287037
0.06604541100561619
0.06717919358517975
0.06757390352897347
0.06704678633715958
0.0662269673263654
0.0655121519556269
0.06567573055159301
0.06612768217455596
0.06650305808987468
0.06673833531327546
0.06687517956830562
0.06675137787126005
0.06654689563903958
0.06609690335579216
0.06532210252713412
0.06427265834994614
0.06335436488967389
0.06346879552584142
0.06364802868571133
0.06308802655898034
0.06286669219378382
0.06294672376010567
0.06275752985849976
0.06271705962251872
0.06303455145098269
0.06338898852467537
0.06427829672116786
0.0654244218673557
0.06567927203606815
0.06593905601184816
0.06594519915059209
0.06582245408557355
0.06619016475509852
0.06720381368417293
0.0682903857761994
0.06839670825749636
0.06831241616979242
0.06922505871858448
0.06960497528314591
0.06975468786899
0.06974581923801453
0.0692745487485081
0.0688433402730152
0.06848910907749087
0.06856268127448857
0.06908580543007702
0.06989020377863199
0.07087286268360912
0.07053645150270313
0.07070308492984623
0.07054083180613815
0.06990636041387915
0.07008448081556708
0.07051744141615927
0.07129799264017493
0.07132921241689473
0.0712712763249874
0.07061405431479216
0.06963020155671984
0.06858410123735666
0.0681923458725214
0.06900665821507573
0.07075225799810142
0.07206057642586529
0.07306398299057036
0.07393497737124562
0.07433975658845156
0.07383168546482921
0.0745020292326808
0.07629409745335579
0.0783900829218328
0.08046823905315251
0.08224236904643475
0.08247443216387182
0.08136330318637192
0.08045904607046396
0.08080302697140723
0.0816693517146632
0.08181856218725443
0.0809763077320531
0.08014432139694691
0.08001004336867482
0.07932049081660807
0.07840068806428463
0.07834920712746679
0.07908935999497771
0.08073899497278035
0.081784390155226
0.0824166922364384
0.08295025578234344
0.08284459174145013
0.08172631123568863
0.0802747263154015
0.07990206343121826
0.08073034436441957
0.08163654534146189
0.08242883646860719
0.08239929653238505
0.08125399428419769
0.07965540279168636
0.07808518765494227
0.07784576065372675
0.07834918253589422
0.07906008603982627
0.07984020285774023
0.0808388126268983
0.0815996936429292
0.08188632225617766
0.08134327879641205
0.08110468968283385
0.08286397804506124
0.08488864739891142
0.08546264273114502
0.08564090152736753
0.08622862110380083
0.08662526954896749
0.08673498654272407
0.08684070016257465
0.08698051636107267
0.08789830264635384
0.08964205193333327
0.0914409443596378
0.09271878139581531
0.09308305122423917
0.09275531170889735
0.09238408129196614
0.09190184584353119
0.09211516967508943
0.09316109576262534
0.09323012202046811
0.09378125058021397
0.09488648200873286
0.09545435458421707
0.09496967111714184
0.09409747577272355
0.09449149006046355
0.09564645162783564
0.09639505547005683
0.09655744031537324
0.0960344497160986
0.09524532282259315
0.09533389934338629
0.09529338778927922
0.09499627181794494
0.09466102560982108
0.09426517976913601
0.09395092714112252
0.09428493541665375
0.09543179964181035
0.09573435963597149
0.09531693161930889
0.09535680952016264
0.09505864313337951
0.094644660721533
0.0945065533136949
0.09504558863118291
0.09607558755669743
0.09695818228181452
0.09737196800298989
0.09734107235912233
0.09801008982118219
0.09874873076565564
0.09911002542823553
0.09889047502074391
0.09805426187347621
0.09669617102015764
0.09608872310724109
0.09659437038470059
0.09579382908530533
0.09359201901126653
0.09108203105162829
0.08913072119466961
0.08774813055992127
0.08690443185158074
0.08711818206124007
0.08712734200526029
0.08588981753680855
0.08432339675724507
0.08370986205060035
0.0840598426759243
0.08450778033118694
0.0851458624145016
0.08547603026498109
0.08520504951477051
0.08565752131398767
0.08565809731371701
0.08502562460955232
0.08410689470823854
0.08326519530732185
0.08261574143078178
0.08324737225659191
0.08425540877971799
0.08483542069792747
0.0845817780867219
0.08372087870258837
0.0828941722633317
0.08207517799455673
0.08192074157297612
0.08219248177483678
0.08201845136005431
0.08242550016380847
0.08186283506453038
0.080557148931548
0.0800430859066546
0.07930149496067315
0.07888686428777873
0.07862437971867621
0.07772175336722284
0.077190086459741
0.07652629976626485
0.0744557649642229
0.07222476720344276
0.07100263654720038
0.07039817559998482
0.07005812075454741
0.06982789766043425
0.0703949966141954
0.07147608170285821
0.07235436653252691
0.07218472985550761
0.07072082689031958
0.06863573219161481
0.06762855116743595
0.06793680769391358
0.0686663530068472
0.06834462076891214
0.06789766441565007
0.06681231835391373
0.06560705504380167
0.06558201835956425
0.06458808955270796
0.06362360074184835
0.0632797494251281
0.06324432667344809
0.06325927952770144
0.06287710587028414
0.06189503367058933
0.06025321341119707
0.05995093232486397
0.06083020271733403
0.06220803136005998
0.06288316715043038
0.06312772665638476
0.0631978504639119
0.0632024249015376
0.06320634459145368
0.06276060419622809
0.06146387995686382
0.060870160311460496
0.060686672325246035
0.06116667885798961
0.06211677982006222
0.06304796257521957
0.0628707617148757
0.06278304404579103
0.06275152690242976
0.06241833833046258
0.06185013900976628
0.061338850599713626
0.06161225977819413
0.06128103866241872
0.06005451682023704
0.058583812271244824
0.0577503704931587
0.05749992164317518
0.05759944126941264
0.057332014394924045
0.05682802571449429
0.05672306659631431
0.05730969863478094
0.057810720279812815
0.05748872290831059
0.057280188342556354
0.057291956744156776
0.05709419133141637
0.05700212983880192
0.05661119812168181
0.05678910410031676
0.05703756328672171
0.057071530749090015
0.0569937691045925
0.05675733446609229
0.056646438795141876
0.057306725685484707
0.05734984977636486
0.056753698312677445
0.055716362884268164
0.05559497843962163
0.056222716583870354
0.05720134876202792
0.05689715771470219
0.05605690368451178
0.05614200127776712
0.057033070833422246
0.05832144231069833
0.05943527421914041
0.05988840985111892
0.06002856732346117
0.06032545955851674
0.060559575096704066
0.06024833326227963
0.05973523125983775
0.06059951053466648
0.06106297405436635
0.060854369518347086
0.061229539187625054
0.061308895740658044
0.06122553712688386
0.06121645028702915
0.06180909413378686
0.06266451722476632
0.06332239340059459
0.06372832520399242
0.06425329541787506
0.06481765111908316
0.06556844629347325
0.06524131237994879
0.0636360246827826
0.06201576824299991
0.06130343271885067
0.06208778597414494
0.06405092773959041
0.06566460066940635
0.06634326612576842
0.06602645718492567
0.06668393964413553
0.06778288097586482
0.06902759621385485
0.07003891411237419
0.07035161478444935
0.07039828010834753
0.06977983898017555
0.06878973592072725
0.06829752750694752
0.06808361212257295
0.06780178807675838
0.0680402326118201
0.06911901296116411
0.06907615828793495
0.06806168543174863
0.06685869010165334
0.06604261341970413
0.06566820320207625
0.06615308997686953
0.06690481799654663
0.06689821941778064
0.06670284162741154
0.06708710771519691
0.06681544644758106
0.06654922373127192
0.06640922047197818
0.06614419698249549
0.06653997753281146
0.06819083579350263
0.06924699306022376
0.06895970163401216
0.06861543471924961
0.06889137680642307
0.0695583740901202
0.06992796003352851
0.06961405945010483
0.0690099550737068
0.06850587920751422
0.06818846912123262
0.06806803519371897
0.06824430000036955
0.06882008876651526
0.06992491111159324
0.07102237968705595
0.07140265588182956
0.07129244749899953
0.07136197924613953
0.07097552514169365
0.07116356696002185
0.07177061127033085
0.07220204153098166
0.07300576394423842
0.07300436276942492
0.07259847186505794
0.07247515566647053
0.07251370846293867
0.07291965302079916
0.07340929136611521
0.0733044813433662
0.07269930781796574
0.07251816594973207
0.0731483418866992
0.07278434389736503
0.07207362414337695
0.07173598154447973
0.07157513679005206
0.07148217665031552
0.07068401970434934
0.06984945902600885
0.06921230063773692
0.0690064062923193
0.06954575676470995
0.06920127569697797
0.06817188046872616
0.06839796311222017
0.06918535489123315
0.07006952442694456
0.06945779651869088
0.06813933877274395
0.06787950401194394
0.06699848391115665
0.06679001996293664
0.0676216210378334
0.06817213595844805
0.06784119373187422
0.06747943472582847
0.06762783375568687
0.06779818471521139
0.06754989139270037
0.06701517454348505
0.06648271621204913
0.06604405467398465
0.06630913426633925
0.06706882275175303
0.06808867785148323
0.0688185113389045
0.06867077644448727
0.06717585306148977
0.06624313541688025
0.06738315341528506
0.06790208721533418
0.0668954933481291
0.06533248008694499
0.06425540525931865
0.06380970170255751
0.06402279713656753
0.06409446310251951
0.06449702508281917
0.06538287132512778
0.06606322932988405
0.06591291247401386
0.06520459215156733
0.06412465213797987
0.0636016045883298
0.06370620492380112
0.06382153757847846
0.06387791015207768
0.0640793347870931
0.0636056542629376
0.06309073808602988
0.0627372214011848
0.0625486195133999
0.062432461995631454
0.06255858595483005
0.06240229138638824
0.06256535715423524
0.06202754625119269
0.06085346001666039
0.05937102297320962
0.05781466390471905
0.05727017853409052
0.057064653742127124
0.05681633949745447
0.056587396878749134
0.05617020146455616
0.05569938575383276
0.055678034592419864
0.055885223718360064
0.05635078450664878
0.05709676464088261
0.0573932072147727
0.05691942246165126
0.056520709074102345
0.05573293462395668
0.05468965747859329
0.053984728269279005
0.05393664609175176
0.054382261615246535
0.05403222181368619
0.053352170870639384
0.052981573482975365
0.052944988496601585
0.05265884240623563
0.05363239712081849
0.05469854207709432
0.05471050957683474
0.054101362726651135
0.05325051099061966
0.05348939574323595
0.05416419047862291
0.05406152703799307
0.053836910175159576
0.05443927267566323
0.05519567112438381
0.05559908328112215
0.056105912001803517
0.05658056049607694
0.05691103797405958
0.05651395318564027
0.05540728939231485
0.05449170361738652
0.05408357066102326
0.05400181121192873
0.05377422149293125
0.053131839763373136
0.052458623237907884
0.052295510480180385
0.05266329688020051
0.05325510671362281
0.053736500153318045
0.05399213411845267
0.053773932484909893
0.053436924125999215
0.053246068628504874
0.05313510447274893
0.05371909304521978
0.05497158920858056
0.05683857158292085
0.05842914766166359
0.05873746477067471
0.058561734636314214
0.05966212789993733
0.06074855883140117
0.06151318880263716
0.061670472933910786
0.06100802892819047
0.05991719371173531
0.059414281090721485
0.058666124534793196
0.057121301060542466
0.05584299622569233
0.05557667708024382
0.05621521270368248
0.05668930471874774
0.056586162550374866
0.05651201355736703
0.05639666393399238
0.05617993367370218
0.05537343151401728
0.055031643421389165
0.05569503184873611
0.05637100278399885
0.05679810987785459
0.056638000519014894
0.05606508537195623
0.056068875947967174
0.056137479753233493
0.05587677356321365
0.055742029040120544
0.05571951359976083
0.05600620680022985
0.05605422979220748
0.05603088488336652
0.05557347941212356
0.05562315606046468
0.05562194434460253
0.05554235710762441
0.055952297984622416
0.056964886388741434
0.05818550926633179
0.0588683702936396
0.058887403132393955
0.05840771296527237
0.05785809521563351
0.05816246715374291
0.05925431156530976
0.05992850352544338
0.059795299787074326
0.06031303701456636
0.06102225086651743
0.06167560426518321
