0.47992736416403203
0.49309546503704044
0.48736684539821
0.4825199737492949
0.48716008469462396
0.4870374652231112
0.4780995636899024
0.4666099148383364
0.46587855651043353
0.45909898947924377
0.4525597883667797
0.4524355050362647
0.4479192922171205
0.44779081964865325
0.4417517577158287
0.43599060757551344
0.4326744017098099
0.42834818453062323
0.42097854915075006
0.4166456160414964
0.41388058294076474
0.4101659297291189
0.409631236246787
0.40940241841599345
0.4069607724342495
0.4070413017226383
0.4068270800076425
0.40464990426320585
0.3996331847971305
0.3935301159089431
0.38646308907773347
0.37996819738298654
0.37918080679606647
0.36783319506328555
0.3563131828745827
0.35650736663956195
0.34924381965305656
0.34512785205617547
0.34473446720279755
0.3443708229297772
0.34408075248356906
0.33966496484354136
0.33638427410274746
0.3330108642950654
0.33136353027075527
0.32168449769727886
0.31005363010801373
0.3083806813880801
0.30854596010409296
0.2992766500310972
0.28646117124706505
0.280405086921528
0.2791882781917229
0.276101552657783
0.2763139981310815
0.2719337620353326
0.2657897789869457
0.2614783005602658
0.260915692737326
0.2602148256963119
0.2594299575360492
0.25728914569597694
0.2540351390140131
0.2523075058683753
0.24357873167376964
0.23368874279316515
0.22540373784024267
0.21649805209599435
0.20738908131141215
0.20223181907087565
0.20166324995458126
0.1989328393433243
0.1962054008990526
0.1909829259850085
0.18448931603226812
0.1847947882162407
0.17571075967513025
0.16741217139642686
0.16551045641768725
0.15549953756853938
0.1465868788631633
0.14254292322788387
0.14067484845407308
0.1359764243569225
0.1288051345385611
0.1254110273346305
0.12300048490520567
0.12005526485852897
0.11825022884644568
0.11533644943963736
0.1140909210871905
0.10869911066722125
0.10165902060922236
0.10162972822785378
0.09602070581167936
0.09256817231886089
0.0915418366389349
0.08508288408163935
0.07577364823780953
0.07261108326725661
0.06313825903460384
0.048056735922582444
0.04231013034004718
0.03719226520974189
0.03239498984068632
0.03101333434227854
0.028540126979351044
0.02869989849627018
0.028219959964044392
0.027817910090088844
0.027152969473972915
0.027048521684482695
0.026949776974506675
0.02700790112372488
0.02707906106952578
0.027004113206639885
0.02681374137289822
0.026569635798223315
0.02630295562092215
0.026045177103951572
0.025828082244843245
0.025659933318383992
0.02554314906243235
0.025499735265038907
0.025467960499227046
0.02536917197983712
0.025175635241903364
0.024902672152966262
0.024644216150045396
0.02444606664124876
0.02426815087441355
0.024186876611784102
0.024314409620128572
0.02438447928056121
0.024373647668398918
0.024256858020089568
0.024030273123644294
0.02376045152079314
0.02351953264325857
0.023316346365027128
0.023153956620953976
0.02305531970690936
0.022993622841313482
0.02293136968743056
0.022938361414708196
0.022819552295841275
0.02261921128258109
0.022424305016174914
0.022242902503348885
0.022044143858365714
0.021845579724758864
0.02177779662888497
0.02187523499596864
0.021930085439234973
0.021940250927582384
0.02187652503605932
0.02172674551140517
0.02152109210845083
0.021285407021641733
0.021041861968114972
0.02084913950879127
0.020754685197025537
0.020746806198731066
0.020757823428139092
0.020689086760394274
0.020600796756334604
0.020457444223575295
0.020251957667060196
0.02004080744460225
0.019864403186365964
0.020003445008769632
0.02010886781383306
0.02018195454031229
0.020206240001134575
0.02017200106754899
0.02009704241063446
0.01996985972393304
0.019755860846489667
0.019490806111134587
0.019260361166670917
0.019097220338881015
0.018977118129841982
0.018885277500376104
0.018843453815206884
0.018799420883879064
0.01865746883675456
0.01845528052188456
0.01824279665481299
0.01803317810408771
0.017883181921206415
0.017793588442727923
0.0178594964556396
0.01795950399711728
0.017999482830055057
0.017985366811044515
0.017886169143021106
0.01772168470546603
0.017543814764358102
0.01737387609668076
0.017191367628984152
0.016954787452705206
0.01680977877229452
0.01670765528921038
0.016717551155015827
0.016741957389749585
0.01667571185156703
0.016508478857576846
0.01635743758175522
0.0162409356655553
0.016146195819601417
0.016129031511954963
0.016230372968129812
0.016283279806375502
0.016267241542227567
0.016178826233372093
0.016032688939012586
0.015860821693204342
0.01569565923884511
0.01554511472582817
0.015386897888965904
0.015229653841815889
0.015135936136357487
0.015132974716834724
0.015171151161193847
0.015125358775258065
0.015064414301887154
0.014995104209519923
0.014892981620505452
0.014766492289490998
0.014715644214302302
0.014797225864604115
0.014909021980129182
0.014912877194583417
0.014853734304197133
0.014821887384168803
0.01486046293284744
0.014866289170458912
0.014744103509001434
0.014551564687862992
0.014373473194427788
0.01421238579787314
0.014059708211570978
0.01395310392137617
0.01391421623993665
0.013918019877746702
0.013913300996646285
0.013919681808911264
0.013993220799602569
0.014096019086427986
0.014055365538224578
0.014197006337344647
0.01440787194762379
0.014597481219097971
0.014798556081950664
0.014849533149972559
0.01460245138965547
0.014417705168016255
0.014244894650764763
0.014028570665977895
0.013847703221254051
0.013772835563868284
0.01374552896246314
0.013714540181681514
0.01400971729774028
0.014399851486086846
0.014589005443267524
0.014586878623813391
0.014623373318463563
0.01490233008749783
0.015430356902070343
0.015619512982666492
0.015526591865345836
0.01549442880321294
0.015462494525127112
0.015314883412793278
0.015071099372580648
0.014803675878793
0.014707318083383143
0.01479389269836247
0.014973256522789597
0.015095224324613809
0.015074710380285978
0.015036312346346677
0.015135547746904194
0.015239095236174761
0.0152953335409984
0.015396081218495965
0.015561753027141094
0.015800306419841946
0.01603774814866483
0.016183051145635546
0.01613038777373731
0.01595310908742249
0.01584269913379103
0.015899718715809287
0.016047046673484146
0.01609187670517713
0.015918803187087178
0.015736068077385427
0.01563163023907691
0.015668812957592308
0.015718358815647662
0.01575316199567169
0.015686311735771598
0.015731395054608584
0.015814526793546974
0.015936700217425822
0.0160295242536813
0.016075012641958892
0.01607353472150862
0.016061812252737583
0.016050969236530363
0.016054487600922585
0.016043076049536465
0.015975135467015206
0.015863331677392126
0.01574876604601741
0.015629086107946933
0.015496522579342127
0.015370761803351342
0.015235330699943006
0.01519207174424082
0.015193757857196033
0.015206610853783786
0.01516819527838379
0.015097347856499254
0.015027786456048488
0.015034243785776199
0.015127833699807525
0.015249251169152558
0.015421733176335693
0.015689338166266678
0.01604632762260735
0.016411240212619305
0.016681580543518065
0.016752785765565933
0.01661742781288922
0.016432648436166347
0.016332290917634964
0.016289703990332784
0.016228926950134337
0.016339329266920687
0.016594168585725128
0.016896447069011628
0.017002984643913806
0.016913965069688855
0.01710414028260857
0.017515981160104274
0.017953478768467902
0.018385260719805955
0.01851277659647167
0.01846374407876283
0.01825361049734056
0.017878505080007018
0.017573198857717215
0.017529148831963538
0.017419228465296328
0.017338593108579516
0.017362638344056904
0.01737617545761168
0.017265881127677858
0.01716415065806359
0.01713228039443493
0.01681681000161916
0.01640925311483443
0.016150782047770918
0.016045844261534513
0.015845936415717007
0.01545851472299546
0.015116054909303784
0.015067759891971946
0.015313098337501288
0.01551026635337621
0.015592229086905718
0.01563824029173702
0.015709931259043516
0.015813148338347672
0.015767063121311365
0.015535334460437297
0.015194198302924632
0.014919373979791999
0.014828227716498077
0.014796359809115528
0.014668251075781881
0.014541493961587548
0.014416159023530781
0.014232986546121538
0.014100032993592321
0.014010081570595502
0.013897480084560812
0.01382574813440442
0.013909336309880019
0.014074239102192222
0.014118768190965057
0.013960083709098398
0.013702485780231654
0.013538223449140787
0.013570770379155874
0.013583203381858765
0.013532452881336213
0.013473979369737208
0.013399174259975553
0.01331381562165916
0.013224304863251745
0.013128330670297146
0.013001310587860644
0.012894290289841593
0.012863214896060526
0.012940642540343106
0.013102609221823514
0.013219765331596136
0.013264958765357732
0.01327955758664757
0.01332120185252279
0.0134003482805565
0.013474559858441353
0.013508878340944648
0.013500371449626982
0.01346612349152565
0.013445661840960384
0.013460956024937331
0.013384951148182153
0.0132965296972543
0.013286926341243089
0.013375525246374309
0.013418779335916042
0.013425124520435929
0.013464248003438116
0.013533723438158632
0.01353842555079609
0.013408182435669005
0.01315628005657345
0.012846445180475712
0.012530019776895641
0.012232582634314895
0.01199462765827775
0.011846978655084968
0.011743581881746649
0.011623438093811273
0.01153393842279911
0.01157210581470281
0.01151328172069043
0.011313124685548246
0.011096774218603968
0.011072374898940324
0.011284570889547468
0.011178018692880869
0.010689018899574876
0.010125875305384398
0.009782940349541604
0.009634197833947837
0.009563375492580234
0.00956657414790243
0.009666669839061797
0.00981540059670806
0.009932552576065063
0.010011081304401159
0.01008724837563932
0.010129386312328278
0.010106020728126169
0.010082821622490882
0.010065960991196334
0.010059650880284607
0.010065254955552518
0.010067443260923029
0.010113835521042346
0.010178381293080747
0.010212329518981277
0.010208371663466095
0.010168601726181805
0.010089447847567498
0.00999501462560147
0.009933003252372145
0.009943556487560273
0.010003688791766763
0.010012825285084546
0.009919427204877138
0.009798422055318952
0.009730169391259551
0.009700487749651075
0.00970225227996707
0.009701848202385009
0.009679164495319128
0.009729890394955873
0.009774463945068418
0.009829128603450954
0.009926835265941918
0.009994089803658426
0.01004124166443944
0.010103478147648275
0.010197304147295654
0.010279887723736465
0.010309782177209854
0.010315100899897517
0.010348712550476194
0.010401799278333783
0.010396245596930385
0.010296474834904075
0.010280450526624917
0.01032930457033217
0.010377879063598812
0.010384399453178048
0.010378411505371332
0.010405338895507156
0.010436179493553936
0.010488410973921418
0.010554976519197226
0.01063206076156348
0.010699218646623194
0.010764001864008605
0.010853503639809787
0.01096021267119795
0.011025734515860676
0.011017494974657894
0.010975498678162695
0.010935088442638517
0.010902023161761462
0.010905149732716382
0.010953257046639919
0.011006750585511326
0.011048827827908099
0.0110513923689723
0.01106023071333766
0.011031660437583923
0.01098447612952441
0.011015349510125816
0.011119880666956305
0.01121640635188669
0.011259645665995776
0.01127131624147296
0.011276245838962496
0.011279805074445903
0.011280977758578956
0.01129114402923733
0.011320007741451263
0.011345649659633637
0.01134760705754161
0.011335932281799615
0.011320878267288208
0.01134708667639643
0.011303223948925734
0.011224393052980303
0.011165148508735002
0.011134679527021945
0.011065200539305806
0.010941124842502177
0.010874626743607223
0.010935385632328688
0.01105302550829947
0.011157586388289929
0.011263259709812701
0.011393019380047918
0.011508346758782864
0.011540209744125604
0.011500572464428841
0.011472802879288792
0.011452027042396366
0.01137476577423513
0.01127356902230531
0.011209016717039048
0.01121237914543599
0.011232484276406466
0.011237478018738329
0.011300077685154975
0.011371866124682129
0.011418827897869051
0.011472237510606647
0.011556537356227636
0.01165647694375366
0.011747453012503684
0.011804995303973555
0.011833399483002723
0.011841498734429478
0.01179591853171587
0.01170961142051965
0.01167758399154991
0.011735001755878329
0.011795203960500657
0.011798933180980384
0.011841675732284784
0.011863186373375356
0.011858375752344727
0.011851562410593033
0.011827775668352842
0.01180959320627153
0.011812649448402227
0.011833595163188874
0.01184586322400719
0.011839526379480958
0.011835075486451387
0.011822006665170193
0.011787485708482563
0.011768910167738796
0.01176564154215157
0.011711297612637282
0.011595005309209228
0.011496534100733697
0.011505348882637918
0.011483407290652394
0.011462224763818085
0.011440869038924575
0.011434911005198955
0.011512468880973757
0.01160149421542883
0.01165948244743049
0.011665485533885658
0.011649957709014416
0.011661153193563223
0.011694767265580594
0.011710732518695295
0.011704691634513438
0.011689858171157539
0.01166533999145031
0.011626281184144318
0.01156067092437297
0.011472310377284885
0.01139482531696558
0.011346890325658023
0.011291085029952228
0.011219520978629589
0.011165869762189687
0.011171119776554406
0.01114857781212777
0.01119515127968043
0.011264256788417698
0.011347888023592531
0.011427182243205608
0.011443702955730259
0.011403578156605363
0.011397028057835996
0.011475966833531857
0.011562958173453809
0.011555275693535805
0.01146826240234077
0.011393172629177571
0.011351996436715125
0.011287784310989082
0.01129595554433763
0.0113422975782305
0.011341262394562363
0.011363294222392142
0.011362475021742284
0.011327215554192662
0.011305345259606837
0.011262957802973688
0.011217131852172315
0.011202116762287915
0.011207283232361078
0.011200634478591383
0.011172416778281331
0.011134795686230064
0.0111023437557742
0.01108092587441206
0.011065551741048694
0.01103785993065685
0.010987848797813058
0.010932104499079286
0.010918799093924464
0.01091590543743223
0.01093297051731497
0.010952379759401084
0.010933464714325965
0.01096504510845989
0.010980775919742882
0.010961564877070486
0.01093353665433824
0.010943714706227183
0.01098926015663892
0.01101215748116374
0.010984640377573669
0.010946253738366067
0.010930160158313811
0.010935939867049455
0.010960202356800437
0.01098745002411306
0.010983321429230274
0.010907261678949
0.010922066206112503
0.011033921521157026
0.011045977845788002
0.011005709832534193
0.010988510409370066
0.011022716579027474
0.010995801240205764
0.011015122681856155
0.011084309555590153
0.011184695740230382
0.011279196520335972
0.011330835279077292
0.011338449139147997
0.011340268980711698
0.01136347854975611
0.011383027778938412
0.01137639168649912
0.011370160151273012
0.011375696724280715
0.011383465128019452
0.011438987622968853
0.011480381861329079
0.011481544403359294
0.011484656175598502
0.011502543152309953
0.01142780107446015
0.01133195670787245
0.011308408370241522
0.011372871659696103
0.011467184810899199
0.011511053200811147
0.011507371300831437
0.011525316671468317
0.011571565154008567
0.011597578641958534
0.01160232799127698
0.0116218526288867
0.011667715958319605
0.011710790232755244
0.011708354284055532
0.011745116217061877
0.011799703878350555
0.011861717626452446
0.011918055550195277
0.011934292735531926
0.011946691595949233
0.011947504272684454
0.011911525619216263
0.011850751908496023
0.011813790542073549
0.011831596051342786
0.011880122167058289
0.01192483201622963
0.011954818130470812
0.01198738134931773
0.012060588621534408
0.012150209392420947
0.012159143197350205
0.012131081600673497
0.012182579268701374
0.012171207135543228
0.01215615772176534
0.012170074861496688
0.012187104495242239
0.012175809992477298
0.012222239915281534
0.012300206911750138
0.012397631532512604
0.01248306066263467
0.012536102239973843
0.012580769141204656
0.012647166061215102
0.012714523808099329
0.012741388259455562
0.012728130645118654
0.012701352387666702
0.012667888742871582
0.012621641275472939
0.012582848332822322
0.012594235399737953
0.012607680913060904
0.012589141461066902
0.01255811074282974
0.012528553050942718
0.012525155926123261
0.012492685341276228
0.01242157578933984
0.012370535777881742
0.012369350134395062
0.012371193962171673
0.012325221537612379
0.012263618409633636
0.01224233231972903
0.01223943466320634
0.012202475066296757
0.01214556235820055
0.012117211096920074
0.0121012396318838
0.012051316983997822
0.012030953159555793
0.01196636827196926
0.011869989507831634
0.01186534618958831
0.011935487268492579
0.011973549174144863
0.01196568062994629
0.012061027223244309
0.012113407882861794
0.012106593702919782
0.01207278082612902
0.012049802686087787
0.012065699631348252
0.012111489763483405
0.012136625647544861
0.012116868579760194
0.012087024794891477
0.012076704329811037
0.012079933555796743
0.012080682776868343
0.012096057482995092
0.012139515518210828
0.012211325010284782
0.012276447359472514
0.012288890602067113
0.012262232317589224
0.012307544988580048
0.012360824183560907
0.012363324360921978
0.012336996388621629
0.012317952481098474
0.012317505949176848
0.012321170382201672
0.012317146472632885
0.012317123664543033
0.012329057469032704
0.012340135197155178
0.012338707507587969
0.012325740698724986
0.01231252989731729
0.012315070321783424
0.012294105752371252
0.01223341333679855
0.012183958608657121
0.012151187690906227
0.012172004245221614
0.012168485349975526
0.012216031458228827
0.01225944412406534
0.012265761513262988
0.012276645037345588
0.012320775627158583
0.012358836098574102
0.012331651425920426
0.012240016795694829
0.012140358155593277
0.012067878828383982
0.012030222634784878
0.012045260216109455
0.012061811415478588
0.012027804129756988
0.011990920356474817
0.012004125420935452
0.012047372763045133
0.0120624604774639
0.012051202640868723
0.012009200262837113
0.011911600022576749
0.011862325626425444
0.01189644011668861
0.011932983840815724
0.011909520900808275
0.01184337830170989
0.011790833841077984
0.011788255092687905
0.011811824780888856
0.011822235155850649
0.011826069504022598
0.011843167417682708
0.011852053990587592
0.011848574704490602
0.011860299413092435
0.011871823114342988
0.011884046369232237
0.011903857234865428
0.011899820496328175
0.011882102130912245
0.011940270406194031
0.012038723425939679
0.012069602319970727
0.012045303895138203
0.01206487084273249
0.012125668614171446
0.012151217069476843
0.012143170777708292
0.012163605000823736
0.012213913286104798
0.012233420731499791
0.01221182506531477
0.01220646527595818
0.012208961034193635
0.012238787012174726
0.012297130268998445
0.012286980375647545
0.012227100976742804
0.01219491112511605
0.012172030648216606
0.012125819078646601
0.012146412050351501
0.012204287881031632
0.012233065129257738
0.012227889392524957
0.012201206930913032
0.012162958704866469
0.012153223506174982
0.012174178496934474
0.012166933128610254
0.01210811110213399
0.012021088474430144
0.011992551372386515
0.011998090008273721
0.011918719564564527
0.011819420713
0.011755676292814314
0.01171935150399804
0.011740723042748868
0.011740411845967174
0.011739686522632837
0.011772827883251012
0.011833192985504866
0.011883392445743084
0.011902411449700594
0.011894091642461717
0.011858035479672253
0.011798943877220153
0.011742839915677905
0.01169140828307718
0.011621298184618354
0.011542095472104847
0.011491704350337386
0.011495989500544965
0.011471821120940149
0.011472408343106508
0.011460401443764567
0.011427218136377633
0.011403436246328056
0.011485219653695821
0.011515559502877295
0.011542842658236623
0.011601609522476792
0.011641825875267386
0.01161624328698963
0.011554979793727398
0.011510733370669187
0.011499744188040496
0.011507878000847994
0.011507275309413671
0.011482891477644443
0.011447715479880572
0.011412564860656858
0.011415503481402993
0.011440386511385441
0.011411183048039675
0.011337268790230155
0.01128907454200089
0.011288891164585948
0.011329929232597352
0.011420113621279598
0.011475512995384634
0.011463644905015826
0.011439519235864282
0.011432723472826183
0.011426809653639793
0.01140799920540303
0.011360951312817634
0.011287314593791961
0.011227675937116146
0.011203594300895929
0.011194845223799347
0.011196759277954698
0.011187302693724633
0.011148587297648192
0.01115101139061153
0.011157413618639112
0.011140147214755416
0.011147560970857739
0.011158211370930076
0.011147503135725855
0.011133005325682462
0.011155203022062778
0.011192001537419855
0.011192776337265968
0.01115437638014555
0.011096320250071585
0.011031100256368519
0.01097654165700078
0.010940580330789089
0.010913721416145564
0.010886661019176245
0.010868795868009328
0.010885329958982766
0.010903642778284848
0.010879066484048962
0.01084917701780796
0.010847981884144247
0.010858315052464604
0.010929045849479735
0.010967484330758453
0.010910689649172127
0.010824925019405782
0.0107605342566967
0.010701434123329818
0.010641390234231949
0.010585207808762789
0.010526035916991533
0.01047825976740569
0.01045825146138668
0.01045069559942931
0.010444451598450541
0.010438404222950339
0.010421523423865438
0.010410192599520087
0.010401328667066992
0.010371951796114444
0.010410636444576085
0.010476361881010234
0.010520963929593563
0.01054160539060831
0.010538312182761729
0.01049559065606445
0.01042553856037557
0.010368632460013032
0.010336586823686957
0.010306036658585071
0.010252873729914427
0.01018253759946674
0.010133923022076488
0.010133967916481197
0.010176359056495131
0.01024669302161783
0.010302072539925575
0.010319482814520598
0.010322372284717858
0.0103653306607157
0.010461241402663291
0.010535597405396401
0.010528360907919705
0.010484470874071122
0.010464367996901274
0.010446853595785796
0.010391493905335664
0.010313925966620445
0.010253227702341973
0.01020942497998476
0.010149499219842255
0.010074939676560462
0.010012767929583787
0.00996977539267391
0.009959733611904085
0.009982334049418569
0.009961974727921187
0.009941464080475271
0.009956914354115725
0.010007307170890272
0.010050652301870286
0.010109189632348716
0.010141143943183124
0.010138086713850499
0.010119125968776644
0.010090713412500918
0.010038434364832937
0.009979445110075176
0.009956399132497608
0.00996550001669675
0.009970537233166397
0.00996885477565229
0.009970133756287396
0.009968918925151228
0.00996359049808234
0.009948764857836068
0.009951461763121188
0.009943355484865605
0.009945583557710051
0.009956485843285918
0.009979353663511574
0.010061351875774562
0.01019982094410807
0.010277696968987584
0.010268571497872471
0.01022623217664659
0.010184276066720486
0.010154416472651064
0.010154447024688125
0.010188856986351311
0.010225320989266038
0.01021586018614471
0.010160446572117508
0.010116230426356197
0.01012340686749667
0.010145197790116071
0.010130346044898033
0.01007494933437556
0.010023886398412287
0.010043733716011048
0.010086418595165014
0.010149317239411175
0.010211028447374702
0.010295226429589093
0.01036579034756869
0.010382557301782072
0.010378620591945947
0.010396808320656419
0.01041840946301818
0.010414740513078868
0.01039869962260127
0.010382557814009487
0.010359074976295233
0.01034074878320098
0.01035453177522868
0.01037188653834164
0.010406507709994912
0.010417883330956102
0.01039237623102963
0.010397005402483046
0.010391242913901805
0.01035315457265824
0.010334684974513947
0.010380242438986897
0.010455150892958044
0.010485410005785525
0.010458936025388539
0.010421292330138386
0.010391360111534596
0.010362734403461218
0.010347927208058535
0.010346044837497174
0.010333068417385221
0.010323618976399303
0.010350248855538667
0.01038307526614517
0.010371214943006635
0.010357680968008936
0.010359982657246292
0.01036314363591373
0.010308989332988858
0.01023424585815519
0.010208946699276567
0.01021418415941298
0.010195316514000297
0.010174414962530137
0.010208741789683699
0.010284231603145599
0.010331351635977625
0.010327242114581168
0.010312355407513678
0.010314956582151353
0.01033542124554515
0.01036446302663535
0.010375115731731057
0.010370887350291014
0.010389702888205647
0.010403978549875318
0.010395310106687247
0.010379288932308555
0.010416237004101277
0.010498536531813443
0.010582324881106615
0.01063872738275677
0.010639577638357878
0.010593067551963032
0.010573821715079248
0.010615995889529585
0.010647699958644808
0.010605337042361497
0.010505274455063045
0.010388461537659169
0.01029618624597788
0.010257494235411287
0.010264183599501849
0.010304107149131596
0.01034291272982955
0.01039049310144037
0.010398827521130442
0.010403658044524491
0.01040131201967597
0.01034228716045618
0.010260783522389828
0.010241477745585143
0.010286080306395889
0.01034280567895621
0.010381713486276567
0.010371979102492332
0.01029002393130213
0.010175006063655019
0.010087710046209395
0.010036409930326045
0.010012317220680416
0.01002140533644706
0.010030448832549155
0.010007302528247237
0.01000841191969812
0.010028010234236717
0.010090602044947446
0.010139940530061722
0.010147175216116012
0.010119274826720356
0.010090181804262102
0.010084783639758826
0.010107408720068633
0.010148080931976437
0.010178272533230483
0.010168839581310748
0.01012962473090738
0.010097753405570984
0.010081093250773847
0.010057032266631722
0.010029637943953276
0.010025694309733808
0.010036281952634453
0.010030637853778899
0.010015509454533458
0.010019073621369898
0.010031267069280148
0.010026282444596291
0.010025940574705601
0.010057085268199444
0.010080804289318622
0.01005296565592289
0.010010721362195909
0.010018037729896605
0.010057136416435242
0.010052623925730586
0.00998326889704913
0.009903180869296193
0.009869652171619236
0.009894438148476183
0.00994500216562301
0.0099592824280262
0.009900936023332179
0.009831427563913166
0.009849220793694258
0.009912052592262625
0.009937779805622994
0.009908401845023037
0.009930588863790035
0.010014013280160725
0.010073970998637377
0.010097705177031457
0.010137423458509147
0.010178341013379395
0.010152962510474026
0.010054948623292148
0.009948509139940142
0.009897199785336852
0.009898159205913543
0.009881625608541071
0.009808794897980987
0.009725622595287859
0.009686074363999068
0.009690304421819746
0.009721760675311088
0.009780903696082532
0.009849953469820321
0.009873580620624125
0.009824065621942282
0.009742984604090453
0.009689589380286634
0.00968960992526263
0.009725500349886715
0.00975458807311952
0.009744125404395163
0.009691582839004696
0.009616779354400933
0.009550875513814389
0.009535710797645152
0.009581704130396248
0.009634001879021525
0.009642320019192994
0.009615395092405379
0.009570247777737677
0.009526305655017496
0.00948710912372917
0.0095031792903319
0.009560012030415238
0.009639251800253988
0.009728271877393127
0.009783618096262216
0.009787571639753878
0.009777301219291984
0.009769600783474743
0.009745041821151972
0.009713665531016887
0.009702390236780047
0.0096893071802333
0.009647131590172648
0.009604947515763343
0.00958642794750631
0.009576532081700862
0.009585120910778643
0.009618221963755787
0.009623218988999725
0.009617830966599286
0.009597468851134182
0.009595161522738635
0.009630852388218045
0.00967536702286452
0.009687222526408731
0.00966959644574672
0.009648984703235329
0.00963662817608565
0.009633535193279386
0.00963530408218503
0.009616811131127178
0.009555001519620418
0.009476107801310718
0.009431427232921124
0.00942349437624216
0.009425338855944574
0.009442407190799713
0.009473619963973761
0.009500641711056232
0.0095557114854455
0.00967367436271161
0.009802332995459438
0.009872831511311233
0.009901406452991068
0.009928798344917595
0.009925131388008594
0.009864408713765442
0.009809650955721736
0.009812590116634965
0.009828729196451605
0.009801233992911875
0.00974148778244853
0.00968379957601428
0.009621706241741777
0.009542612018994987
0.009476933302357793
0.009456023103557526
0.009458378278650344
0.009454932711087168
0.009486334519460798
0.009600298004224897
0.009731606366112828
0.009779227450489997
0.009766770778223872
0.009785069325007499
0.009827766749076546
0.009818736417219042
0.009752690410241485
0.009693135102279484
0.009672933104448021
0.009673670162446796
0.009667350905947386
0.009648559377528726
0.009638211503624917
0.009655767972581088
0.009701850479468704
0.009759623236022889
0.009805642007850111
0.009831052399240434
0.009835810689255596
0.009828514074906708
0.009834627197124064
0.009860912044532598
0.009889342719689012
0.00989982195198536
0.009874594961293042
0.009829382291063666
0.009800895727239549
0.009786362792365253
0.00975573917850852
0.009704421749338507
0.00966556089464575
0.00966790505219251
0.009693348044529558
0.009703785190358758
0.009691241928376258
0.00968896578066051
0.009740867163054645
0.009827157342806458
0.009920634385198355
0.009971832712180913
0.00999944616574794
0.010022471523843706
0.010038439226336777
0.01004412239883095
0.010041503561660647
0.010034061740152539
0.010026906286366283
0.010010258150286973
0.009960520761087537
0.009894581846892833
0.00986476213671267
0.009867370263673365
0.009846787783317268
0.009806208801455796
0.00980445743072778
0.009846412437036633
0.00989864910952747
0.009965412234887481
0.010051801213994621
0.01012911152560264
0.010177241950295866
0.010203133109025658
0.010211482644081116
0.010195017266087235
0.010160586340352893
0.01011967245489359
0.010052236947230994
0.00995046857278794
0.009864521007984876
0.009832217218354344
0.00983711909968406
0.009862745916470884
0.009889439106918871
0.009873502613045275
0.009812980820424855
0.009763770382851361
0.009764168532565237
0.009791792617179454
0.009791543558239937
0.009751871144399047
0.009725948409177364
0.0097430914407596
0.009759310190565884
0.009742708345875144
0.00973854964133352
0.009771442068740725
0.009772655540145933
0.009696882730349899
0.009617556091398001
0.009625328960828483
0.009686493454501033
0.00971243851352483
0.009726018640212714
0.009790341551415623
0.009866326851770281
0.009902523043565451
0.009930327720940112
0.009969559954479337
0.009973847772926092
0.009937064405530691
0.00994014402385801
0.010028728027828037
0.010125096342526375
0.010130059835501016
0.010064116632565855
0.01002365835942328
0.010039343568496405
0.010064028138294816
0.010066389492712914
0.010065661361441016
0.010070029371418059
0.010051284609362483
0.010012709316797555
0.009996707532554865
0.010013911044225096
0.0100509526534006
0.01010197973344475
0.01014301750343293
0.010165230124257504
0.010210838480852545
0.010304515492171049
0.010416599549353122
0.01050211489200592
0.010510304416529835
0.010373974554240703
0.010441428064368666
0.010572176943533122
0.010526482756249607
0.010562310172244906
0.010736880488693715
0.011039764122106135
0.011425061393529177
0.011696312734857202
0.011719852439127862
0.011708614602684974
0.011697085732594132
0.0116883296193555
0.011652992917224764
0.01161155276466161
0.011589216641150415
0.011555480533279478
0.011513738022185862
0.011515536145307124
0.011562250703573227
0.011591414329595864
0.01156427821610123
0.011490541286766529
0.011406970005482435
0.011357185011729599
0.011332167699001729
0.011282718633301556
0.01121378923766315
0.011171481255441904
0.011137535511516035
0.011082562101073563
0.011000909125432373
0.010962625253014266
0.011002534353174269
0.011020252453163267
0.010979489665478468
0.01094719763379544
0.010978941689245403
0.011070868000388145
0.011184521010145545
0.011275744726881386
0.011343348962254822
0.011414835844188929
0.011464926078915597
0.011439967956393958
0.011362608391791582
0.011297689545899629
0.01124316232278943
0.011183141577057541
0.011160276653245092
0.011184312072582542
0.011200452060438692
0.01118594320025295
0.01117249092552811
0.01119403122458607
0.011250740424729884
0.0113051027758047
0.011332100369036197
0.011366848964244128
0.011448304178193211
0.011541475667618215
0.011575017515569925
0.011539940792135894
0.011503978725522756
0.011504085147753357
0.011501075807027519
0.011483728750608862
0.011475914632901549
0.011446125525981187
0.011374091696925461
0.011325870249420405
0.011337286122143268
0.011342930365353823
0.01130787179339677
0.011287098862230777
0.01128431868273765
0.011226456994190812
0.011114635653793812
0.011031805397942662
0.011017664703540504
0.011040661595761775
0.011049868403933943
0.011024543736129998
0.010987883717752993
0.010956489481031895
0.010911357887089253
0.010847721621394158
0.010788883976638318
0.010742316264659166
0.010708532542921603
0.010689289895817638
0.010662242444232107
0.010630012205801904
0.010643685045652091
0.010705365394242107
0.01073831073474139
0.010704546924680472
0.010665174252353608
0.010674587939865888
0.010732719623483718
0.010882325014099479
0.010811341623775662
0.010694826212711632
0.010757582187652588
0.010705567123368382
0.010489184255711735
0.010148052913136781
0.00972033872269094
0.009387292796745897
0.00931674410123378
0.009339596843346953
0.00939896481577307
0.009445660673081875
0.009511498413048684
0.009580578468739987
0.009603199986740947
0.009621197655797005
0.009668425642885267
0.009694090960547328
0.009684099969454109
0.009690803587436675
0.009727494628168642
0.009777463837526739
0.009839153015054763
0.009886844670400024
0.00988628606311977
0.009866648390889167
0.0098929499136284
0.00996238796506077
0.010016122665256262
0.010017902655526996
0.010033258609473706
0.010062496708706022
0.010044530653394758
0.010038301767781376
0.010091514368541539
0.01014727977104485
0.010145894451998174
0.010101097794249654
0.010041020442731679
0.009967045271769165
0.009865873027592897
0.009758957554586232
0.009713158658705652
0.009740664772689343
0.009768932969309389
0.009758883030153811
0.00974448660388589
0.009753139074891806
0.009782344065606595
0.009822303620167077
0.009862030115909875
0.009910907996818423
0.009987853355705739
0.010058457567356526
0.01006727822124958
0.01004790130071342
0.010055275182239712
0.010041775703430176
0.009972594445571303
0.009917515637353063
0.009920669002458454
0.00993715085554868
0.009914597044698895
0.009862659648060799
0.009834769084118306
0.009845746536739171
0.00985847955569625
0.009855077005922794
0.00986305492464453
0.009902988923713565
0.00995249823667109
0.009994145976379513
0.010043191947042942
0.010101078092120588
0.010152919511310756
0.010202691415324807
0.010255482280626893
0.010297477156855165
0.010314239845611155
0.010298504354432225
0.010257277898490428
0.01021926008630544
0.010205647516995668
0.010203551817685366
0.010175722762942313
0.010160152344033122
0.010141733237542212
0.010156462946906687
0.01017022504005581
0.010146019840613007
0.01015186679083854
0.010200207773596048
0.010216458565555513
0.01019921391736716
0.010228138733655214
0.010316611155867577
0.010374592021107673
0.010350345280021428
0.01030574159231037
0.010300280130468308
0.010314781279303133
0.010295891435816884
0.010222085705026984
0.01014424247201532
0.010121837435290217
0.010133881056681275
0.010128754414618015
0.010108463503420352
0.010094849281013013
0.010085591403767467
0.010080593656748533
0.010085379481315613
0.010103675634600223
0.010149377500638365
0.01021989732980728
0.01028079085983336
0.010314322463236748
0.010337767954915762
0.010355500746518373
0.010350048560649156
0.010322183156386017
0.010289323180913926
0.010256084650754928
0.010223771925084293
0.01020711362361908
0.010199468303471803
0.010162842739373446
0.010106034222990274
0.010094175189733505
0.01014201121404767
0.010210583014413714
0.01028649294283241
0.01035706973168999
0.010387462172657251
0.010378742380999029
0.010365954567678273
0.010361185148358345
0.010356677304953337
0.01034925428684801
0.01033985662739724
0.010340647199191153
0.01035537512972951
0.010350870657712221
0.01031362215988338
0.01029041534755379
0.010301549988798796
0.010308204502798617
0.010295892967842519
0.010286854966543614
0.010296097258105874
0.010326453987509011
0.010362717951647938
0.010378154758363962
0.01038249557837844
0.010414479929022492
0.01045367912389338
0.010444211126305163
0.010415876717306673
0.010423432267270983
0.010428150780498982
0.010397440940141677
0.010392552041448653
0.010448235557414592
0.010501541253179312
0.01049406771082431
0.010439363485202193
0.010386548107489943
0.010371629600413143
0.010374043826013804
0.010346064851619303
0.01030334368813783
0.010291673881001771
0.010287494198419154
0.010249011861160397
0.01021286076400429
0.010234031272120773
0.010287845274433494
0.010303180278278888
0.010256815082393587
0.01019714295398444
0.010173289598897099
0.010177538678981364
0.010182057078927755
0.010188942733220756
0.010221539218910038
0.010234974068589508
0.010262706675566733
0.010279675466008484
0.010296799782663584
0.010333631737157702
0.010335990493185818
0.01030374813824892
0.010295739970169962
0.0103015813883394
0.01027922405861318
0.010246539958752693
0.010229118415154517
0.010209423960186542
0.010182704040780664
0.010180843323469161
0.01020059454254806
0.010203917706385256
0.010198752745054662
0.010207117078825831
0.010206492389552296
0.010188557067885995
0.01019773272331804
0.010258502890355885
0.01031723590567708
0.010317066181451083
0.010281722578220069
0.010251947971992194
0.010221268543973564
0.010190489748492838
0.01019034610595554
0.010243936339393259
0.010354974535293876
0.010473458818159998
0.010501085706055164
0.010409660884179175
0.01030761439818889
0.010243581207469106
0.010231780395843089
0.01023080918006599
0.010245371181517839
0.010291582839563489
0.010349448113702238
0.010392004242166877
0.010413925205357373
0.010416760137304663
0.010382301700301468
0.010303484690375626
0.010234794085845352
0.01022641652263701
0.01025198963470757
0.010266915154643357
0.010256759631447494
0.010217806422151626
0.0101675070123747
0.010148905590176583
0.010175502612255513
0.010210137320682407
0.010221353517845273
0.010215068156830966
0.010204757312312723
0.010197330280207098
0.010200738343410194
0.010225169267505408
0.010272037377581
0.010307403379119933
0.010291333147324621
0.010236745928414165
0.010186173394322396
0.010163976037874818
0.010169030549004674
0.010186043931171299
0.010210561952553689
0.010238513760268688
0.010235675335861743
0.010189671856351197
0.010151016139425338
0.010140584483742714
0.010103424000553786
0.01002996388822794
0.010009894575923682
0.010009586182422935
0.010039386255666614
0.010043576452881097
0.010023915101774037
0.010026334207504988
0.010077983736991883
0.010163363125175238
0.010244281380437315
0.010285593760199845
0.010276699140667915
0.010241770525462926
0.010214244462549687
0.01022175256628543
0.010281623490154743
0.010363722033798695
0.01041883073747158
0.01043021569494158
0.01038506235461682
0.010296937823295594
0.01024166950955987
0.01025707040913403
0.010282946401275694
0.010265494571067393
0.010223383815027774
0.010199927496723831
0.010211691870354115
0.01023372370749712
0.010245111896656453
0.010263025276362896
0.010277428012341262
0.010241042235866188
0.010172229250892997
0.010147467046044767
0.010171429812908172
0.010162634965963662
0.010083702048286796
0.009999834257178009
0.009974791966378689
0.0099850629363209
0.009986183531582355
0.009977824790403246
0.009956395486369729
0.009915817086584866
0.009901215331628918
0.009946067593991756
0.010006353780627251
0.010039100362919271
0.010059275096282363
0.010082598952576518
0.01009580448269844
0.010063771344721317
0.009953086995519698
0.009815623732283712
0.009772803224623204
0.00985485517885536
0.009928887216374279
0.009924800614826382
0.009860443146899343
0.00984720469918102
0.00988544549793005
0.009899653857573867
0.009886987344361841
0.00988148652948439
0.009877616479061544
0.009869398763403297
0.009877099762670696
0.009898764286190272
0.009888072260655462
0.009827759764157236
0.009780512605793774
0.009813183997757734
0.009905865122564137
0.009981960793957113
0.010014994689263403
0.010034713498316705
0.01002832975704223
0.009959459230303764
0.009879954140633345
0.009875316424295306
0.009920431752689182
0.009935950967483223
0.009932585684582591
0.009946817541494965
0.009951166883111
0.0099419318838045
0.009952409318648279
0.009964601323008537
0.009932880220003427
0.009850779580883682
0.009752984661608934
0.009681863365694881
0.0096456731390208
0.009612660617567598
0.009564172402024269
0.009522058730944992
0.009496967019513249
0.009477092009037734
0.00951107410248369
0.009656398482620716
0.009816106734797358
0.009927314096130431
0.009910072376951575
0.009875495084561408
0.00996502332855016
0.010054961210116745
0.009964505052194
0.009943670164793729
0.01009213509503752
0.010374512732960283
0.010637178905308247
0.010761232418008148
0.010776858804747462
0.010750516760163009
0.010697025693953038
0.010636683339253068
0.010594522953033448
0.010560185867361724
0.010534156006760895
0.010536834518425166
0.01055522915441543
0.010556823979131878
0.010539311873726547
0.010531730549409986
0.01055080758407712
0.01056694531813264
0.010545684746466577
0.010515804258175195
0.010520790638402104
0.010534291425719856
0.01053203843999654
0.010564732174389064
0.01065305145457387
0.010716116754338145
0.01068704689387232
0.010620297472923994
0.01061233286280185
0.01067105593625456
0.01073925911448896
0.010798533433116972
0.010865211612544954
0.010924129523336887
0.010952699636109174
0.010963451657444239
0.010961094228550792
0.010928003364242614
0.010883027357049286
0.010873423502780498
0.010899791684933007
0.010910766934975981
0.010874521979130804
0.010832013618201018
0.010835972651839255
0.010846650414168834
0.010792178297415377
0.010696699162945151
0.010638804524205625
0.010644345511682331
0.010673742857761681
0.010678491555154324
0.010657333596609532
0.01063199591357261
0.010618907543830573
0.010643806224688888
0.010696164621040226
0.010729476790875197
0.010738738630898297
0.010757455714046954
0.010812586355023086
0.010898019094020129
0.010954792127013207
0.01092096580658108
0.010822565625421703
0.010757986633107066
0.010772909200750292
0.01082029118668288
0.010865791528485715
0.01092144099995494
0.010967507162131369
0.010968679627403617
0.010953083485364914
0.010969545454718172
0.010995986079797149
0.010985631439834833
0.010949453278444708
0.01092116707470268
0.010909019061364234
0.010909786811098457
0.010928924852050841
0.010962431370280683
0.010981792598031462
0.010975328078493475
0.010962938517332077
0.010961331129074096
0.010990215730853379
0.011060596513561904
0.011123774610459804
0.011115469406358897
0.011032653274014592
0.01092192498035729
0.010831871726550162
0.010779217006638647
0.010780965657904745
0.010815476831048727
0.010762672899290919
0.010682920748367906
0.010723309707827866
0.010674894307740032
0.01050414718221873
0.010257138698361814
0.010036666253581643
0.009917921223677694
0.009872874151915312
0.009871483650058507
0.009914348316378892
0.009945272807963193
0.00991693404968828
0.009883147673681378
0.009906780025921762
0.009971526679582893
0.010018176380544901
0.01002120717894286
0.010015818681567907
0.010025880481116474
0.010027854503132403
0.010021070949733257
0.010025897668674589
0.010019340352155268
0.009987133545801044
0.009983389177359641
0.010026084766723216
0.010028918995521963
0.009950581253506244
0.00988250516820699
0.00989000977948308
0.009922298844903707
0.009936241800896823
0.009948243200778962
0.009955999292433262
0.009931417861953378
0.009887607768177986
0.009882331588305532
0.009919770094566047
0.009927587890997529
0.009892592588439584
0.009888145253062247
0.009933983101509511
0.00996738437563181
0.009954179171472788
0.00992917776107788
0.009908289941959083
0.009841251159086824
0.0097165765799582
0.009628573316149414
0.009654065310023725
0.00974078467581421
0.009800133160315454
0.009827722762711346
0.009857207601889968
0.009883116427809
0.009887920622713865
0.00988902922719717
0.0098952011205256
0.009866873384453356
0.009809529362246393
0.00980599267873913
0.009877991694957018
0.00993949214462191
0.00992982163093984
0.009887665649875999
0.009869872163981198
0.00988345657940954
0.00990853323135525
0.009928231406956912
0.00993059728294611
0.009905975386500359
0.009850899768061937
0.009779170718975366
0.009728745142929256
0.009709788230247795
0.00972156485542655
0.009744433010928333
0.009763166210614144
0.00977927033789456
0.009796259668655693
0.009802332972176373
0.00980454532429576
0.009834158653393387
0.009891745722852648
0.00995437623001635
0.010015444527380169
0.010062682195566594
0.01008905625436455
0.010117398793809115
0.01013640417251736
0.010104995560832322
0.010050836722366513
0.010040167141705752
0.010071773082017899
0.010093157263472676
0.010077394153922796
0.010035549532622099
0.010005323095247149
0.010031894156709313
0.010106517313979567
0.010163733246736228
0.010168297146447004
0.010140613722614943
0.010111886430531741
0.010104233375750482
0.010116255222819746
0.010128015228547156
0.010124501925893127
0.010087360078468919
0.01002675345633179
0.010005552172660827
0.010047336211428046
0.01010301015805453
0.010139707406051458
0.010162078230641781
0.010176807744428515
0.010189180057495832
0.010200822656042875
0.010228383829817176
0.010293786609545351
0.010352912056259812
0.010344828199595212
0.010296871000900865
0.01025059464853257
0.010183640192262828
0.010094743762165308
0.01005003513302654
0.01007534191943705
0.010094992737285792
0.010059224795550109
0.01002218624111265
0.010032031727023423
0.010071986392140388
0.0101137037249282
0.010144583233632147
0.010160456332378089
0.010153610045090317
0.010135466097854078
0.01014334995765239
0.010168079682625831
0.010164200323633849
0.010137536791153251
0.010112018906511366
0.010083338618278504
0.010068797329440713
0.010110771250911057
0.010216428558342159
0.01032765164040029
0.010358176580630242
0.010290089496411383
0.010201572449877858
0.010155132133513689
0.010137464604340493
0.010128887156024575
0.01013588931877166
0.010171235078014434
0.010225980682298541
0.010258612325415015
0.010263937022536994
0.01027313835453242
0.010266457791440189
0.010219580461271107
0.01017928848043084
0.010195951885543763
0.010250362125225366
0.01029471166897565
0.01030985191464424
0.010284562055021524
0.010203292709775269
0.010088580665178598
0.00999795446638018
0.009966672682203352
0.009990297541953623
0.01003726608119905
0.01007912368979305
0.010076655950397253
0.010035504740662872
0.009984344830736519
0.009942444805055857
0.009935371745377779
0.009967470886185765
0.009984058956615628
0.009963124198839069
0.009950152570381761
0.009951296700164676
0.009925932455807925
0.009873141800053418
0.009818735257722437
0.009771058652549982
0.009761219006031751
0.009816694683395326
0.0098776870733127
0.009877762710675596
0.009848856274038554
0.009842235394753516
0.009866090924479067
0.009932405767031013
0.010015974431298673
0.010037331879138946
0.010002130875363946
0.009997447323985397
0.010028366204351187
0.010035961144603789
0.010009566801600159
0.009968562559224665
0.009927303972654044
0.009894797536544502
0.009866192853078246
0.009847808247432113
0.009858500570990145
0.009899330893531441
0.009956359462812543
0.010002492065541446
0.010016528274863958
0.010009974790737033
0.01000663122162223
0.01002547211945057
0.010071333781816065
0.010108567234128714
0.010097631057724356
0.010077870939858258
0.010114064952358604
0.010180894983932376
0.010222582267597318
0.010245138369500638
0.010264993500895799
0.010265606585890055
0.010240093450993299
0.010212910789996386
0.010207789321430027
0.01022059132810682
0.010222278111614287
0.010182004179805517
0.01010365955065936
0.010035613211803138
0.010012371954508126
0.010017318222671746
0.010033969464711846
0.010072364667430521
0.01013896673452109
0.010212883208878339
0.010253384197130799
0.01026533012278378
0.010295133525505661
0.010321602667681872
0.010281666284427046
0.01019635773729533
0.010144938081502915
0.010149270016700029
0.01016895511187613
0.010185896479524672
0.010216977279633284
0.010247493269853294
0.01024213360156864
0.010213044825941325
0.010187285370193422
0.010159655348397792
0.010141993914730847
0.010170114189386369
0.010231364010833204
0.010255338568240404
0.010207409197464585
0.010147768943570555
0.010131557611748577
0.010117321223951876
0.010057256617583334
0.009994910801760853
0.010007771397940814
0.010098766647279262
0.010187998469918967
0.010217077075503766
0.010222208020277321
0.010251511712558567
0.01027320749592036
0.010257403319701552
0.010250169835053384
0.010282479515299201
0.010327726355753838
0.010368686649017037
0.010387355154380202
0.01035853105597198
0.010310091208666564
0.010272297048941255
0.010229140669107437
0.010184248266741634
0.01015669297426939
0.010140952239744365
0.010136140426620841
0.010153511380776763
0.010176465222612023
0.010168068590573967
0.01014989409595728
0.010187641941010952
0.010267266035079957
0.010319914650171996
0.010334449871443212
0.010321215391159058
0.01028014883864671
0.010242865956388413
0.010224248976446687
0.010190947121009231
0.010135625987313688
0.010086112348362803
0.010052165277302265
0.010023905858397485
0.00998627495020628
0.009938009651377797
0.009897132404148579
0.009869001130573452
0.009848910975269973
0.009829855104908348
0.009801258668303489
0.009773960369639099
0.009756853790022432
0.009740182021632791
0.009739532019011676
0.009778053411282598
0.009822791069746017
0.009820886803790927
0.009794243164360523
0.009809959726408125
0.009866488189436496
0.009903216250240803
0.009896174492314457
0.0098645278532058
0.009836619566194714
0.009832350783981383
0.009827818050980567
0.009796870253048838
0.009767817086540162
0.009770856346003711
0.009807595051825047
0.00986939797643572
0.009933965327218176
0.009972302047535776
0.009980140351690352
0.009994321623817087
0.010029671438969672
0.01004357282537967
0.010023269760422409
0.010013504982925952
0.01002495559398085
0.010005761431530117
0.009932137080468237
0.009860516358166933
0.009851989434100688
0.009891479630023242
0.009920680685900152
0.009924604487605394
0.009934953674674033
0.009966661222279072
0.010004352973774076
0.010030800797976554
0.01003980371169746
0.01003186296671629
0.01001324836164713
0.01001037996262312
0.010042554121464492
0.010071903648786247
0.010062509588897229
0.010049833245575427
0.010062548452988268
0.01006411521229893
0.010022880756296218
0.009961500819772482
0.009924182672984899
0.009926290516741574
0.009937828644178808
0.00991862147115171
0.009877884131856262
0.009859308428131043
0.009862498762086034
0.009867792036384344
0.009885414028540254
0.0098972058435902
0.009876540969125927
0.009859576262533665
0.00986927233170718
0.009866073396988213
0.009846564056351781
0.009864640617743135
0.00992372506763786
0.009971394003368914
0.009991677505895495
0.010010053873993457
0.010045379186049103
0.010092400857247412
0.010124398162588477
0.010101318508386612
0.010008404818363488
0.009909141981042922
0.009885926418937742
0.00992753824684769
0.009957939353771508
0.00993067276198417
0.009872838049195707
0.009867454124614596
0.009935847949236631
0.009990412960760295
0.009975627707317471
0.00994918323121965
0.009984134426340462
0.010068110944703222
0.010127143557183445
0.010133396871387958
0.010140398018993437
0.010191074553877116
0.010274090231396258
0.010361583116464316
0.010418650042265654
0.010445964690297842
0.01048709213733673
0.010537873669527471
0.010557229002006351
0.010547632719390094
0.010515664760023356
0.010431642374023796
0.010329192718490959
0.010304138469509781
0.010334548051469028
0.010309474254027009
0.010241265827789902
0.010218135598115623
0.01021557439584285
0.0101676265290007
0.010106122153811157
0.010079949777573347
0.010080233761109413
0.010090380106121302
0.01010201555211097
0.010097264619544149
0.010059724259190262
0.010008775633759797
0.009990652780979872
0.010009752619080246
0.010028351861983538
0.01003311898559332
0.010031766407191754
0.01001396388746798
0.009982044780626894
0.009978765184059738
0.01003258630167693
0.010105434823781251
0.010123695358633994
0.010069467318244279
0.01000309109222144
0.009972184486687184
0.009971177950501443
0.009978820197284221
0.009966251384466886
0.009916494064964355
0.009856507326476275
0.009820748288184404
0.00980696791317314
0.009808871503919363
0.009839078062213957
0.009879026138223708
0.00989398643374443
0.009902301994152367
0.009933348544873297
0.009976337971165776
0.010010869428515434
0.010024804119020701
0.010029079229570925
0.010059012924320996
0.01011265375651419
0.010122476001270116
0.01006058432161808
0.010020791837014258
0.010078028528951108
0.010165119180455803
0.010196456690318883
0.01017269707750529
0.010144115532748401
0.01017318561207503
0.010268870173022152
0.010351620591245591
0.010363485999405384
0.010344782089814543
0.010345234610140324
0.010353740006685257
0.010353804538026453
0.010349104986526072
0.01031847991514951
0.010246112179011106
0.010168119436129927
0.01011860883794725
0.010106555907987059
0.01014049454126507
0.010198906464502215
0.010242616385221481
0.010264525720849633
0.010270784632302821
0.010271051242016256
0.010294899106957018
0.010350091666914522
0.010388701115734875
0.010377238364890217
0.010358701599761844
0.0103791682748124
0.010412509823217987
0.010411242372356355
0.010378601038828492
0.010359519552439451
0.010386069123633206
0.01044445755891502
0.010487757716327905
0.010478399093262852
0.01042167777195573
0.010347931911237538
0.010263948361389339
0.010170403714291752
0.010103794233873486
0.0100841183681041
0.01007893705740571
0.010078313504345715
0.010116443452425301
0.01018052493687719
0.010213564462028445
0.010217493372038007
0.010231852219440042
0.010249986657872795
0.01024281888268888
0.010222548656165599
0.010224467827938497
0.010235099694691599
0.010211850060150027
0.010161939268000424
0.010124813080765308
0.01011816379148513
0.01014319342095405
0.010181424100883305
0.010189124816097319
0.010161487814038993
0.01015775437001139
0.01019675426185131
0.010207239827141166
0.010164900440722704
0.010155530753545463
0.010202978421002627
0.010213317447341979
0.010148887992836536
0.01008269912097603
0.010090960022062063
0.010172927300445736
0.010259337406605482
0.010299061494879424
0.010298412484116852
0.010293343337252736
0.010336499172262847
0.010436373436823488
0.010524730877950788
0.010564436190761625
0.010590715240687132
0.010610481388866902
0.01060257271397859
0.010593787021934985
0.010605413946323097
0.010601283451542258
0.010555224460549652
0.010497373091056942
0.010487250820733606
0.010539461900480092
0.010584788019768894
0.010562153994105756
0.01050318359863013
0.01048101142514497
0.010507583785802126
0.01050948841497302
0.010428449492901564
0.010306867570616305
0.010235658367164432
0.010248153498396277
0.010293409531004726
0.010304859769530595
0.010262055341154337
0.010204435130581259
0.010180162913165987
0.01016564354300499
0.010122533687390387
0.010086766644380987
0.010092934262938797
0.010114758261479437
0.010129016763530672
0.010141595713794232
0.010161251812241971
0.010174027513712644
0.010132836666889489
0.010030088750645517
0.00993354049976915
0.009886274673044681
0.009867407069541513
0.00984769564587623
0.009816126162186266
0.00978696211706847
0.009757918887771666
0.009692861563526094
0.009607611424289644
0.00955809664912522
0.009559380854479969
0.009602645225822926
0.009653431829065084
0.00965049623977393
0.009585784333758056
0.009512829859741032
0.00946147199254483
0.009418052854016423
0.009382200352847576
0.009384316299110651
0.009447361589409412
0.009553504996001721
0.009641797761432827
0.009667519261129201
0.009659360079094768
0.009663947257213295
0.009683551113121212
0.009706075093708933
0.009730880833230912
0.009751245463266969
0.00975000265520066
0.009728375258855521
0.009722329592332244
0.009758928283117712
0.009807100179605186
0.009813403058797122
0.009784571500495077
0.009786197915673256
0.009844072060659528
0.009907134678214788
0.009930240740068257
0.009915029276162385
0.00987614406272769
0.00983575189486146
0.009815225834026933
0.009812711360864342
0.009819085905328394
0.00984314099419862
0.009890205916017294
0.009933745884336532
0.009949862905777991
0.009940857780165971
0.009917539423331618
0.009907899652607738
0.009919637367129325
0.009904288365505635
0.009840456070378423
0.009766904325224458
0.009720933241769671
0.009714038167148829
0.009723056643269955
0.009710378525778652
0.009676965270191431
0.00965139688923955
0.00964282287284732
0.009645761833526193
0.009657247802242636
0.009680563751608133
0.009723353837616742
0.009770265142433345
0.00980500810779631
0.009838243131525815
0.009852244104258716
0.009809919758699834
0.009728808607906102
0.009665009952150284
0.00964571984950453
0.009642055360600352
0.009621792663820088
0.009612225154414773
0.009659040356054902
0.009747372115962208
0.009793123467825354
0.00973877081181854
0.009646533387713135
0.009612751151435077
0.009642519052140414
0.009687216295860708
0.00973177381325513
0.009800830166786909
0.009898910131305456
0.009975500409491361
0.009989108005538583
0.009966667140834034
0.009958827858790755
0.009977960884571075
0.009997035162523388
0.010001364680938422
0.010026297066360712
0.010109840608201921
0.010225136457011104
0.010295962844975293
0.010286456374451518
0.010251369085162878
0.01025310276541859
0.010272585833445192
0.010278532980009913
0.010302449422888459
0.010364285022951662
0.010430604303255677
0.010473703807219863
0.010476172626949847
0.010431508058682084
0.01039222267922014
0.0104149911692366
0.010463433815166354
0.010469975927844644
0.010440503098070621
0.010410670726560056
0.01036823813803494
0.010289557022042572
0.010210932670161129
0.010189651614055037
0.010214039492420852
0.010239706365391612
0.010257800472900272
0.010261367643252015
0.010237571629695595
0.010204434324987233
0.010189709668047726
0.010204071244224906
0.01024503726977855
0.010271017425693571
0.010226166155189276
0.010150669026188552
0.010142223411239683
0.010189050673507154
0.01018812987022102
0.010110893594101071
0.010038091349415482
0.010035238862037658
0.01007674050051719
0.010116885863244534
0.0101557640125975
0.010200472362339497
0.010230006529018282
0.010229389015585184
0.010204989681951701
0.01016653792001307
0.010142481857910753
0.010153332594782113
0.01015290655195713
0.010094570755027234
0.01001825681887567
0.009992873175069689
0.010019812057726086
0.010036172741092742
0.010006408165208995
0.009965793038718402
0.0099494737572968
0.009943898185156286
0.00993742922320962
0.009953676844015718
0.010001475787721575
0.010051519330590963
0.010084574217908085
0.010094928164035082
0.01006258579902351
0.009994384231977165
0.009942074990831315
0.009923654920421542
0.009907364412210882
0.009894999600946903
0.009916433207690716
0.009958894592709839
0.009981590071693063
0.009962780652567744
0.009918304216116667
0.009899116829037666
0.009933180403895675
0.009975452753715218
0.009978862549178302
0.009979868615046144
0.010026387902908027
0.010083621558733285
0.010106236874125898
0.010110357641242445
0.010107462569139898
0.010082539934664965
0.010047620660625398
0.010012879152782261
0.009956766138784587
0.009885540376417338
0.009850741154514253
0.009872457049787044
0.009890746539458633
0.00985323046799749
0.0098108297213912
0.009815424648113549
0.00980325936805457
0.009716168949380518
0.009618162447586655
0.009580095172859729
0.009579231087118388
0.009581259214319288
0.009604619648307562
0.009662706195376814
0.009718486303463579
0.009732247218489648
0.009713666755706072
0.009694827324710786
0.00970150001347065
0.009745947918854653
0.009792914069257676
0.009799707401543855
0.009798086751252412
0.00983120605815202
0.009863756890408694
0.009855682598426938
0.00985280677676201
0.009908114643767476
0.009967425270006061
0.009953813240863384
0.009896487090736627
0.00985727104358375
0.009847166310064494
0.009874322861433029
0.009946353058330715
0.010021785059943795
0.010051794368773698
0.010039820056408643
0.01000411377288401
0.009967693486250937
0.009983391612768172
0.010033356905914843
0.01001302941236645
0.009919009036384523
0.009868427314795553
0.0099194758804515
0.010007932293228805
0.010037882807664574
0.00999673483427614
0.009947290574200452
0.009924039803445339
0.009916239310987294
0.00992023955564946
0.009942618571221829
0.00997407121118158
0.009994917619042098
0.009987499476410448
0.009959730911068618
0.00997198292054236
0.010057847867719828
0.010138582712970674
0.010133307068608701
0.010079532000236213
0.010046809753403068
0.010038200328126549
0.010024863355793058
0.009993427875451743
0.009948280206881464
0.009901152113452555
0.009856325830332935
0.009816317800432444
0.009799581440165638
0.009805561965331435
0.009801451875828206
0.00978752303402871
0.00980235849507153
0.009865881316363812
0.00995837634894997
0.010020218617282807
0.01000273139681667
0.009949940512888134
0.009951194562017918
0.010007914141751825
0.010047337082214653
0.01004345302004367
0.010013092458248139
0.009953960287384689
0.009887042418122292
0.009859119402244687
0.009867277760058642
0.009885014039464296
0.009908321355469525
0.009919710881076753
0.009903606129810213
0.009896053802222013
0.009927776665426791
0.009968240251764656
0.00999628477729857
0.010030929381027818
0.010063259592279793
0.010064140749163926
0.010053114760667085
0.010072083179838955
0.010091715482994914
0.010044239307753743
0.009957536617293953
0.00992199074011296
0.009957465389743448
0.010023792134597897
0.010076390695758164
0.010079914042726158
0.010049228272400797
0.010033284407109022
0.01002595532219857
0.009988379729911685
0.009942151317372918
0.009935763925313949
0.009944421937689185
0.009898242228664457
0.009810972167178989
0.009769273423589766
0.009796162159182132
0.009839817080646754
0.009878413425758481
0.009949622596614062
0.010060086199082434
0.010132818925194442
0.010108236814849078
0.010034608314745128
0.009999976293183863
0.010025741732679307
0.010065933670848608
0.01008530305698514
0.010078391577117145
0.010032324404455721
0.009964742073789239
0.009938108613714575
0.00996641834732145
0.009989876099862158
0.009952008812688292
0.009880554894916713
0.009887434775009751
0.010016921013593673
0.010154629740864039
0.010189540344290435
0.010145728345960378
0.010103609869256616
0.010102222673594952
0.0101228263694793
0.010142356920987368
0.010163695244118571
0.010172987212426961
0.010146188661456107
0.010098234000615776
0.010076976772397757
0.010100839287042617
0.010121931689791381
0.010094416802749038
0.010043240077793598
0.010018109190277756
0.010026997388340533
0.01004825393203646
0.01007755151949823
0.010120149762369692
0.010155901359394193
0.010164082241244614
0.010159229333512486
0.010170717886649073
0.010203959993086755
0.010239903372712434
0.01026348428800702
0.010271105249412358
0.01028378208167851
0.010344773200340569
0.010445669111795723
0.010502035273239016
0.010457526869140565
0.010374500113539398
0.010359282279387117
0.010413476987741888
0.010446304064244032
0.010410275645554065
0.01033792237751186
0.010280708661302923
0.010256961616687477
0.010244873561896383
0.01022913936059922
0.010223693493753672
0.010233442662283779
0.010246346415951848
0.010263943732716142
0.0102936778543517
0.010316111757420003
0.010297380853444338
0.010246753813698889
0.010219402392394841
0.01021700338460505
0.01017730132676661
0.010121444705873728
0.010137263522483408
0.010199451418593526
0.010205816966481507
0.010150121212936937
0.01012476919684559
0.010172880520112813
0.010226359451189637
0.010245438511483372
0.01027507625054568
0.010308007425628603
0.010301823206245899
0.01029679438099265
0.010330583225004375
0.0103617854276672
0.010377110671252012
0.010415275301784276
0.010465421588160098
0.01047177793458104
0.010441390164196492
0.010439919484779238
0.010458040819503366
0.010420783385634423
0.01032628987915814
0.01023135962896049
0.01015649818815291
0.01008252905216068
0.00999918108806014
0.009942651852034032
0.0099555688444525
0.010012451512739062
0.010044153966009616
0.010036963964812457
0.010048114084638656
0.010095586106181144
0.010127986283041537
0.01013907639309764
0.010170939513482153
0.01020058186724782
0.010173602504655719
0.010129480031318963
0.010156159019097687
0.01021974862087518
0.010181055343709887
0.010024269060231746
0.00990222489926964
0.009901800234802067
0.009937977627851069
0.009914484694600106
0.009855754701420664
0.00983308403287083
0.009842122723348438
0.009839268871583045
0.00983173080254346
0.009842763943597675
0.009857566501013935
0.00985497357789427
0.009846885842271148
0.009867889708839356
0.009930711323395371
0.009989441810175777
0.009983770567923784
0.009937041639350355
0.009916013702750207
0.009898667838424444
0.00983637772500515
0.009772236202843487
0.009753724629990756
0.009761556810699403
0.009771132180467247
0.009773262809030712
0.009764478458091617
0.009746158975176514
0.009715488767251373
0.009672353225760162
0.009621746889315545
0.009570334744639695
0.009535407419316471
0.009528932687826454
0.009523587408475578
0.009496960970573128
0.009486945709213615
0.009512012833729386
0.009539553341455757
0.00958432987332344
0.00967492485884577
0.009765743580646812
0.009808508194983006
0.009808700019493698
0.009781188084743916
0.009755273759365081
0.009772799983620644
0.009809227283112705
0.009803487649187446
0.009778642221353948
0.009801373458467424
0.009852251736447215
0.0098579870024696
0.00982662825845182
0.009830032708123326
0.009861831185407937
0.009852458080276847
0.009801417770795524
0.009767443123273552
0.009769646795466541
0.009773826249875129
0.009760574847459793
0.009759003897197544
0.009781512268818914
0.009791031763888895
0.009776270370930434
0.009774254132062198
0.009799803071655334
0.009825924313627183
0.009813414914533495
0.00974452297668904
0.009673542841337621
0.009675717218779028
0.009736053803935647
0.009792220299132168
0.00982673657592386
0.009854780724272132
0.009891035640612245
0.009938104953616857
0.009979348415508866
0.009989010281860828
0.00997300465591252
0.009979775985702872
0.010016932799480856
0.010032688593491912
0.010032116794027388
0.010070156254805625
0.010123498043976725
0.010125532248057425
0.01008610739838332
0.010055612032301724
0.01003296950366348
0.009998049177229405
0.009981951341032982
0.010019452874548734
0.010061907786875964
0.010036047301255166
0.009976471476256847
0.009982599467039109
0.010054978467524052
0.01011561406776309
0.01015112766996026
0.01019898454658687
0.01026173897087574
0.010309187495149672
0.010315179922617972
0.010286668529734016
0.01026730224955827
0.010287697897292674
0.010323737571015955
0.010338192284107208
0.010331914457492531
0.01032755354885012
0.010326570449396968
0.010298561695963144
0.010244082300923765
0.01022707648575306
0.010267122955992818
0.010298898834735155
0.010308968527242541
0.010350574404001237
0.010407115039415658
0.010418951283209027
0.010393638764508068
0.010357365598902107
0.010292575880885124
0.010207043560221792
0.010166469272226095
0.010201141978614032
0.010257217064499856
0.010277111059986055
0.010263660233467817
0.010243939752690494
0.010231925644911826
0.010237521245144307
0.010255380254238843
0.010259900847449899
0.010257521849125624
0.01027195601258427
0.01026616180781275
0.010201412891037763
0.010129919843748211
0.01011743413284421
0.01015833966434002
0.010210277354344726
0.010225538159720599
0.01018592725507915
0.01014087752904743
0.010125780864618718
0.010108913076110185
0.01009182024281472
0.010120147527195512
0.010189805356785655
0.010263148387894034
0.01030686313752085
0.010290619046427309
0.010237192772328853
0.01021366158965975
0.010235584503971041
0.010267539420165122
0.01029486201237887
0.010309586180374026
0.010286550032906234
0.010238416497595609
0.010216745981015265
0.010225736522115766
0.01021424334961921
0.01016817890573293
0.010130309951491653
0.010132165821269155
0.010170516478829085
0.010211971527896822
0.01020898062735796
0.01015391783323139
0.010085811270400882
0.010046075414866209
0.010046344003640115
0.010050784414634108
0.0100080361450091
0.009919304540380836
0.00984838927630335
0.009845697735436261
0.009886555932462215
0.009923636000603437
0.009950952171348035
0.009957950529642403
0.009914943291805684
0.009845873634330928
0.00979749383404851
0.009771143859252334
0.009770191977731884
0.009804288451559841
0.009838004731573164
0.009843800119124353
0.009853320792317391
0.009895571595989168
0.009943108847364783
0.009961278378032148
0.009972268878482283
0.010017806896939874
0.010072598289698363
0.010061579886823893
0.009974051043391228
0.009880848946049809
0.009840037543326616
0.009849288654513656
0.009871492050588132
0.009879367290996015
0.009865710148587822
0.009846899062395095
0.009863333478569984
0.009907488781027495
0.009910808904096484
0.009863008772954344
0.009831088366918267
0.00983105466235429
0.009811032176949085
0.009764835657551884
0.009738422781229019
0.009732972653582693
0.009711988759227097
0.009690961255691945
0.009707961264066398
0.009735842850059271
0.00974822377320379
0.009796146210283041
0.009898376483470202
0.009975653886795045
0.009974547009915114
0.009934139959514142
0.009905425123870373
0.009907704549841584
0.009947844697162509
0.010004652901552618
0.010032309694215655
0.01001325108576566
0.009964782004244626
0.00990339054260403
0.009854635260999202
0.009870048430748284
0.009955838089808822
0.010032255947589875
0.01005103811621666
0.010053597060032188
0.010066976086236537
0.010075268601067364
0.010074823796749115
0.010074366121552885
0.0100901887845248
0.01012651801109314
0.010131879011169076
0.010067485752515495
0.00998219607397914
0.00992212409619242
0.00989140382502228
0.00991113217547536
0.009968145615421236
0.009996745483949781
0.009971150988712906
0.009911600789055229
0.009855383574031294
0.009865767797455191
0.009952298910357059
0.010014162003062665
0.009984463239088654
0.009939388097263873
0.009968956219963729
0.010047555575147272
0.010092030758969486
0.010074770175851882
0.01003511656075716
0.010009849453344941
0.010004756073467434
0.010011632810346782
0.010017137820832432
0.010016674837097526
0.010011833044700325
0.010008272239938379
0.010037236455827952
0.010111358882859349
0.010164761440828443
0.010127654625102877
0.010024508954957127
0.009928907393477857
0.009867642442695796
0.009827972878701985
0.009818198741413653
0.009842541529797017
0.00987192766740918
0.009893775610253215
0.009907992351800203
0.00989729335065931
0.009859072244726121
0.009808216467499733
0.009748297547921538
0.00967405957635492
0.009597842888906598
0.00955218451563269
0.009544030562974513
0.009540228270925582
0.009524624119512737
0.009524122471921146
0.009552373155020177
0.009583769026212394
0.009604307105764747
0.009639684655703605
0.009709969502873719
0.009780408903025091
0.009810614013113082
0.00980947658419609
0.009789441181346774
0.009753182237036527
0.009717209725640713
0.009682263159193098
0.009643381624482573
0.009628769685514271
0.00965814036782831
0.009700835668481886
0.009719476955942809
0.009725915379822253
0.009771719793789088
0.009872412146069109
0.00997323821298778
0.010024093659594654
0.010029354458674788
0.010015689581632615
0.010004185265861451
0.009994854223914445
0.00997260915581137
0.009941277834586799
0.009923454434610903
0.009921044241636992
0.009905206747353077
0.009860176648944617
0.009806279190815986
0.0097651973599568
0.009744292474351823
0.009757043779827654
0.009800448110327124
0.009823453850112856
0.009798325472511351
0.009779100148007274
0.009808802953921258
0.0098495168145746
0.009850652106106281
0.00981677404139191
0.00978749540168792
0.009776552831754088
0.009758814554661512
0.009733679848723113
0.009753522225655615
0.009826164576224983
0.009874697378836571
0.009869362260214985
0.009860091246664524
0.009866516590118408
0.009874515566043556
0.009880021871067584
0.009884073142893612
0.009906433043070137
0.00994588688481599
0.009936516871675849
0.009867309206165374
0.00984713654499501
0.009929650416597723
0.010027523911558091
0.010052859680727125
0.009997017104178668
0.009916019109077752
0.009898576363921165
0.009953170716762542
0.00998058306053281
0.009940730738453567
0.00991597338579595
0.00994549948722124
0.009959411388263107
0.00993527756538242
0.00993823068216443
0.009966983664780856
0.009949720092117786
0.009896648121066392
0.009894489091821015
0.00997469233814627
0.010083028785884381
0.010152194448746741
0.01016945505514741
0.01017117870040238
0.01019257663283497
0.010240280120633542
0.010287833665497601
0.01030640244949609
0.010295674335211516
0.010271544698625804
0.010260776844806968
0.010280626225285232
0.010316116772592067
0.010351874986663461
0.010375304175540804
0.010366630041971803
0.010346363899298012
0.010351965534500778
0.010363700790330768
0.010357873318716883
0.010363741940818728
0.01038945556152612
0.010388414235785603
0.010336716533638537
0.010271074227057397
0.01023626958951354
0.010230832663364709
0.010225395434536039
0.010215106708928943
0.010209687328897417
0.010208425023593008
0.010216520228423178
0.010234270971268415
0.01024308722000569
0.010236297980882228
0.010232909880578518
0.010242849853821099
0.010232653641141952
0.010173136522062122
0.010105109009891748
0.010079479827545583
0.010090939877554774
0.010112799140624702
0.010132658299989999
0.01016399051528424
0.010218369825743139
0.010266812876798212
0.010278509454801679
0.010265160794369876
0.010259962724521756
0.010280028344132006
0.010318355769850313
0.010358068058267236
0.010372324897907674
0.010333594102412462
0.010258466694504023
0.010200672741048038
0.010169301782734692
0.01013186404015869
0.01009230010677129
0.010073590404354037
0.010077316323295235
0.010092865745536982
0.010095725511200726
0.010086443959735333
0.010115618552081287
0.01018395255319774
0.01020551662426442
0.010149097014218568
0.01008762139827013
0.010066627636551856
0.010057527273893356
0.010032158456742763
0.009983374075964092
0.009920275760814548
0.009877636595629156
0.009868806898593903
0.009861875139176846
0.009845146010629833
0.009837692095898092
0.009830367718823254
0.0098060662439093
0.009779230430722237
0.009777348185889424
0.009824035428464413
0.009895535204559564
0.009922525188885629
0.009901889814063907
0.009898297893814743
0.009920650143176318
0.009934327267110347
0.009946224903687835
0.009974899739027022
0.010006756572984159
0.010016301604919136
0.010005196896381676
0.010013096882030368
0.010054012206383049
0.01008866583928466
0.010086761298589408
0.010051830415613949
0.010013888627290725
0.010005006925202906
0.010006153052672743
0.009977983748540283
0.009932701219804585
0.009900644798763096
0.0098759607039392
0.00986534083262086
0.00990333870984614
0.009954918324947357
0.009938944466412067
0.009869713285006583
0.009828104795888066
0.009840537589043378
0.009878028109669685
0.009894593320786953
0.009868337498046458
0.009842008505947887
0.009862438729032873
0.00991486180573702
0.009958001859486103
0.009972848896868527
0.009972490067593754
0.009972814652137459
0.009967417204752565
0.009957209778949618
0.009958972721360624
0.009973584604449571
0.01000353620853275
0.01005899793934077
0.010105453580617905
0.010091470875777305
0.01003024062141776
0.009972857390530408
0.009939268855378032
0.009926862237043678
0.009937944007106125
0.009954162533394992
0.009933254644274712
0.009878367502242327
0.009848810387775303
0.009873016751371325
0.009904505889862776
0.00988612670917064
0.009839314827695489
0.009839844442903995
0.009893968645483255
0.009915648493915796
0.009860978708602489
0.009791518291458488
0.009755553556606173
0.00974023524671793
0.009770804834552109
0.00987665084656328
0.009975339290685952
0.009973816690035164
0.009923080308362841
0.009909084890969097
0.00990292098838836
0.00987050503026694
0.009862323738634587
0.009899273561313749
0.009942885800264777
0.00996385745704174
0.009937905007973313
0.00986764285247773
0.009820781773887574
0.009843176524154841
0.009885190315544605
0.0098881980124861
0.009863827973604203
0.00985792235005647
0.009901191121898592
0.009981500189751387
0.010048835454508662
0.010083595272153616
0.010122918779961765
0.0101833574520424
0.010225231763906778
0.0102154221246019
0.010168428579345346
0.010124522824771703
0.01010102866217494
0.010078192655928433
0.010054414425976575
0.010049185152165591
0.01004102231003344
0.010003849426284432
0.009964729049243034
0.009945451878011227
0.009936784785240889
0.009948460003361106
0.009984965962357819
0.010009946548379958
0.009995462228544057
0.009964920273050666
0.009958974663168191
0.009972042553126812
0.009966696384362877
0.009943214170634746
0.009932160144671798
0.009937943019904196
0.009941607750952243
0.00994529711548239
0.00997855740133673
0.01004205072298646
0.010083083999343217
0.010069752112030983
0.010030550556257367
0.010008553299121559
0.010032154493965209
0.01010095833800733
0.010172169879078865
0.010182829992845654
0.0101205018395558
0.010053446907550096
0.010026293634437024
0.010002067908644677
0.009967430136166513
0.00996416444890201
0.009989703530445695
0.009995253691449761
0.009986999216489495
0.01001941307913512
0.010085179079324007
0.01011463106609881
0.010089551964774728
0.010065617063082755
0.010073725278489291
0.01008012602571398
0.010076338215731085
0.010116188148967921
0.010198534121736885
0.01024288966320455
0.010234241769649089
0.010225124806165695
0.010215131668373942
0.010187299139797688
0.010174689409323036
0.010194195923395455
0.010206905636005103
0.010191850084811448
0.010189222577027977
0.010216520675458014
0.01021739890333265
0.010152442432008683
0.010067349625751376
0.010038468702696264
0.010080708106979728
0.010135938306339085
0.010161858387291431
0.010162115516141056
0.010126030407845973
0.01005713731981814
0.010018604011274874
0.010038505452685057
0.010051478734239935
0.010013396325521172
0.009982546526007354
0.010011007115244865
0.010058512883260847
0.01007975555025041
0.010082912822254002
0.010084301210008561
0.010089439461007715
0.010092347618192435
0.010070154103450477
0.010022207042202353
0.009996287575922906
0.01004011780489236
0.010139212803915143
0.010215441044420005
0.010208119060844184
0.010142556196078657
0.010078161437995732
0.010030711684376001
0.009988804277963937
0.009953736225143076
0.00993183656129986
0.009934242316521704
0.00996299397200346
0.009983764686621726
0.00999276589602232
0.010039832647889853
0.010112228523939847
0.01013707987498492
0.010109637924470007
0.010086256177164615
0.010084327631630004
0.010074831643141807
0.010038550668396056
0.009980267602950335
0.00991941299289465
0.009901184421032667
0.009962304276414216
0.010058538489975035
0.010110544911585749
0.010101690990850329
0.01005991077516228
0.01001802618149668
0.009999367105774582
0.009995364188216626
0.00999142591841519
0.009980462943203747
0.009930728171020746
0.009839410819113254
0.0097850639000535
0.009806241616606712
0.009832317354157566
0.009809932513162494
0.009769247174263
0.009755133064463734
0.009782249829731882
0.009843347850255669
0.009909250284545123
0.009943793411366642
0.00996011508628726
0.010014583393931388
0.010099117700010539
0.010113951140083373
0.010028221136890352
0.009954836922697724
0.009942067456431686
0.009891017922200263
0.009786265739239752
0.009738258984871209
0.009765379065647721
0.009770007808692754
0.009719867198728025
0.009692230895161628
0.009727497026324273
0.009763821922242642
0.009768360247835516
0.009793936097994447
0.009838331481441856
0.009837801991961896
0.009826438655145465
0.009880701582878827
0.009960068510845304
0.009986984464339911
0.009978596065193414
0.009979899823665619
0.009980339985340834
0.009976762267760932
0.010007595960050821
0.010078266221098602
0.0101468176394701
0.010176984486170113
0.010157888638786972
0.01011405935510993
0.010086916401050985
0.010086358627304434
0.01009089560713619
0.010073643224313856
0.010032294210977852
0.010007717795670033
0.010037329150363802
0.010106438673101365
0.010167453195899725
0.010187575039453804
0.010176656567491591
0.010161763443611561
0.010143481460399926
0.010112290675751865
0.010088192694820464
0.01010503933764994
0.010162710673175751
0.010229148739017545
0.010273513458669186
0.010270024873316288
0.010221572914160789
0.010175152402371167
0.010164186502806842
0.010189141859300435
0.010257002888247371
0.010346423122100531
0.010381958545185626
0.010340541107580066
0.010296148452907801
0.010280739911831916
0.010248948414810001
0.01022195485420525
0.010245465240441263
0.010256767054088414
0.010201574289239942
0.01013522272463888
0.010114887054078281
0.010143521088175476
0.010210045366548001
0.01028311440255493
0.010313183572143315
0.010296697146259248
0.01028129137121141
0.010288229892030359
0.010281766536645592
0.010227003963664175
0.010149105647578836
0.010115200174041092
0.010158856324851513
0.010239500249736012
0.010298643307760359
0.01033238694537431
0.010372659135609865
0.010426057358272374
0.010468196468427777
0.010487079452723265
0.010488510695286096
0.01047113539185375
0.010456006973981857
0.010487103923223913
0.010541753997094928
0.010537915783934294
0.0104657690692693
0.010405152062885463
0.010409735180437564
0.010452991453930735
0.010478996392339467
0.010467033670283853
0.010433593173511327
0.01039482596796006
0.010367754800245165
0.010371944578364491
0.010407857475802302
0.01045275280252099
0.010468666641972959
0.010446007689461112
0.010433883196674288
0.010477045550942421
0.010542740924283861
0.010561520732007921
0.01052911908365786
0.010491361576132476
0.010451165148988367
0.0103928532730788
0.010352935306727887
0.010363342920318246
0.010384016497991979
0.010375566012226046
0.010366507917642593
0.010396926123648882
0.010447691637091338
0.010454970295540988
0.010400722953490912
0.010340429176576436
0.01031307895667851
0.010296100955456496
0.0102551553491503
0.010198984616436065
0.010167686538770794
0.010160094788298012
0.010144405937753618
0.01012938450090587
0.010140364076942205
0.010173872951418162
0.010212115524336696
0.010239586331881583
0.010247441912069917
0.0102396431658417
0.010218320330604911
0.010171704054810106
0.010113800633698702
0.010092669120058417
0.010114965764805674
0.010139888385310769
0.010158987203612923
0.010188358533196152
0.01021234545391053
0.010207664617337287
0.0101916132401675
0.010187196312472224
0.010172557937912642
0.010138351274654268
0.010128035042434931
0.01015338346362114
0.010155093050561845
0.01010280762333423
0.010053202598355711
0.010052015413530171
0.010074829827062785
0.010118665327318012
0.010206964425742626
0.010274371271952987
0.010238503706641495
0.010147416335530578
0.010096342279575765
0.010105742909945547
0.010146009898744524
0.010174674829468131
0.010158110489137472
0.010116801969707013
0.010102387424558401
0.010121702449396253
0.010145280193537474
0.010162160405889154
0.010184381939470768
0.010219510588794946
0.010251680570654571
0.010265679759904743
0.010265283929184079
0.010247618104331195
0.010213563577271998
0.010185885280370711
0.01017118567135185
0.01015403303783387
0.010133259315043688
0.010108611546456814
0.01008064809255302
0.01008090963587165
0.010108868414536119
0.010105272205546498
0.01007170531898737
0.010072721792384982
0.010100946170277894
0.010094246729277074
0.010042166262865066
0.00998332241550088
0.009947974663227797
0.009930430483072995
0.009923466071486474
0.009956779670901597
0.01002709440421313
0.0100575663568452
0.010011600404977799
0.009939799727872014
0.009886852554045618
0.009856056971475482
0.009835284426808357
0.009803874385543167
0.00976554308552295
0.009761230079457164
0.009794264640659094
0.009813959780149161
0.009817694406956434
0.009852181463502347
0.00990297455340624
0.0099160033185035
0.009892617226578295
0.009866293100640178
0.009856591569259762
0.009872819469310344
0.009906419008038937
0.009943979629315435
0.009970397837460041
0.009949878128245472
0.009887688499875367
0.009863994754850865
0.009925584089942277
0.010013765846379101
0.010047919796779752
0.010031989649869502
0.01001969737932086
0.01001326295081526
0.009988312921486796
0.009963303008116781
0.009965806589461864
0.009993185065686703
0.010029414910823107
0.010038286056369543
0.009980742111802101
0.009902391601353883
0.009849012289196253
0.009812956168316305
0.009761997438035906
0.009735891418531538
0.00975918274372816
0.009782819617539644
0.00976138810161501
0.009712881613522769
0.009673017165623606
0.009646588200703264
0.0096409698901698
0.009680218659341336
0.009753895266912877
0.009813217022456229
0.009839384546503425
0.009870005352422596
0.00993991554249078
0.010031372462399303
0.010106308627873659
0.01016018530819565
0.010192568660713733
0.01017233392689377
0.010106235286220908
0.010059198513627052
0.010052545350044967
0.010027786185964942
0.009942056639119982
0.009842590368352831
0.009788039159029722
0.009741362035274505
0.009656644049100578
0.009594578286632896
0.00961611392442137
0.009667425556108356
0.00968053883407265
0.009690062594600021
0.009746275921352208
0.00978821045719087
0.009728336818516254
0.009607426393777131
0.009532756805419922
0.009510789518244564
0.009465846656821668
0.009386794273741544
0.009342891764827072
0.009367572180926799
0.009420925355516373
0.009454615153372288
0.009459185800515114
0.009470951012335718
0.009535344103351235
0.00966670483816415
0.009849653183482587
0.010063557145185769
0.010317332944832742
0.010620118244551122
0.01089298602193594
0.01098494787234813
0.010936655844561756
0.011026009977795183
0.011192841241136193
0.011445795390754939
0.011753300298005342
0.012016397509723902
0.012117072204127909
0.012146590552292764
0.012120726639404894
0.012059924365021289
0.012042044117115437
0.01230438333004713
0.012689899187535048
0.013065223363228143
0.013404020895250142
0.01354022468905896
0.013551160846836864
0.013792782574892044
0.01400118381716311
0.014012395022436976
0.013934071720577777
0.014007741599343718
0.014253345900215209
0.014437130512669682
0.014496277966536582
0.015357864000834524
0.016529092285782098
0.017156278509646655
0.017056166487745942
0.01728515319991857
0.017480225996114315
0.017826202185824515
0.018991696792654694
0.02124259150121361
0.023724552528001368
0.025448385309427977
0.026313789612613617
0.026276358971372246
0.027326675448566675
0.029176749936304987
0.030465998775325714
0.030510071432217956
0.030866710706613957
0.031115530896931885
0.03241881513502449
0.03414350084960461
0.03523392811883241
0.0351378035498783
0.03597172493580729
0.03747332684230059
0.038901635273359714
0.03932144906371832
0.04008541819173843
0.04181553120724857
0.04371875179931521
0.04513630569446832
0.0456194211775437
0.045997392516583205
0.047454990143887696
0.04979736578650772
0.052556737805716694
0.05496709856204689
0.057013688813894986
0.0595123152108863
0.06203809264581651
0.06283863723278045
0.06389771317131818
0.0651377898035571
0.06560954947024583
0.06616842618212104
0.06763257236219943
0.06937259971629828
0.07030845026485621
0.0703835034975782
0.0703310321783647
0.07049925118219108
0.0707345795352012
0.07089168049860746
0.07114775025751442
0.07315232888795435
0.07649238985031843
0.07888351281639189
0.07892102586571127
0.08003454164601863
0.0807503823377192
0.08100372347515077
0.08172166489996016
0.08292937625199556
0.08384430427104235
0.0842248795600608
0.08443536277860403
0.08478681104723364
0.08523597992490978
0.08546417222823947
0.08520277084317059
0.08527119854930788
0.08532263123895972
0.08562196946237237
0.08673739469144494
0.087785664931871
0.08826616864651442
0.08974930502939969
0.09060871744062751
0.09067514151800424
0.09088899281807244
0.09148699200246484
0.09185964709613473
0.09232008584309369
0.0940351479826495
0.09702807693742216
0.10036432956811041
0.10187606679741293
0.10179653301369398
0.1029021707130596
0.1038172837998718
0.10406323895324021
0.10455772588029504
0.10547982807736844
0.10607705930713564
0.10596988156437874
0.10633922468405217
0.10624047403223813
0.1060467178095132
0.10571663779206573
0.10598729419521988
0.10559833940118551
0.10468737100251019
0.10433099622372538
0.10500687954481691
0.10541558642871678
0.10530432153493166
0.10565127821639181
0.10570341455750168
0.10430315549019724
0.10182329091709107
0.10041170359123498
0.0996769248927012
0.09984050315339119
0.09932692269794643
0.0979447964252904
0.09723098697606475
0.0988181314477697
0.09957986727822572
0.09928841959219425
0.09803804566152394
0.09695959960110485
0.0966761034168303
0.0967987564066425
0.09652952617965639
0.09594799461774528
0.09517287977039814
0.09520748421084135
0.09518931574653834
0.09453934970311821
0.09344271302688867
0.09189068538602442
0.09229517456609755
0.0930860647931695
0.09247458295430988
0.0905954726273194
0.08776117091532797
0.08630239162128418
0.08558988363016397
0.08332423276733607
0.08217732596211136
0.08356502991169691
0.08447905465960502
0.08497157492674887
0.08587802812922746
0.08578448924701661
0.08461674288846552
0.0831834088684991
0.08232269342523069
0.08249943855218589
0.08260278585832566
0.08283154668752105
0.0830058326991275
0.08329540881328285
0.08346761341206729
0.08142075736541302
0.07857632389757782
0.07678533266298473
0.07673177881166339
0.0762816729908809
0.07626645793672651
0.0759863678039983
0.07579907823819668
0.07482252343092113
0.07406247875653207
0.07430522568989545
0.07539410097524524
0.07705494588240981
0.0783295120485127
0.0783554738946259
0.07961641130503266
0.08196993825025857
0.08456746967043728
0.08499422966502607
0.08547453340142966
0.0876879527978599
0.08889571844600141
0.08913491390645505
0.09231069516856223
0.09497770134825259
0.09442723459098488
0.09483198087662459
0.09463258744217455
0.09643215888179839
0.09727647856809199
0.09558417655527592
0.09226292609237134
0.09056397836189717
0.09045882241800428
0.09023980044294148
0.09148141837213189
0.09348342865239828
0.09440907450858503
0.09445117567665876
0.09491666047368198
0.09499971577897667
0.09668481043539941
0.09940872954670339
0.10054258840158582
0.1008314873604104
0.10055967000778765
0.1009970419947058
0.10197290549054742
0.10202116658911109
0.10171014261431992
0.10140458588954061
0.10154128098860384
0.10120161408092826
0.10046417751349508
0.0999474444333464
0.09991042882669716
0.10008664142806083
0.1006400061910972
0.10079287146683782
0.10061846835073084
0.10160154167562724
0.10320457108318806
0.10337155954446643
0.10270057313144207
0.10331102546304465
0.10409654727205635
0.10424455763306469
0.10461692188866437
0.10652554763946682
0.10816806582733988
0.10881790511310101
0.10885412519332022
0.108709712815471
0.10830717814154923
0.10737918447237461
0.10684123049024492
0.1078794779907912
0.10781279926653951
0.10670954708475619
0.10608501640614122
0.10563979506492614
0.10586820520926267
0.10487328362185508
0.10365717852953821
0.10333576084114611
0.10317657669540495
0.10274191083852202
0.10148379814811051
0.10015794514212757
0.09947122341953218
0.09941237058024853
0.09928614346310496
0.09893452872056514
0.099354703030549
0.0999770651012659
0.10056200060993432
0.10011893580667675
0.10103091449011117
0.10295594444032759
0.10462235331069678
0.10532776937354356
0.10562079440336675
0.10671399908140301
0.1079378528567031
0.10733678876422345
0.10772731183562428
0.10922585007268935
0.11049479401204736
0.11178201068192721
0.11161018745508045
0.11292165476363153
0.1139377619046718
0.11318765523377806
0.11174068430904299
0.11156837173737585
0.11042500388342887
0.1097539758356288
0.11072914659511297
0.1126314375223592
0.11092122700996697
0.10966914533171802
0.10992785785812885
0.1097906204406172
0.10722102706320584
0.10452337900642306
0.10619316638447344
0.10748631429858506
0.10886509276460857
0.10680532841477543
0.10422395763453096
0.10356955844908952
0.10428646625485272
0.10433958328794687
0.10521167741622776
0.10478033877909183
0.10236263264436275
0.10093376701232046
0.10017381475307047
0.09930319718550891
0.09923423390369862
0.09983534030616284
0.09843038448132574
0.09697197141125798
0.09630308955907822
0.09683675165753812
0.09827792808413506
0.09808968825265765
0.09750578975770623
0.09862441648729145
0.09968328462913632
0.10013415321242064
0.10006322436500341
0.10004620062652975
0.10031613105442375
0.10069519841112197
0.10104390404187143
0.10059805755503476
0.10025216028094291
0.1003971449052915
0.10035674850456416
0.09883628355804831
0.09744416207075118
0.0973045559739694
0.09869339553639293
0.0992398471897468
0.09838528644759208
0.09880037528928369
0.0995046415226534
0.0992950795730576
0.09810253327246755
0.09698288333136589
0.09660560122691095
0.09660739550832659
0.09649178209714591
0.09641420802567154
0.09607954512815922
0.09505595052149146
0.09417514083441347
0.0941678126854822
0.09393625589087605
0.09411585896741599
0.0947385363234207
0.09561932033393532
0.09596238167025149
0.09634068564511836
0.09544826936442405
0.09371241348329931
0.09347483590710909
0.09372552832588553
0.09332717390265316
0.09298567021731287
0.09278354652225972
0.09294277937617153
0.09263343452941626
0.09173508974723518
0.09147596089635045
0.09223004352301359
0.09154887242242694
0.08918101131916047
0.08805994966533034
0.08955120262224227
0.09073206411674618
0.08967477863188833
0.08853383879177272
0.08917800138238817
0.08878412685822695
0.08796542759984732
0.08778257257770747
0.08723354563117028
0.08731219422072173
0.08540582922287285
0.08345501193311065
0.08236635251902044
0.08250047169625759
0.08374257622752339
0.0853898855112493
0.08428576009348035
0.08057849102187901
0.07834614179562777
0.07857429311610759
0.0766810697549954
0.07563848455902189
0.0745676380675286
0.0730422244546935
0.07286025698296726
0.07206708265002817
0.07058973069302737
0.06911021893378347
0.07024369475431741
0.07171244426630437
0.07194629239384084
0.0714119029045105
0.07137953359633684
0.07064708826132118
0.07011650760658085
0.0701905441749841
0.06940737425815315
0.06911774115636944
0.06918715694919228
0.06794340454507619
0.0677784679736942
0.06780482111964375
0.06696577836759389
0.06655030143912882
0.06576983805280179
0.06423271765001118
0.06376290477812291
0.06361674064770341
0.0626880939025432
0.06185863798018545
0.06178347071632743
0.062478712811134755
0.06270403231494129
0.061951249376870694
0.06159949224907905
0.06186550193466246
0.06199289373587817
0.0621163344848901
0.0625913253845647
0.06292327938601375
0.06307131815236061
0.06251314189750701
0.06102752829901874
0.05934511966072023
0.058501243935897944
0.05852669662795961
0.05766711703967303
0.05647865327075124
0.05560628742910922
0.05553281230386346
0.05599454049952328
0.05597894115839153
0.05646084217354655
0.057957564434036615
0.05945807498414069
0.06069499881006777
0.06191521203611046
0.06260643443092703
0.0625245625898242
0.06281536221969873
0.0626164050400257
0.061879117246717213
0.061661520386114714
0.06226282597519457
0.06276197052560746
0.062460491824895145
0.06301881202962249
0.06321881311014295
0.06315511605702341
0.0635123090352863
0.06400502827018499
0.06406584819313138
0.06424665440339596
0.06441769424360246
0.06456071774009615
0.06426967013161629
0.06403220744337887
0.06415735734626651
0.06461963210720569
0.06362047153059393
0.061775633837096396
0.05990206733811647
0.059385836496949194
0.05932367251254618
0.05876646101474762
0.05839707274455577
0.05806248779874295
0.05653384648729116
0.05558223843108863
0.05566348352935165
0.055708164847455915
0.05528726307209581
0.05510628599207848
0.05478705472778529
0.053494783039204775
0.0519310002354905
0.05131147527135908
0.051586196185089646
0.05117981313727796
0.05110998588148505
0.05189924512989819
0.051861231178045274
0.051476106569170954
0.051331362989731136
0.051831733454018834
0.05211373952683061
0.05155305503867567
0.051901036468334494
0.051033603153191505
0.04982779124751687
0.049523763027973476
0.04959569688886404
0.04945740186609328
0.04898763529956341
0.04866493724286556
0.04903096945956349
0.04987117805052549
0.050549190314486625
0.050882058315910396
0.051408915664069355
0.05140377131290734
0.05078074320219457
0.05126071053557098
0.05319599415175617
0.055585829666815696
0.057064437079243364
0.05689966377336532
0.057503650127910075
0.05874345441814512
0.059798273839987814
0.060181019003503027
0.060174426762387156
0.06042022716719657
0.061339984852820634
0.061646718666888776
0.06128267371561378
0.06228718414437026
0.06299279557075352
0.0626668862765655
0.06210081758908927
0.0619419575156644
0.06173111311625689
0.061719065262004734
0.06175129333045334
0.06159268502611667
0.06167284476570785
0.06148627609014511
0.061068010511808095
0.06046178827062249
0.05942206915467978
0.058884337041527034
0.05917689454741776
0.05917490724939853
0.05849674364551902
0.057600089046172795
0.05640378023032099
0.05580767983570695
0.05539140817709267
0.05570977729745209
0.05630433482583612
0.05720808903221041
0.057859589233994486
0.057615127698518336
0.05636277038604021
0.056096455976367
0.056974967853166164
0.05714710120111704
0.05685846309177577
0.056393457422964276
0.055810105646960435
0.05562441267538816
0.05611861193086952
0.05635346055030823
0.05646293510682881
0.0565540869673714
0.056507574813440445
0.056182834096252916
0.05527122837956995
0.055100886528380216
0.05545314272399992
0.05514774055685848
0.05515520188491792
0.05523938111960888
0.055473258960992096
0.05568846998736263
0.055694725294597444
0.055440178937278685
0.05584203091915697
0.05610001157969236
0.05587050935253501
0.05569701792672276
0.05563675107900053
0.05568595400080085
0.055523107200860976
0.055476094367913904
0.055599426166154445
0.05545379497576505
0.05500894936732948
0.05491470109671354
0.05509530653245747
0.05456465909257531
0.05376149521674961
0.053551045055501165
0.05367903938516974
0.0535271476348862
0.052487915609963236
0.052436987133696676
0.05247731254901737
0.051959389080293475
0.052176642371341585
0.0522635256825015
0.05258650759235024
0.05290692362934351
0.05289711667224765
0.05280828167684376
0.052478287061676385
0.05181443721521646
0.050882036057300864
0.05023772293701768
0.05035654427483678
0.05058241269085556
0.05063471070025116
0.05010107689537108
0.04847042302135378
0.04635794093832374
0.04513082191348076
0.045419667824171485
0.044458419713191685
0.04300142552237958
0.04214038101490587
0.04178609353024512
0.041374601651914415
0.04067407825030386
0.03988294850103557
0.03924351194873452
0.039536445029079915
0.03928937072865665
0.03863599190954119
0.03822648533154279
0.038610862656496464
0.039573060064576566
0.04041350312065333
0.04069930526893586
0.040520762144587934
0.04079268250148743
0.0412495642201975
0.041502792965620754
0.04147609455510974
0.04139638722408563
0.04136803947854787
0.04159986057784408
0.04213285928592086
0.04227884603198618
0.04154898870736361
0.0407712812628597
0.04074832317885011
0.04038475390989334
0.04050096893217415
0.04035788506735116
0.0393506735842675
0.03838473132811487
0.03791836673859507
0.03785391970537603
0.03808095463551581
0.03774604032747447
0.03770870298612863
0.037966003632172944
0.037998849065043035
0.0380279951216653
0.038184050717391074
0.03812091361265629
0.03814618217293173
0.03768597638700157
0.03761024484410882
0.037692880034446714
0.03780765606090426
0.03809846464078873
0.03853291763458401
0.03816044727806002
0.038204432828351856
0.038537292825058106
0.038391726003028454
0.038305337876081466
0.03832504311576486
0.03825181260704994
0.037994428793899714
0.038302199435420334
0.03789300128351897
0.03754568805918097
0.03785730096045881
0.038504753704182805
0.03939908647444099
0.040206206627190114
0.040773901543579995
0.04094608250074089
0.04120159187354147
0.04158952564932406
0.04173340351786464
0.04241841615643352
0.04301174812950194
0.04359006563667208
0.04420113293454051
0.044192860969342294
0.04469926871359348
0.044814916206523774
0.04523441907018423
0.04540796904359013
0.04525707956869155
0.04542318065650761
0.045351967136375605
0.044946639277040956
0.04454320086166263
0.04452468082774431
0.044762889458797875
0.04485538123641163
0.04499789260327816
0.044983268915675584
0.0449235487729311
0.04475475636310875
0.04409858317114413
0.04353526049759239
0.04386518828105181
0.043969733789563176
0.04374641036614776
0.043447324545122686
0.043156601996161045
0.04286813542246819
0.04268372249323875
0.04257649649865925
0.04221318314317614
0.04200263157021254
0.04218759595416486
0.042238138057291506
0.04258525342214853
0.04365384147036821
0.04455748218577355
0.04479752231389284
0.0447073938511312
0.04444975113961846
0.04389374939724803
0.043050819388590754
0.04222858993336558
0.042069113203324376
0.042644680631347
0.04274755985010415
0.042339542116969824
0.041930585242807863
0.04179971846751869
0.04192495804745704
0.042472794987261295
0.04224880307447165
0.04139269329141825
0.0405494918115437
0.040124386241659524
0.04015430388506502
0.04009833343792707
0.039918310507200655
0.039880937258712945
0.04001040959265083
0.04002051768358797
0.040246709138154986
0.0402047706162557
0.03989132259972394
0.03976746653672308
0.039663316803053024
0.039119204669259486
0.03846505157649517
0.03809961797203869
0.0382206771383062
0.0384964962117374
0.03827571257948875
0.038160983105190095
0.038475978216156365
0.03809562950395048
0.0379731961293146
0.037741980687715115
0.037265241146087646
0.03703839599154889
0.03756756829563528
0.0377731239516288
0.037378458818420765
0.03866218257695436
0.04012956349179149
0.04016595049761236
0.04143801461905241
0.0442779547162354
0.04671131622511893
0.047856482504867015
0.048211037036962806
0.048709004716947675
0.04848500465974212
0.0480154428165406
0.04820233805570751
0.04925771459937096
0.05017042979132384
0.05002672140486539
0.04958950604777783
0.04997676674742252
0.05009494183119387
0.049949679975397884
0.04945094468537718
0.04927196589764207
0.049687417466193436
0.04906747633125633
0.048762500723823904
0.04862465348560363
0.048268853118643165
0.048059746199287476
0.04790099619887769
0.04765651875641197
0.04756466487422586
0.0473549920367077
0.04697419259697199
0.04671725509222597
0.04661647283937782
0.046259188507683575
0.046270786924287675
0.04694323586300016
0.04769423194229603
0.047925106850452724
0.04774591160006821
0.047385802371427414
0.04682339526712895
0.0470455508865416
0.0477792424755171
0.048185774735175074
0.04804313666652888
0.0485909098898992
0.04925356408581138
0.049503167001530526
0.04906550920568407
0.048540034261532125
0.048707002685405315
0.0483299870416522
0.04750422040931881
0.046519413706846535
0.045435889060609046
0.04509935704991221
0.04533066693227738
0.04544602690730244
0.04538739469833672
0.04540271827019751
0.045169087718240915
0.04459781655110419
0.044157277052290736
0.04397274604067206
0.04426745221950114
0.04467930733691901
0.0446876103291288
0.04431526530534029
0.04452189039904624
0.044648776492103935
0.044572671535424886
0.04498401988763362
0.04516919273417443
0.04519650816451758
0.04527461853809655
0.045250996546819806
0.04534517602063715
0.04565102312713862
0.04564449034631252
0.046286711134016514
0.047014713841490446
0.046962729999795554
0.047477932446636256
0.04805952158290893
0.04847459135577083
0.04899183053988963
0.049078405881300566
0.0486595024028793
0.04874812464229763
0.048669592668302356
0.04877557460218668
0.049266372607089576
0.0494363891100511
0.04971519258804619
0.049954891111701726
0.049860337786376475
0.050015188283286986
0.05096608402207494
0.0527823726227507
0.05301806699484587
0.05263609005603939
0.053160899500362575
0.05161849630065262
0.04947762134019285
0.0480143291503191
0.0480681942217052
0.048683175211772324
0.04844948888756335
0.04830355330836028
0.04801195955835283
0.046916512963362036
0.04575558497104794
0.04559415436349809
0.04643402141518891
0.04727828504517675
0.04721347607672215
0.04619574641808868
0.04571129937190563
0.046057431027293205
0.04648747102357447
0.04645445182453841
0.04652256006840617
0.04649072436150163
0.046239630542695524
0.046397071476094426
0.04633500576019287
0.04726504488382489
0.048145265076309444
0.048668454512953756
0.04892343485262245
0.04892144663725048
0.04903827731963247
0.049100441806949675
0.049054050045087935
0.048735452680848536
0.048078190884552896
0.04742528472561389
0.04726363943889737
0.047491756263189015
0.04742823212407529
0.04743303637485951
0.04689026219304651
0.04621981157455593
0.04600052782800049
0.04610967458225787
0.046071335356682536
0.045348415677435694
0.04510761796496809
0.04564754529856145
0.04595482067205012
0.045675392355769874
0.045705059925094244
0.045924142319709066
0.04594756060279906
0.04583182947244495
0.04588503488805145
0.045728674535639585
0.04577732547186315
0.046130429548211394
0.04645376567263156
0.04658151830080896
0.0465528752701357
0.04661249432712793
0.046928164958953855
0.04702012077439576
0.04691321590449661
0.04694584325421602
0.046953597539104525
0.04651095529086888
0.04636406749486923
0.04635372592136264
0.046196787180379034
0.04695683444850147
0.04822019349783659
0.04872885315679014
0.04838715670164675
0.04831986550241709
0.04856078049633652
0.04870419064536691
0.047900160853751005
0.047024447144940494
0.04710325722116977
0.046912170364521444
0.047017394034191966
0.04713206758722663
0.04666508025024086
0.04637987273279578
0.04655119041446596
0.04693568265996873
0.04686334465630353
0.04655980128329247
0.046801969786174596
0.047210812522098425
0.04729521240573376
0.04700155110564083
0.04699281671550125
0.04643867795821279
0.04479117569513619
0.043140799654647705
0.04165684656240046
0.04103600197006017
0.04127638150472194
0.04235470962710679
0.042475521620363
0.0415893277246505
0.040294671258889136
0.03957677317783236
0.03941434860695153
0.03994392280466855
0.04081785870715976
0.04127809668891132
0.04093171679414809
0.04027780915144831
0.03928546953946352
0.038401482542976734
0.03798177999909967
0.03836579721421003
0.03857947225682437
0.03827594710513949
0.03764314490836114
0.037290480714291335
0.037213727487251165
0.03689437494147569
0.036818560934625565
0.03639563542790711
0.0366629615938291
0.036146947531960905
0.035151272639632226
0.03457062893547118
0.034372603078372775
0.03444833382964134
0.034462114134803414
0.034582415497861806
0.03480491762980819
0.03478362622205168
0.03494233713019639
0.035524215181358156
0.03594337584450841
0.03584829337894917
0.036584534449502826
0.03749229112174362
0.03798125649802387
0.03793716420885176
0.03786393009126186
0.0381899577146396
0.038229335518553856
0.03825655450578779
0.037994068479165435
0.03807293986901641
0.0389170575235039
0.03987444437574595
0.040026598693802956
0.039775213901884855
0.03990826178807765
0.04048372787423432
0.040594711606390776
0.04063811403699219
0.04103989263996482
0.04120093035977334
0.041047405349090696
0.040885683218948546
0.04117916999384761
0.04161017792765051
0.041727002211846415
0.04153584997169674
0.04179430949967355
0.04189330556895584
0.04174810964148492
0.041933494661934675
0.0416875455994159
0.04214554823469371
0.04239926028531045
0.04194777141325176
0.04203108381479979
0.04229365194682032
0.04257227951195091
0.04325271773617714
0.0434701335337013
0.04309624829795212
0.04339839833788574
0.04345688216388226
0.04422175856307149
0.04473485195077956
0.044188576345331965
0.04346157363150269
0.04393082840368152
0.04455845700576901
0.04465215953066945
0.0445816091215238
0.04534615241456777
0.04578206795733422
0.04511856446042657
0.04452727653551847
0.044414723394438624
0.04466486651450396
0.04461281467229128
0.04463025107979775
0.04465502202976495
0.0444921919843182
0.04457907722331583
0.0444939806452021
0.043863547509536145
0.04291627098806203
0.04287390529178083
0.04329688944853842
0.0436163427401334
0.04340028619859368
0.04307114617433399
0.04250737175345421
0.04210147496312857
0.04209218120202422
0.0421013600891456
0.042554600648581985
0.043208494568243626
0.04358014383353293
0.04370949726551771
0.04371804293710738
0.04350545094814152
0.0431995407724753
0.04290718407835811
0.04321512690745294
0.044145743609406055
0.04516799624543637
0.04547750757075846
0.045522947018034755
0.045301945605315266
0.04505090940743685
0.04538977012503892
0.04596400292590261
0.04640301606617868
0.04653992825653404
0.047324711680412294
0.04794778742827475
0.04798484208062291
0.047923838472925126
0.047721769716590645
0.04767819710541517
0.04846316277980804
0.049549861205741765
0.0491789167188108
0.048335162829607724
0.04787392182275653
0.04811265671160072
0.048073334200307724
0.04772142809350043
0.04718264014460147
0.047103842073120177
0.04699006949085742
0.04673682349734008
0.04610307675320655
0.045080620255321266
0.045553049030713735
0.04621848538517952
0.045878079617396
0.045576262627728285
0.0455687162373215
0.045544016337953505
0.04509263783227652
0.04511615382041782
0.04582301828078925
0.04653793871402741
0.04642214084975421
0.04607200525701046
0.04624758592341095
0.046808161567896606
0.04656972048804164
0.046058770767413076
0.04659944816026837
0.04679651862476021
0.047187956501729786
0.04692117678467184
0.046494795042090115
0.046457442734390494
0.045697258319705725
0.04532687233295292
0.04539057487621903
0.04443354251794517
0.04371455713640898
0.0437480059498921
0.04330104375723749
0.04350393345579505
0.04318082280922681
0.04305143091827631
0.043886684160679576
0.045293912990018725
0.04590952994301915
0.045570266358554365
0.04541271289810538
0.045328830261714755
0.044697075262665746
0.044340460249222814
0.04428640556987375
0.04418863985687494
0.04395940360147506
0.04376922378782183
0.04403554289601743
0.04422425485681743
0.044390256507322194
0.04444367608521134
0.044637923138216136
0.04447560658678412
0.04450783641077578
0.0451203500200063
0.044946868852712214
0.04406092240475118
0.04406755283009261
0.04413090221118182
0.04468694614712149
0.0450050740968436
0.044573209690861405
0.04414061476010829
0.04430088015273213
0.04432758917566389
0.044662587065249684
0.045085149048827586
0.04504512488376349
0.044714925638400016
0.04428108016960323
0.04406497289892286
0.0445751385204494
0.045107297864742574
0.04502139978576451
0.04455319663975388
0.04438857548870146
0.04432428057771176
0.04413469144608825
0.04411021293140948
0.04400971726048738
0.04354414028581232
0.043027100255712866
0.04288270991761237
0.042072880216874185
0.041544255069457
0.041305420226417484
0.041868501799181106
0.04232397537212819
0.041694943215698006
0.040882009235210716
0.040285994112491605
0.04024710604455322
0.040327501827850935
0.040470836549066004
0.04022652274463326
0.04043687069322914
0.040822550258599224
0.041024192264303566
0.04091466407291591
0.0408614210318774
0.04028778512496501
0.0397942376928404
0.04036049262154848
0.04053723375312984
0.04035248733125627
0.04017511639744043
0.039916520011611285
0.03986512867268175
0.040058744857087734
0.03995889754965901
0.039613857129588724
0.038790194373577835
0.03812856054864824
0.038014220637269315
0.037784613082185385
0.0372562200948596
0.03650630737189203
0.03609687684103847
0.03675400929991156
0.037455433481372896
0.0378271787520498
0.03745463508646935
0.03784489515703172
0.039204138545319435
0.041039626342244444
0.042891559903509915
0.04312143007759005
0.04431742000859231
0.04653475762810558
0.04775532786734402
0.047890189420431856
0.04803626615554094
0.048103283173404635
0.047853230014443394
0.047281525684520605
0.046392840864136815
0.04513321066275239
0.04391447207890451
0.04374067007098347
0.04369191382080317
0.04331119921524078
0.04286964981351048
0.04293250779155642
0.04353047448210418
0.043923420254141095
0.043906948175281284
0.04438118951860815
0.045360368182882665
0.04632849728222936
0.04653194897342473
0.046879154541529716
0.04698490195907652
0.046680300375446675
0.04632997265551239
0.04574492437765002
0.045246265567839145
0.04549743735231459
0.04613115772604942
0.04699622076470405
0.04638257867190987
0.04657670537009835
0.04693230302538723
0.04709415830671787
0.04692672106437385
0.046455261749215424
0.0458041661279276
0.04512440552003682
0.045164896841160956
0.04577564957085997
0.04625019705388695
0.046189591954462234
0.04613391705788672
0.0463720371434465
0.046284581837244335
0.04574383453000337
0.04549591920804232
0.0456952663557604
0.04588323391508311
0.04654312649741769
0.047084675724618136
0.04745011157356203
0.04781537794042379
0.0477823578286916
0.048165303091518584
0.04823216400574893
0.048302004928700626
0.04788947766646743
0.04743234714958817
0.0476060618693009
0.047472297730855643
0.04780269211623818
0.04800866307225078
0.04830982164014131
0.04938254464417696
0.0505743660684675
0.050815540673211215
0.05049130100291222
0.050802375031635164
0.05117203290108591
0.051239125216379765
0.051898691128008066
0.052540587149560454
0.05270427743438631
0.05253884457983077
0.05260771838482469
0.05302171786315739
0.05307556259911508
0.0536629362218082
0.054847795492969455
0.056345390155911446
0.05699107754509896
0.05693689375184476
0.05769679488614202
0.0585169976670295
0.05895322313066572
0.05917770580388606
0.05958204466383904
0.05972260949667543
0.0590505436854437
0.057870850819163024
0.056939904796890914
0.05686922405380756
0.05622367301955819
0.05483764339704066
0.05260048530064523
0.05025510248728096
0.04946219922043383
0.047989145014435054
0.04568192534614354
0.044474128475412725
0.04433317613787949
0.044374184645712376
0.044660638072527944
0.04492241601925343
0.04462928798049688
0.04460624618921429
0.0443203459167853
0.044801244866102936
0.04528415183071047
0.04575103109702468
0.04608348486945033
0.046338322088122365
0.04616551777347922
0.045625795368105175
0.04566579927690327
0.046182150468230244
0.0458920311043039
0.04480000501964241
0.04357254322618246
0.043707747752778234
0.04485065419692546
0.045905818962492045
0.04601771012414247
0.04713271064683795
0.047437454373575744
0.04793341233860701
0.04879569283686578
0.0482561912573874
0.04759436192922294
0.047707670037634674
0.047410979233682156
0.04718448059633374
0.04750026509631425
0.04821743818931282
0.04865665457677096
0.049165661484003066
0.04989087807945907
0.0498551244661212
0.05078561833128333
0.052614556052722035
0.0540238731354475
0.05397164788097143
0.05402222412172705
0.05346730329096317
0.05439521202351898
0.055651555904187265
0.056083176527172325
0.05613095630891621
0.05629016692750156
0.05664059370290488
0.05686566198710352
0.056535314326174556
0.057093614032492045
0.057341860923916105
0.057238663733005526
0.05758827014360577
0.05811813116073608
0.05845538229681552
0.05856000834144652
0.058221063357777894
0.05820338689722121
0.05922606413252652
0.05999088232871145
0.05906469511333853
0.05796475699637085
0.05748110590036958
0.05740536226890981
0.057163471863605084
0.05695957282558083
0.057155630574561654
0.05719401038251817
0.056836194414645436
0.05610323807690293
0.05545781891327351
0.05466690889559686
0.05438887508120388
0.05432150095701218
0.053807420814409854
0.052622423483990134
0.05128966934513301
0.05088952880352735
0.051120496056973934
0.050324658248573545
0.049503422123380006
0.049224748015403746
0.04915675934869796
0.048855956043116745
0.04855510699562728
0.04869009069632739
0.04880894444417208
0.04881958986166865
0.048963312492705885
0.04919452563859522
0.04992093723732978
0.05028111487161368
0.05044932878110558
0.05072975594550371
0.05099749621935189
0.05140025152824819
0.05134055506903678
0.051374710882082585
0.05203631621319801
0.05224728468805551
0.05196857236325741
0.05313476653303951
0.05332104996778071
0.053836895325221124
0.05378831928595901
0.05343422656413168
0.05310141820460558
0.05351599629037082
0.05474142776336521
0.055556699186563495
0.05560516417492181
0.05510380520485342
0.05464810929261148
0.054592187111265955
0.05492884596344084
0.05500902443192899
0.05468160172458738
0.053193991910666226
0.052040996747091416
0.05241398178040981
0.05131497879512608
0.05110049335286021
0.05086654612794519
0.05011844791471958
0.04983944809995591
0.04959343671333045
0.049586265468969944
0.04913421663455665
0.04904498332645744
0.04865080771967769
0.04777579035144299
0.04690631525591016
0.04579128112178296
0.045286560556851325
0.04581417006440461
0.04449537738692015
0.042750576650723814
0.042486656038090584
0.042770437635481356
0.041608215435408054
0.04159103388898075
0.04090793336275965
0.04014252432156354
0.03955259568989277
0.03993475670926273
0.039304523747414354
0.038371536983177065
0.03798930597957224
0.038099131998606026
0.03752294355537742
0.036850808556191626
0.036798344794660806
0.03690820619929582
0.036293568275868895
0.036753857140429315
