0.010440407984424383
0.010432371087372303
0.010401961684692651
0.010375615924131125
0.010378304603509605
0.010396205205470323
0.010401178884785622
0.010384915443137289
0.01036262838402763
0.01033955259481445
0.010298961752559989
0.010255650337785482
0.010264954576268793
0.010328107725363224
0.010374443931505084
0.01038051187293604
0.010388563610613346
0.01039439494954422
0.010360411975998431
0.010308015590999276
0.01027977687306702
0.01028073313413188
0.010309104586485773
0.01036452189553529
0.010425958826672285
0.010478701510000974
0.01052159454440698
0.010533362056594341
0.010505979158915579
0.010478414327371866
0.010470431086141617
0.010457149385474622
0.010435522571206092
0.010427218098193407
0.010426614782772958
0.010420247793663294
0.010422793657053262
0.010438513837289064
0.010434467988088727
0.010396304514724761
0.010357031875755637
0.010335960960946976
0.010318822674453259
0.010308730106335134
0.010317648185882718
0.010323765436187387
0.010317492831964046
0.010357923158444464
0.010468861327972263
0.01054353903979063
0.01050220816861838
0.010427467732224614
0.010419801902025938
0.010454920285847038
0.010458590723574161
0.010426559103652835
0.010402575274929405
0.010380609324201942
0.010331987189128995
0.010293805887922645
0.010306957615539432
0.010329487482085824
0.010310569137800485
0.010277104307897389
0.010267616042401641
0.010241328505799174
0.010157868037931622
0.010089177866466343
0.010110982493497431
0.010165641712956131
0.010164920596871525
0.010112737184390425
0.01004582575056702
0.009967946065589785
0.00988912418950349
0.009852210849057883
0.009874532532412559
0.009912077805493026
0.00992411880986765
0.009925266983918846
0.0099427737807855
0.009973999527283013
0.010001163783017545
0.010014298828318715
0.01001107873627916
0.009983971938490868
0.009929642893839628
0.009860465528909117
0.009800354414619506
0.00979436856461689
0.009867503209970891
0.009960312289185822
0.010004292549565435
0.01001757716294378
0.010038748004008084
0.01006695015821606
0.010107722720131279
0.010174571904353797
0.010233745330478996
0.010227251430042088
0.010178040631581097
0.010180085774045437
0.01025194390444085
0.010326933236792684
0.010368647153954953
0.010382543744053691
0.01037829058477655
0.010370670608244837
0.01036756198387593
0.010365200066007673
0.010364710204303264
0.010357492719776928
0.010326627779286356
0.010290478635579348
0.010286512700840831
0.010307850928511471
0.010309907854534686
0.010279726227745414
0.01025521732866764
0.010270571659784764
0.010317885519471019
0.0103547578654252
0.010333088033366949
0.010252114282920957
0.010166760967113078
0.010113225737586617
0.010081430699210614
0.010061437280382961
0.010051528762560338
0.010044966291170567
0.010044329643715173
0.010063136226963252
0.010103150221984833
0.010144744161516428
0.010167500777170062
0.010163902244530619
0.01014080354711041
0.010131135729607195
0.010162719970103352
0.010203702375292778
0.010202534273266792
0.010160849522799253
0.01010864166310057
0.01007069947430864
0.010073754042387008
0.010112763536162674
0.010134922242723405
0.010107541102916002
0.010076577784493565
0.010104334715288132
0.010167888111900537
0.01019741417374462
0.010186184025369584
0.01018466370878741
0.01021243806462735
0.010229712771251797
0.01020206477260217
0.0101694205426611
0.010192049080505966
0.010242139273323118
0.01024293900700286
0.01019234830280766
0.010152143442537636
0.01014013179577887
0.01014391144970432
0.010192747521214187
0.010272531290538608
0.01028708232799545
0.010213867626152933
0.010131560936570168
0.010087235805112869
0.01007836621021852
0.010108792118262499
0.010178789815399795
0.010254320225212723
0.010283978953957558
0.010255437227897346
0.010216518673114478
0.01020061203977093
0.010180321608204394
0.010153865485917776
0.010162256613839418
0.010184740570839495
0.01016115558333695
0.010110414782539011
0.010113329822197557
0.010196194613818078
0.01029606900177896
0.010331306236330419
0.010281972570810467
0.010214215945452451
0.010210288355592638
0.010250593463424593
0.010246109678409993
0.010202828913461416
0.01019937896169722
0.010219913085456937
0.010190735815558582
0.010141191908624024
0.010156665521208197
0.010212421410251409
0.010214699138887227
0.010161448479630053
0.010114387178327888
0.010085741316433996
0.010070771507453174
0.010086704029235989
0.010122674119193107
0.010153282403480261
0.010179607376921923
0.010198440137319267
0.010186253674328327
0.01013139202259481
0.010068602713290601
0.010052905369084328
0.0100744245108217
0.010077899212483317
0.010061604485381395
0.010061443885788321
0.010077444640919565
0.010079821038525552
0.010066564227454364
0.010069052090402692
0.010094794910401106
0.010118724333588035
0.010127740115858614
0.010124825842212885
0.010118779654148966
0.01012984135420993
0.010165932918898762
0.010202547044027597
0.010198500766418874
0.010132370674982667
0.010036075946409255
0.009969385201111436
0.009965426120907069
0.010000330838374793
0.010011925182770937
0.009985541924834251
0.009985166457481683
0.010049959744792432
0.010123462276533246
0.010141998678445816
0.010112561180721968
0.010065783017780631
0.010029539307579398
0.010026011916343123
0.01002563262823969
0.009979370709042996
0.00990852709626779
0.009886929851491004
0.009945227166172117
0.010029591440688818
0.010062093967571855
0.010041852660942823
0.010041913967579603
0.010088720961939544
0.01013191152131185
0.010145646599121393
0.01015692721819505
0.010189524721354246
0.010237645828165115
0.010266873156651854
0.010259411339648068
0.010248439610004425
0.010260199897456914
0.01028577814111486
0.010314781141933054
0.010327138798311352
0.010305192924570293
0.010280722067691386
0.010298022679053246
0.01033440527971834
0.01032343699131161
0.010256153549998998
0.010204790746793152
0.010224926986265927
0.010263021697755902
0.0102426964067854
0.010202138954773544
0.010200468373950571
0.010205320888198912
0.010197727978229522
0.010220532438252121
0.010271554014179856
0.010278475631494075
0.010202338784001768
0.010111464387737214
0.010106392414309084
0.010194859553594142
0.01029047419084236
0.010302922488190234
0.010243043748196214
0.010216647170018404
0.01025244690477848
0.010266580756288023
0.010219663039315492
0.01015368569176644
0.010115231999661774
0.010124129126779735
0.010157405899371951
0.01016198766650632
0.010126510972622783
0.010098678711801767
0.01010786772472784
0.010131076218094677
0.01015046400250867
0.010162626740057022
0.010147055920679122
0.010112206377089024
0.010095117362216115
0.01009431921876967
0.010104937693104148
0.010140355790499598
0.010156672298908234
0.010100401297677308
0.010033423076383769
0.010044774760026486
0.01010003819828853
0.010121016819030047
0.01010833574924618
0.010103237142320722
0.010120850743260235
0.01015128448838368
0.010176706437487155
0.010187371501233429
0.010203991243615746
0.01024331663735211
0.010258304299786686
0.010197134506888687
0.010113015831448137
0.01011686354642734
0.010226449212059379
0.01035607828758657
0.010433899818453938
0.010443061825353652
0.010403466743882745
0.0103646184457466
0.010352774609345942
0.010338568568695337
0.01029950414551422
0.010270711032208056
0.010300472213421017
0.010379841695539653
0.010451362645253539
0.010468693512957544
0.010440441227983684
0.01043107773642987
0.010480596632696688
0.010543563377577812
0.010556910268496722
0.010514972091186792
0.01045777665451169
0.010435192480217665
0.010463195599149912
0.010492995721288026
0.010468898431863636
0.010409681592136621
0.010371014070697128
0.010357761825434863
0.010338647470343859
0.010306356535293161
0.010276889270171523
0.01025681319180876
0.010226365900598467
0.010160936368629336
0.010076460449490697
0.010024920916184782
0.010036113397218287
0.010090058378409594
0.010150511977262794
0.010188178902026265
0.01017461958574131
0.01012797002447769
0.010121083008125425
0.010155930363107473
0.0101513686706312
0.010113857605028897
0.010125545389018952
0.010171875765081495
0.010186603050678969
0.010182610829360783
0.010193492658436299
0.010198852843604982
0.01017940305871889
0.010161972139030695
0.01017514490056783
0.010195268795359879
0.010182008685078472
0.010136863957159221
0.010066865081898867
0.009990631970576942
0.009969226270914077
0.009995551232714206
0.009982549811247736
0.009925181895960122
0.009915739079006017
0.009995215595699847
0.010080951312556864
0.01008329207310453
0.010047735816333442
0.010071019986644386
0.010145768127404153
0.010205585563089698
0.010221418926957994
0.010186102804727853
0.010110737076029181
0.010062986647244542
0.010094527052715421
0.010142625092994422
0.010134158618748189
0.010096502888482064
0.010060565767344088
0.010010346046183258
0.009975033961236477
0.010005288033280522
0.010063275289721786
0.010098346564918757
0.010148227589670569
0.010225890113506466
0.010270166958216578
0.010261960492935032
0.010235268021933735
0.010204275278374553
0.010175553341396153
0.01018240643432364
0.01022606281330809
0.01024606272112578
0.010229767437558622
0.010241012293845416
0.010281640831381082
0.01027479559648782
0.010204673728439957
0.010127189385239035
0.01008385006338358
0.01009487843606621
0.01014952310360968
0.010184527477249503
0.010156169526744634
0.010097294878214598
0.01005747937131673
0.01005121607799083
0.010059579219669103
0.01003852098947391
0.009968159750569612
0.009889253061264753
0.009848051518201829
0.00984643554314971
0.009867463356349616
0.00989781812299043
0.009914969785604626
0.009897350126411766
0.009862110381945968
0.00984408417949453
0.009829720240086317
0.009798991398420186
0.009803467302117497
0.009871055274270474
0.009926848344039172
0.00992726958123967
0.009926363921258598
0.009956193850375711
0.009986306701321154
0.010000885766930877
0.010010990635491908
0.010019319027196615
0.010026303394697606
0.010031057235319168
0.010025187330320477
0.010008101081475616
0.009978224381338805
0.009932540371082724
0.009907152985688299
0.009933622498065233
0.009969917589332909
0.009992258369456976
0.01004202852025628
0.010112053824122995
0.010143815835472197
0.01011540389386937
0.01004670909140259
0.009971358636394144
0.009920123401097953
0.009916138728149235
0.009961518391501159
0.01002377713797614
0.010075424790848046
0.01012416826793924
0.010170101423282176
0.010193792860955
0.01020947161829099
0.010234873911831527
0.010235412023030221
0.01020799153484404
0.010207758205942809
0.010228950646705925
0.010208693186286836
0.01014118194580078
0.010081864865496755
0.01006040808511898
0.01005057770991698
0.010034397908020765
0.010025478661991655
0.010019967595580966
0.010008779144845903
0.00999899544287473
0.009982559373602271
0.009947783031966537
0.009913536263629794
0.009914828762412072
0.00995480756741017
0.010006136402953416
0.010059690962079912
0.010109170870855451
0.01013234086567536
0.010133872523438186
0.010135774144437164
0.010122191163245588
0.01006933188997209
0.010022499728947878
0.01004755198257044
0.010116411943454296
0.010146527790930122
0.010122365702409297
0.01008940392639488
0.010063255603890866
0.010026810532435775
0.009997796940151602
0.01000554574187845
0.010024526016786694
0.010015582472551614
0.009985760941635818
0.009966769514139742
0.009985752205830067
0.01002993390429765
0.010033994624391198
0.009986742122564465
0.00997833624482155
0.01005380941554904
0.010142413075082004
0.010177231768611818
0.010164105358999222
0.010137488481123001
0.010133881822694093
0.010171323053073137
0.010228094807825983
0.010275057938415558
0.010291491127572954
0.010273830180522055
0.010270432219840586
0.010317404780071229
0.010370446357410402
0.010378225890453905
0.010350616164505482
0.010338174330536276
0.01036325391381979
0.010373141712043434
0.010325634696055203
0.010279342830181122
0.010291796585079283
0.01030808434356004
0.010261727308388799
0.010190129671245813
0.010160270188935101
0.010174029252957552
0.0101974408631213
0.010216471147723496
0.010237294451799243
0.010256129722110928
0.010257195129524917
0.0102417076472193
0.010233018761500717
0.010242606373503804
0.010255214509088546
0.01024918229551986
0.010204741314519197
0.010141393751837313
0.01013481840956956
0.010211737994104624
0.010308769296389074
0.010372320094611497
0.010397411207668484
0.010393336368724703
0.010369281615130604
0.010335652076173573
0.010309796915389597
0.010295537211932241
0.010274106909055263
0.01024970896076411
0.010244015334174038
0.010240331979002804
0.010208917879499495
0.010166162406094373
0.010147696938365697
0.010160739412531256
0.010196711272001266
0.010238677978049964
0.010263452220242471
0.010275258244946598
0.01028376042842865
0.010257512060925365
0.010185743328183889
0.010127601851709188
0.010115461561363191
0.010112630978692323
0.01012160004582256
0.010179526505526155
0.010234319006558508
0.01021003739675507
0.010144960512407123
0.010118767116218806
0.010141396236140281
0.010173591300845147
0.010182045712135733
0.01017455117078498
0.010183018287643791
0.010198988835327327
0.010184441118035466
0.010149534267839044
0.010134190791286529
0.010133879047352821
0.010129828008357435
0.010143833009060473
0.010185569678433239
0.010208460448775441
0.010184142121579498
0.010150880524888635
0.010137090303469449
0.010113314825575799
0.01006672112736851
0.010043471900280565
0.010061999908648431
0.010070046538021415
0.010032356528099626
0.00998443917138502
0.009984034395311028
0.01003159249201417
0.010051467739976942
0.009992450689896942
0.009903252271469683
0.009858702160418033
0.009875015292782336
0.009913134404923767
0.009926030614878982
0.009909895111341029
0.009896652777679265
0.009887681643012911
0.009844787290785462
0.009751906546298414
0.00964121859986335
0.009560616428498179
0.009531112699769438
0.009538351122755558
0.009554752800613641
0.009558495390228927
0.00954294032882899
0.009516187971457838
0.009490946396254004
0.009463007454760372
0.009429768465925008
0.009427520104218275
0.009481026106514037
0.009561684655491263
0.009630118147470057
0.009673983159009367
0.009715962437912822
0.009771322219166904
0.009812304168008268
0.009826955529861152
0.009852927767205984
0.009912766695488245
0.009971095724031329
0.009983427335973828
0.009960499748121947
0.00995727528585121
0.010005854966584593
0.010064496162813156
0.010048313876613974
0.009940953960176557
0.00983685397543013
0.009823475005105138
0.009880617121234536
0.009944873587228358
0.009989889347925782
0.010004322819877415
0.00997697104467079
0.009921655310317874
0.009866189358290285
0.009829057357273996
0.009813370709307491
0.009807056388817728
0.00981420133030042
0.009857688390184194
0.009910284569486975
0.009899416475091129
0.00982068340294063
0.009765647968742996
0.009789377790875733
0.00982427969109267
0.009806735427118837
0.00978799324017018
0.009814418731257319
0.009842058338690549
0.009844864257611335
0.009855434731580317
0.009877366193104536
0.00988264376996085
0.009878638002555817
0.009881342470180243
0.009877108195796609
0.009867445039562881
0.009871379123069346
0.009883133182302117
0.009887376171536743
0.009877805944997818
0.009850500212050974
0.009833884725812822
0.009870776303578167
0.009917058006394655
0.009885161684360355
0.009799082884564997
0.009741770338732749
0.009713204186409712
0.009690767917782069
0.009709691717289389
0.00977148411097005
0.009806832536123694
0.009800339394714683
0.009817448873072863
0.009869133019819856
0.009886245101224631
0.00985674893949181
0.009853484246414156
0.00989893690450117
0.009931438958738
0.009905624717939645
0.009839757694862783
0.009792450587265194
0.009800892206840217
0.009834981421008707
0.009848978894297034
0.009840967843774705
0.00982473640004173
0.00979240811895579
0.00975350711029023
0.00975689826067537
0.009813904524780809
0.009878214851487427
0.009923081968445331
0.009952883357182146
0.009975053763482719
0.009996289608534426
0.009998645174782723
0.009967383572366088
0.009941102457232773
0.009957552286796272
0.0100156407430768
0.010104612347204238
0.010184769991319627
0.010200971141457557
0.010166330095380545
0.010142573295161128
0.01013864434324205
0.010124040562659501
0.010105898845940828
0.010093602503184229
0.010050387610681355
0.00997495444258675
0.00993153237272054
0.009929569060914219
0.009902465601917355
0.009833561284467577
0.009770918069407344
0.009732535891234875
0.0097020538081415
0.009672739244997501
0.00964870336232707
0.00964320227270946
0.009665712746791542
0.009685055571608245
0.009648627103306353
0.009566078272182494
0.009497693802695722
0.00946428376948461
0.009459811253473163
0.009494673484005034
0.009573728367686272
0.009670446699019522
0.009736472861841322
0.009768091777805238
0.009821702460758388
0.009900451281573623
0.009928969799075276
0.009898795294575394
0.00989952439442277
0.009953579283319414
0.009981242928188295
0.009959322391077876
0.009946919956710189
0.009968344510998577
0.009989675981923938
0.00997963416390121
0.00994150001788512
0.00990032237721607
0.009884901912882924
0.00990873530972749
0.009948410834185779
0.009977305161301046
0.010012252384331077
0.010069583407603205
0.010124515355564655
0.010150377554818988
0.01014758424134925
0.010142097305506468
0.010154192531481386
0.010165641393978148
0.010142443827353418
0.010075424262322486
0.010013277563266455
0.010019995803013444
0.010073319755028932
0.010109121580608189
0.010132660444360226
0.010163300298154354
0.010155515952501446
0.0100879045878537
0.010030957087874413
0.010038453883025796
0.010072960539255292
0.010078807431273162
0.010067598302848637
0.010094719240441918
0.01014083712361753
0.010127623719163238
0.010070254032034426
0.010056121349334717
0.010098724958952516
0.01013422254472971
0.010133608353789895
0.010147060067392886
0.010205951314419507
0.010249444097280503
0.010240526155102998
0.010239049619995057
0.010263408836908638
0.010250366434920579
0.010201108157634736
0.01018488474888727
0.010202717245556414
0.01020428485237062
0.010197023022919893
0.010220586964860558
0.010268562310375273
0.010299125905148684
0.01028990105027333
0.010259264183696359
0.010224482594057917
0.010175824877806008
0.01012780609773472
0.010116476335097104
0.010128294404130428
0.010126047036610544
0.010113083303440362
0.01009872327093035
0.010063482935074718
0.010012481668964028
0.010007321597076952
0.010080418537836523
0.010163220886606723
0.01018197966972366
0.010165117126889526
0.010173581261187791
0.010204368343111128
0.010222311681136489
0.010211817831732332
0.010190757468808442
0.010206229873001576
0.010270804092288017
0.01032589852809906
0.010334700604435056
0.010344762944150716
0.01038590720621869
0.010421313953120261
0.010444661278743297
0.010477709891274571
0.01048790654167533
0.010432339028920979
0.010340541352052241
0.010279523585923015
0.010261034534778446
0.01023169195977971
0.010162161483895033
0.010096445525996388
0.01007460111286491
0.010070873969234527
0.010057025137357414
0.010040472308173776
0.010021280413493514
0.010000726697035134
0.009997111109551043
0.010007934214081615
0.010010731145739556
0.010004980603698642
0.010011358032934368
0.01002099349629134
0.010005658664740623
0.009986281387973577
0.0100037586200051
0.01004312417237088
0.010056075868196785
0.010021374833304435
0.009971107407473027
0.009969563153572381
0.010019215396605432
0.01004304686561227
0.01001888328930363
0.010014898574445397
0.010060849920846522
0.010102972374297678
0.010105685519520194
0.010094164595939219
0.010078523333650082
0.010045131901279092
0.01001741928048432
0.010026517135556787
0.010052366559393703
0.010060736772138625
0.010053929009009152
0.01004319746978581
0.010038869185373188
0.010060389952268451
0.01008134204428643
0.010062238750979304
0.010041881506331264
0.010054746314417572
0.010068834905978293
0.010073770412709564
0.010083928890526294
0.010091144521720708
0.010085339373908937
0.010064749040175229
0.010033579482696951
0.010003097946755588
0.009987416295334697
0.010007512758020311
0.010067913038656116
0.010137684729415923
0.01018915520515293
0.010225177842658013
0.010241708639077841
0.010204861040692776
0.010126249552704393
0.010085959911812097
0.010102138966321944
0.010106694833375514
0.01008631665026769
0.010092148317489773
0.010119531955569982
0.01012282896321267
0.010109011239837856
0.010112172777298837
0.010130278652068227
0.01013416374102235
0.010110056777484715
0.010086162881925702
0.010096900796052069
0.010116188805550336
0.010085288274567575
0.010008347830735146
0.0099529377813451
0.00996338157216087
0.010013671827036887
0.010047489739954472
0.010054700719192624
0.010068621034733952
0.010093684520106762
0.01009154409635812
0.010039819742087275
0.009991024429909885
0.01001291976077482
0.010058610900305211
0.010043054481502622
0.010000593557488174
0.00998868066817522
0.009968605120666324
0.009914235731121152
0.009879067807924002
0.00989635890815407
0.009929930211510509
0.009939163024537265
0.009938723924569785
0.009964418078307063
0.010009693705942482
0.010047634264919907
0.010067229948472232
0.010067598232999443
0.010074646489229053
0.010119262514635921
0.010167626650072634
0.010163455281872302
0.01013162215705961
0.0101385543262586
0.010186324836686253
0.010225125297438353
0.0102269873698242
0.010207635818514972
0.010196645965334029
0.010196921736933292
0.010182397200260311
0.010140096021350473
0.010087144924327732
0.010028882895130663
0.009955749646760523
0.009893750965129584
0.009882812481373548
0.009917735503986478
0.009955458685290068
0.009971844346728176
0.009995382083579897
0.01004691791255027
0.010085993602406234
0.010084868823178113
0.01007154377643019
0.010053186560980976
0.01001464618369937
0.009996069492772222
0.010038022249937058
0.010079285488463938
0.01004472527652979
0.00997170431073755
0.009931841851212084
0.00993795413058251
0.009975602361373603
0.01001421724446118
0.010023828600533307
0.010006618364714085
0.009977660574950278
0.009963312749750913
0.00998209803365171
0.009999515186063946
0.009978408236056566
0.009948314744979142
0.009959664042107762
0.010004160497337579
0.010018734149634839
0.009956646771170198
0.009842032971791924
0.009758275947533548
0.009766848627477884
0.009839514633640647
0.009894953048788012
0.009878054866567254
0.009812922580167652
0.009787351223640144
0.009843302397057415
0.009919095984660089
0.009941720571368932
0.009922640752047301
0.009918107907287777
0.009932557344436646
0.009922807216644286
0.00988706502597779
0.009873773073777556
0.009904377618804574
0.009944017371162772
0.009935958930291235
0.009879224239848555
0.009854287542402744
0.009905306943692268
0.009975716504268348
0.009993958026170731
0.009955800478346646
0.009920474761165678
0.00992325069848448
0.00993688358925283
0.009935784591361881
0.00992620368488133
0.009925805432721972
0.009928352935239672
0.009900084319524468
0.009860177943482994
0.00987769697792828
0.009942387314513326
0.009973678034730255
0.009963115877471864
0.009981111264787615
0.010050867469981312
0.01011206246446818
0.010126520283520221
0.010127618173137308
0.010137876933440567
0.010140851838514209
0.010130961798131466
0.010113333365879953
0.010093381628394127
0.010084986318834126
0.010068924156948924
0.010001283916644753
0.009914489570073784
0.009888590821065009
0.009933475111611188
0.010000877799466252
0.010035893702879549
0.010007614744827151
0.009950301074422897
0.009915507584810256
0.009903873237781226
0.009898965605534613
0.00990691224578768
0.009942740518599748
0.009996368624269962
0.010024052420631051
0.01000481190159917
0.009976701247505843
0.009976023300550878
0.009979919134639203
0.009962330195121468
0.009950393419712782
0.009955131509341299
0.009935617842711509
0.009889319096691907
0.00987149381544441
0.009901560405269265
0.009946218580007554
0.00997831517830491
0.00997254546266049
0.009903754978440702
0.00981938217766583
0.009807868418283761
0.009855164648033678
0.009876786759123206
0.009860995532944799
0.009849304803647102
0.009862791365012526
0.009904895476065576
0.009966386305168272
0.010018669236451387
0.010033067264594138
0.010016458472236991
0.00999892592895776
0.009994997708126903
0.0100043234648183
0.010009337197989226
0.009982382552698255
0.009942253148183226
0.009954600180499255
0.01003478541970253
0.01011317535303533
0.01012590190395713
0.010086224563419819
0.010051563968881965
0.01004651717375964
0.010046763722784817
0.010034399344585837
0.010012024245224894
0.00997793283779174
0.00994928291067481
0.009959452510811389
0.009984109257347882
0.0099613351887092
0.009911314146593212
0.009903145297430456
0.009920755764469505
0.00990174500271678
0.009859929601661861
0.009866166948340834
0.009925550473853946
0.009961035004816949
0.00994216802995652
0.009924252605997027
0.009941096068359911
0.009959410415031017
0.0099595977505669
0.009971959781832993
0.009997337982058525
0.00999595148023218
0.009970767684280872
0.009966794988140465
0.009997928841039538
0.010033094198442996
0.010055402582511306
0.010074940486811101
0.010071160965599119
0.010027377414517105
0.00998873525299132
0.009971135025843979
0.009935571150854229
0.00989797689486295
0.009895895794034004
0.00991050316952169
0.009933364926837385
0.009976083901710809
0.009999370095320046
0.00996486760675907
0.009918703990988433
0.009924289239570498
0.009979679314419627
0.010052401507273316
0.010104768336750567
0.010102258883416653
0.010052745915018022
0.009991879612207412
0.009951873165555299
0.009958832175470889
0.010021179197356105
0.010109659694135189
0.010147197018377484
0.01008267258759588
0.00996808156836778
0.009886564235202969
0.009881756310351193
0.00996157665271312
0.010061432239599526
0.010084449695423246
0.01003991580568254
0.010014720396138727
0.010021899053826928
0.010017417850904167
0.010000839652493597
0.009997416217811406
0.010015711705200374
0.010041557475924492
0.010033276220783592
0.00998086086474359
0.009954392607323826
0.010003759288229047
0.010077183838002384
0.010113258231431246
0.010134394988417625
0.01019380521029234
0.01026426684577018
0.010258314358070493
0.010169263603165746
0.010080963419750334
0.010042095039971173
0.010025246031582356
0.00999333169311285
0.009958707788027822
0.009938770974986254
0.009904996808618307
0.00985467472113669
0.009834118857979775
0.009864124129526317
0.009935517297126353
0.010018839882686734
0.010055904178880155
0.010017851940356195
0.00993168169632554
0.009837650218978524
0.00977111036889255
0.009760388429276646
0.009816312501206993
0.009917742093093693
0.010013736095279455
0.010069619053974748
0.010089905494824051
0.01007696426473558
0.010030019152909518
0.009997880435548723
0.01004329685587436
0.01013296419288963
0.010166270914487541
0.010140886744484306
0.010147238280624152
0.01018638321198523
0.010181956109590828
0.010144366035237908
0.010125496219843625
0.010092280469834805
0.010006175390444697
0.009920453419908881
0.009893098091706633
0.009897577124647797
0.009889892893843353
0.009892810466699303
0.009956563883461058
0.010070961667224765
0.010157771673984826
0.010173140903934836
0.010172261479310692
0.010195643161423504
0.01019971786532551
0.010183622725307942
0.010206310413777828
0.010259993472136558
0.010302179278805852
0.010341182579286396
0.010383535423316062
0.010396406520158052
0.010351926609873772
0.010264479462057352
0.010189910898916424
0.010169575801119208
0.010179942287504674
0.01017898659221828
0.010177414128556848
0.010193184572272003
0.010186661491170526
0.010160605031996965
0.010194327235221862
0.010268329354003071
0.010286604748107492
0.010268391254357993
0.010275908103212715
0.010264712325297297
0.01017233510967344
0.010055103171616793
0.010022679804824292
0.010082608154043556
0.010141057414002716
0.010125074931420387
0.010052331676706671
0.009997107652015984
0.010008585369214416
0.01006597351282835
0.010116213164292277
0.010144790769554674
0.010160849103704095
0.010160141712985933
0.010160531429573894
0.010177131164819003
0.010184778021648527
0.010200659520924091
0.01027406263165176
0.010362845952622593
0.010393449603579939
0.010383440814912319
0.01037570733577013
0.010366421439684928
0.010345442546531558
0.01031337641645223
0.010281371022574603
0.01028009595349431
0.010308537045493721
0.01031035020481795
0.01026191344950348
0.010209940923377871
0.010187700078822672
0.010197058352641761
0.010252040131017565
0.010324619598686696
0.01033396010287106
0.010268505341373383
0.010200837966986
0.010167620470747351
0.010147533281706273
0.01014468823093921
0.010198472188785673
0.010301810009405016
0.0103872711956501
0.01041915109846741
0.010423807236365974
0.010412007942795754
0.010365019161254168
0.010301029654219746
0.01026688146404922
0.010280286115594207
0.01032570330426097
0.010373420948162675
0.010390258175320924
0.010378409479744732
0.01038342018611729
0.010408345353789627
0.0104116195673123
0.010420323489233852
0.010483926124870778
0.010547677837312221
0.010555491424165666
0.010573297590017319
0.01064879132900387
0.010706168757751584
0.010694751148112119
0.010675423122011125
0.010690790950320661
0.010691699092276394
0.010627504540607333
0.010516137918457388
0.010416472675278782
0.010363417603075504
0.010332142938859762
0.010286308513022958
0.010242584133520723
0.010236970968544484
0.010258617475628853
0.010261610043235123
0.010217328919097782
0.010135395610705018
0.010048501729033887
0.009993535224348307
0.009988423227332533
0.010008277236483992
0.010018490827642381
0.010027695619501174
0.010065236445516348
0.010113334893248975
0.010105753829702736
0.010036928630433976
0.010000599380582571
0.010031932718120515
0.010052954060956836
0.010037234756164254
0.010030260747298599
0.010028707538731396
0.01001387004274875
0.01002313224133104
0.010097967176698149
0.010217032274231314
0.010307191698811948
0.01032689746003598
0.01032096385024488
0.010353890843689442
0.010424800389446319
0.010482832002453505
0.010483672902919352
0.01042242830619216
0.010333194667473435
0.010252522020600736
0.010200635120272637
0.010189501601271331
0.010209083813242615
0.010225718221627177
0.010225526792928576
0.010220705652609468
0.010198092777282
0.010136146624572575
0.010079349773004651
0.01010064479894936
0.010180976302362978
0.010214843736030162
0.010158276516012848
0.010092436056584119
0.010093272202648223
0.010120513206347824
0.010105129280127585
0.01006127025000751
0.010042143859900534
0.010059441099874675
0.010093852216377854
0.010125013296492397
0.010136198485270143
0.010140373320318759
0.010169632080942393
0.010194256161339581
0.010150784789584578
0.010080833625979722
0.010095203160308302
0.010196801177226007
0.010268990872427821
0.010228389189578593
0.010119832600466908
0.010045992541126907
0.010035161701962352
0.010036106607876717
0.010010793418623508
0.009976844359189272
0.009977950919419528
0.010013384600169957
0.010025808531790971
0.00999570549465716
0.009976930189877749
0.010005134735256433
0.010052038226276636
0.01009408467914909
0.01014055267907679
0.010164557574316859
0.01011708795093
0.010037947976961732
0.010006069978699088
0.010000425763428212
0.00996963968500495
0.009948766632005572
0.009978618170134724
0.010023235534317792
0.010042555755935609
0.01004526301752776
0.01003689229954034
0.010008193962275981
0.009979582452215254
0.009974776515737176
0.009985057055018842
0.010008784127421677
0.010044915522448718
0.010055335015058517
0.010025789509527386
0.010013452991843223
0.010058027510531246
0.01011484586633742
0.010134404539130629
0.010124628338962794
0.01011453574988991
0.010125827277079225
0.010159524255432189
0.010184163353405893
0.010162612567655742
0.010101495729759335
0.01006733841728419
0.01011237663216889
0.010179172265343367
0.010165877193212509
0.01008224077988416
0.010023718927986919
0.010023434655740857
0.010042010205797852
0.010049013281241059
0.01003504839260131
0.009988352498039603
0.009914135183207691
0.009853490442037583
0.009840933014638722
0.009861758342012764
0.009869830096140503
0.00984255198854953
0.009812458544038236
0.009815190210938454
0.00984229616355151
0.009883345644921064
0.009935500379651786
0.00997129402589053
0.00997187132947147
0.009954809015616774
0.009951329817995428
0.009971288498491049
0.009978086045011878
0.00994702645111829
0.00991516515146941
0.009894736758433283
0.009846282065846026
0.009798358199186624
0.009825806804001332
0.009890436073765158
0.009896696829237044
0.009866675334051252
0.009882425535470247
0.009943059249781071
0.01000719356816262
0.010072385566309095
0.01013622506055981
0.010160634182393552
0.010129885766655206
0.01008551359642297
0.010059163179248572
0.010046738293021917
0.010064428159967064
0.010130371521227062
0.010195827172137796
0.010184267754666507
0.010093729272484779
0.009994529150426389
0.009944297731854021
0.009947277721948922
0.009962836713530123
0.0099433280993253
0.009890658198855817
0.009863286740146577
0.009892557617276906
0.009919259939342737
0.009891071915626526
0.009858644329942762
0.009868426965549588
0.009879396818578244
0.009857922806404532
0.009824692592956126
0.009807241586968303
0.009808516232296824
0.009803526089526712
0.009789035595022142
0.009799500731751322
0.009838089188560844
0.009875028431415557
0.0099012862239033
0.00992441130336374
0.009945834022946656
0.00995433930773288
0.009943404840305448
0.009930815803818405
0.009936391622759402
0.00996077825780958
0.009987080339342355
0.009993385598063469
0.009981362959370016
0.009967386750504374
0.009947327109985053
0.00991898843087256
0.009900202071294188
0.009887908035889268
0.009865366802550853
0.009840599312447011
0.009819028377532958
0.00979130961932242
0.009771983842365444
0.009781385180540383
0.009802664350718259
0.009814193318597973
0.00982496135868132
0.009843023144640028
0.009836585391312838
0.009774898388423025
0.00972360599320382
0.00977971947286278
0.009892682670615613
0.009940827381797135
0.009935420253314078
0.009952908074483275
0.009982784795574844
0.009979325286112726
0.009958187839947641
0.009961707261390984
0.009986863331869244
0.010005264249630273
0.010010619978420437
0.010014745541848242
0.01002569708507508
0.010038168402388692
0.010047756568528712
0.010059075811877847
0.010066803707741202
0.010055899270810187
0.01002616479061544
0.009988252180628479
0.009946414902806282
0.009912257231771946
0.009905784609727561
0.00992536392994225
0.009955904399976134
0.009996880176477135
0.010036870697513222
0.010043964539654553
0.010003591179847717
0.009937890130095184
0.00990924505982548
0.009954855861142278
0.01001562025398016
0.010032628122717142
0.010034595159813762
0.010043168356642127
0.010015608184039593
0.009940398442558944
0.009874216145835817
0.009839324173517525
0.009805508474819362
0.00978405799716711
0.009810390276834368
0.009865051410160959
0.009898928520269691
0.009900253666564822
0.009894050741568208
0.00989550827536732
0.009909739084541798
0.009942949214018882
0.009979635495692491
0.010004793754778802
0.01003235902171582
0.010072697708383203
0.010104218441992998
0.010100172385573387
0.010079548973590136
0.010084815761074424
0.01010470662266016
0.010100398296490311
0.010080061042681337
0.010075312638655305
0.01009442969225347
0.010113015156239271
0.010110072288662196
0.01012386217713356
0.010182291409000755
0.010217265533283353
0.01017013555392623
0.010090732360258698
0.010048955883830786
0.010038898871280254
0.010024879598058761
0.010009388588368893
0.010008208467625082
0.010028124954551458
0.010072435471229255
0.010119852689094842
0.010146323251537978
0.010155507903546095
0.010144157242029906
0.010105876023881138
0.01006874383892864
0.010051195821724833
0.010033335969783366
0.010018104985356331
0.010030424105934799
0.01006192373111844
0.01009971518535167
0.010154451108537615
0.010206463253125549
0.010210329773835838
0.010172958211041987
0.010137549065984786
0.010114166219718754
0.01009886640124023
0.010120196687057614
0.01018366829957813
0.010208240272477269
0.010142213576473295
0.010065337936393916
0.010056810942478478
0.010094463038258254
0.010137125891633332
0.010179058066569269
0.010219996361993253
0.010242040338926017
0.010229595061391593
0.010211432790383697
0.010230775475502014
0.010281925317831337
0.010330917541868984
0.010352212549187244
0.01034168380778283
0.010326737528666854
0.010322031774558127
0.010302741266787051
0.010270530749112368
0.01027055298909545
0.01031703204382211
0.010378492143936456
0.010417527174577118
0.010412690639495849
0.010382991791702807
0.010364103596657515
0.010350241214036942
0.010329750343225896
0.010330724040977656
0.010352481910958887
0.010345159666612744
0.010303631494753062
0.010279827574267984
0.010292128599248827
0.010301579958759249
0.010286556505598128
0.010276418630965053
0.010292977937497198
0.010315821580588818
0.010328200561925769
0.01035393116530031
0.010402164128609002
0.01042354798875749
0.010385370394214988
0.010317545863799751
0.010253604426980019
0.01021062043029815
0.01020539506804198
0.01022521598264575
0.010231761778704822
0.010225414521992207
0.01023445610422641
0.010247344868257641
0.010242249397560955
0.010236420682631434
0.010251348549500107
0.010274851084686816
0.010267913257703185
0.010213361415080726
0.010146973109804093
0.010103005594573914
0.010072243516333401
0.010040589468553662
0.010016284962184728
0.010013477867469192
0.010028769499622286
0.010039602494798601
0.010045859622769058
0.010086448532529175
0.010168995312415063
0.010234204698354005
0.010241427845321595
0.010219357246533035
0.010202662157826125
0.01019386034924537
0.010187954413704575
0.010175634319894015
0.010145080937072636
0.010102234529331327
0.010060654496774077
0.010033345860429109
0.010029629780910909
0.010037912102416158
0.010051943683065475
0.010086514158174395
0.010127055966295302
0.010126891126856209
0.010093243005685508
0.010096134492196143
0.010140041550621391
0.010141250370070338
0.010075241723097862
0.010004122680984438
0.00996190784033388
0.009945278041996061
0.0099717369209975
0.010045155081897975
0.010106573975645006
0.010100406561978161
0.010058520575985313
0.010042762961238622
0.010062590129673482
0.01009198052342981
0.01009084400255233
0.010031985943205654
0.009945845692418515
0.009897337439469992
0.009918123898096383
0.009969361443072557
0.009976502396166325
0.009903983045369387
0.009780400595627726
0.00967482605483383
0.009641403318382799
0.009651060625910758
0.009633795665577054
0.009587290743365885
0.009559121243655681
0.00956574348732829
0.009583143922500313
0.009575986671261489
0.009532022043131291
0.009477435206063091
0.009448632006533444
0.009459240795113146
0.009487919267266989
0.009503420828841626
0.00951118564698845
0.009529413501732052
0.009546998157165944
0.00955801765434444
0.009565536030568183
0.009557125307619572
0.009546178774908185
0.009565564175136387
0.009592481073923409
0.009573097145184874
0.009519606726244093
0.009493879098445178
0.009511437532491982
0.009533157655969262
0.009527915637008846
0.009500978840515017
0.00946967463940382
0.009446067549288274
0.009446677095256746
0.009472399028018117
0.009497433374635876
0.009514889470301569
0.009542444697581231
0.009574829470366239
0.009593831091187895
0.009611999336630105
0.009649428427219392
0.00968592861201614
0.009682327057234943
0.009648111928254367
0.009650947153568267
0.009726017261855305
0.009816566100344062
0.009859609361737966
0.009866491281427444
0.009861954362131655
0.00983477896079421
0.009786576768383383
0.00973641428630799
0.00968733688350767
0.009641243894584477
0.009600049545988441
0.009560515456832945
0.009537251307629049
0.009545983294956387
0.009565273988991976
0.009557935879565776
0.009513943260535597
0.00944025116506964
0.009350205063819885
0.00928056675940752
0.009258186225779355
0.009268745784647764
0.009307476375252009
0.009394974783062934
0.009499922157265245
0.009540286208502948
0.009505659779533744
0.009474206012673675
0.00948805129621178
0.009501362536102533
0.00946138083934784
0.009396931603550911
0.00937369150109589
0.009392870883457362
0.009428632571361959
0.009491096241399646
0.00957616891246289
0.009644021419808269
0.009665646976791321
0.009645264116115868
0.009620198090560734
0.009630059460178017
0.009675250090658664
0.009733857801184059
0.009785579256713391
0.009802874778397381
0.009775770087726414
0.00973842770792544
0.009719459060579538
0.009710192792117595
0.009717420525848865
0.009766106777824461
0.009840887994505465
0.009889794061891735
0.009873073878698051
0.009815548206679523
0.00980013435240835
0.009857024620287121
0.009922644882462918
0.009936582110822201
0.009901080066338181
0.009854832948185503
0.009830922661349177
0.009829363571479916
0.009836797122843563
0.009846545751206576
0.009833028353750706
0.009784763399511575
0.009749936931766569
0.009753097468055784
0.009754849672317505
0.00975156485568732
0.009777173702605068
0.009811770142987371
0.009809828847646713
0.009776097759604453
0.009753265413455664
0.009770312211476267
0.00981690657325089
0.009852532376535238
0.009850346385501325
0.00983518830500543
0.009844732717610896
0.009869769522920251
0.009881510948762297
0.00988481373526156
0.009898298946209251
0.009910349952988326
0.00989623995963484
0.009867955492809414
0.009853627132251859
0.009841754036024213
0.009821064807474612
0.009827445037662983
0.009868198488838971
0.009887614836916327
0.009868552614934743
0.0098495581606403
0.009833441823720932
0.009794848104938865
0.009741874686442316
0.009712567101232708
0.00974357503466308
0.009821413937024771
0.009885666235350072
0.009917373498901726
0.009938734536990523
0.009952670973725618
0.009965308029204607
0.009989621709100902
0.010018371059559286
0.010052666240371764
0.010101475883275271
0.010146630010567606
0.010169809209182859
0.01017882206942886
0.010190595579333604
0.010230816528201103
0.010311106988228857
0.010390933519229293
0.010430376846343278
0.010445894836448134
0.010444654384627938
0.010391317373141647
0.010299230292439461
0.010253590424545109
0.010296872626058757
0.010372551903128625
0.010419927672483027
0.010450627971440554
0.010493690352886916
0.01053067035973072
0.010537633723579347
0.010530533194541931
0.010514486697502434
0.010477615180425346
0.01043830746319145
0.010408825050108135
0.010378098404034973
0.010357386996038258
0.010364910960197449
0.01038235215935856
0.010363006866537034
0.010291450759395956
0.01023236421868205
0.010264239585958422
0.010371411540545524
0.010476271673105657
0.01054199319332838
0.01056935056578368
0.010543486597016453
0.010460486663505434
0.01038121840916574
0.010372082646936178
0.01040346730966121
0.010405373740941287
0.010383984483778476
0.010387192224152386
0.01041162810754031
0.010431438628584146
0.010461327754892408
0.01051045864354819
0.010540293105877936
0.010523260217159986
0.010481309136375785
0.010447220741771162
0.010436583189293741
0.010453710108995437
0.010481406417675317
0.010490691000595688
0.010480656670406461
0.010458267061039805
0.010420138975605368
0.010394703387282789
0.010404043975286185
0.010404638326726855
0.010362072684802114
0.010315096634440125
0.010315129179507493
0.010359105286188424
0.010406170380301774
0.010428086817264558
0.010418050927110017
0.01039135062135756
0.010391564653255046
0.010440720799379051
0.0104939095210284
0.010504455897025764
0.010506731630302966
0.01055428032297641
0.010606894539669155
0.010591363436542451
0.010541099705733359
0.010532051343470811
0.01053781013470143
0.01048743536695838
0.010391291710548103
0.010333809959702194
0.010370850507169961
0.010454492247663438
0.010501650325022639
0.010489184889011086
0.010428330460563302
0.01034680479671806
0.010289361118339002
0.01025982180610299
0.010234820451587438
0.010219311523251236
0.010209666853770614
0.010188290746882558
0.010172573034651577
0.010173036893829703
0.010154049252159894
0.01010372198652476
0.010079728211276234
0.010129490825347602
0.01019938398618251
0.010197899411432445
0.010130587504245342
0.010076487520709634
0.010055753351189196
0.010032227705232799
0.010011712778359652
0.010036212489940226
0.010107103451155126
0.010163344559259713
0.010141668729484082
0.01006020224187523
0.009995780102908611
0.009977731234394015
0.009978180630132555
0.00997693314217031
0.009977722042240202
0.010000085947103799
0.010064102830365301
0.010140844802372158
0.010163849452510476
0.010131576773710549
0.010103572495281696
0.010091728097759187
0.010063177519477905
0.010025312202051282
0.010026527703739702
0.010062726261094213
0.010051020109094679
0.00995727770961821
0.009860566230490803
0.00981913105584681
0.00978998651728034
0.009741293992847204
0.009714838429354132
0.009735677330754698
0.009767783051356673
0.009777110256254672
0.0097709690220654
0.00976328833028674
0.009756978577934205
0.009761482048779725
0.009775697370059788
0.009783800425939262
0.009787149727344513
0.00980555078946054
0.00985169212333858
0.0099086780147627
0.00994054636452347
0.009950119336135686
0.00997812269255519
0.010021191202104091
0.010042402036488056
0.010044543612748385
0.010051046423614025
0.010072827180847526
0.010105619137175382
0.010123815624974669
0.010117328125052154
0.010115810590796172
0.01014902669005096
0.010206950372084975
0.010238107517361641
0.01021461471915245
0.010186818982474507
0.010199321773834527
0.010220417408272625
0.010224086767993867
0.010218161987140775
0.010181240187957883
0.010106006301939488
0.010052470662631095
0.010051718084141611
0.010038639502599835
0.009976682313717901
0.00993862762581557
0.009954224792309105
0.009936912949196994
0.009862716840580106
0.009833305520005524
0.009894128525629639
0.009968517445959151
0.009991328087635339
0.009965529683977365
0.009923952422104776
0.009922151588834822
0.00997995778452605
0.010025226976722479
0.00999918081331998
0.009937406405806542
0.00989853551145643
0.009913844619877637
0.009973751660436393
0.010008097756654025
0.009967017141170799
0.009914436060935259
0.009930500201880932
0.009977614413946867
0.009969357000663877
0.009915398843586444
0.009908378175459802
0.009980511809699237
0.01005407280754298
0.010072377952747047
0.010085978084243835
0.010127179035916924
0.010133181591518223
0.01007282080128789
0.010005349479615688
0.00999017029069364
0.01002619310747832
0.010067057311534882
0.010073102642782033
0.010044815731234849
0.010008860272355377
0.009998315093107522
0.010016189496964216
0.010010845120996236
0.009948921073228121
0.009878831636160611
0.009861118979752065
0.009879549285396933
0.009883839949034155
0.009883204782381654
0.009916857820935548
0.009964589048177003
0.009963102685287595
0.009905564161017536
0.009860521615482867
0.00986433499492705
0.009881924744695425
0.009909118008799851
0.009979497478343546
0.010052119647152722
0.01006424555554986
0.0100526929134503
0.010057716276496648
0.010054155327379704
0.010068667139858007
0.01014868678059429
0.010234290407970548
0.010254883784800767
0.010247929650358856
0.01025965176988393
0.010260107493959367
0.010218914048746228
0.010166693804785609
0.01015010220464319
0.010167570430785417
0.010170824467204511
0.010136132882907987
0.010094504291191696
0.010064117587171495
0.010034107849933208
0.010013523143716157
0.010010431059636176
0.010010130763985216
0.010005450379103421
0.01000327970366925
0.01000254524871707
0.009987643691711129
0.009961389242671431
0.009950044001452624
0.009949162513948976
0.009917843025177717
0.009850677894428372
0.009797691968269646
0.009787545120343567
0.009805544335395098
0.009846711680293083
0.009908581199124456
0.009955819146707654
0.009950906950980425
0.009913805713877082
0.00991060575004667
0.009959915983490646
0.010001033050939441
0.010000763800926507
0.010006579095497728
0.010047836611047387
0.01008913795929402
0.01008698824327439
0.01003249071072787
0.009968948611058294
0.009947825991548597
0.009949410450644791
0.00993425060994923
0.009931268854998052
0.009975004098378122
0.010049924487248063
0.010109886555001139
0.010089245233684778
0.009987371531315148
0.009916576249524951
0.009939872338436543
0.009967145337723195
0.009934567902237177
0.009914315617643298
0.009956324030645192
0.010014560827985406
0.010050848363898695
0.010076897712424397
0.01011355874594301
0.010146865746937692
0.010128073212690651
0.010058200703933835
0.010017207460477948
0.010045458497479558
0.010086050857789814
0.010081632388755679
0.010046405890025199
0.01002538628410548
0.010032736766152083
0.010050946464762091
0.010054022525437176
0.010022530774585902
0.009983365344814955
0.010002725804224611
0.010080730677582323
0.01012448794208467
0.010097561259754003
0.010086287818849087
0.010134818935766817
0.010167127721942962
0.010132464482448995
0.010076341344974935
0.010053118546493352
0.010065042558126151
0.010088649191893638
0.010114515535533428
0.010125439073890448
0.01007980054244399
0.00999069033190608
0.009935901500284672
0.009919481463730334
0.009860922945663333
0.00975624606013298
0.009687594939023256
0.009667494534514844
0.009633009806275367
0.009570263237692415
0.009513657246716321
0.009492643470875918
0.009524699216708541
0.009581911289133131
0.009619804555550218
0.009640612169168889
0.009652574658393859
0.009652420072816312
0.009664783561602235
0.009695194279775023
0.009702876238152384
0.00969229469075799
0.009716238812543451
0.009767368477769196
0.009796512122265994
0.00980161651968956
0.009800554597750305
0.00978783288039267
0.009763562199659646
0.009736578916199506
0.009705162798054516
0.009686098541133106
0.009712707097642125
0.009776364001445471
0.009834448415786028
0.009867508774623274
0.009881413378752767
0.009872966320253909
0.009842339386232198
0.009819879694841802
0.009812431926839053
0.009782096636481583
0.009733007019385696
0.009719011522829533
0.009750927505083383
0.009790350585244596
0.009811361185275019
0.009804240679368376
0.009762682002037764
0.009707596646621823
0.009680814170278608
0.009701560991816223
0.009751463988795877
0.009794421042315662
0.009821122772991657
0.009853447023779154
0.009889981136657297
0.009907836127094925
0.009893821286968887
0.009855261030606926
0.009842413533478976
0.009898640066385269
0.009978563976474106
0.01000825486611575
0.009995809136889876
0.009983980190008878
0.00995883725117892
0.009894996313378215
0.00981368494220078
0.009748843261040746
0.009703019331209362
0.00965817442163825
0.009629991399124264
0.00966644672676921
0.00976030483841896
0.009833992291241885
0.009844969366677106
0.009827914922498166
0.009816453848034144
0.009807958668097853
0.009802884627133608
0.00981262621935457
0.00984440790489316
0.009895064220763743
0.009947235360741616
0.009979704776778817
0.009972960343584419
0.009927832265384495
0.009895041319541633
0.009898381987586618
0.00987375810276717
0.009800441381521523
0.00975675621535629
0.009777880916371941
0.009818638293072581
0.009862618804909289
0.009929959820583463
0.009993265639059246
0.010003484035842121
0.009979835986159742
0.009966017343103886
0.009938378254882991
0.009880586680956184
0.009859835407696664
0.009915410317480564
0.010000750059261918
0.010075013553723693
0.010140619450248778
0.010200029136613012
0.010234083672985434
0.010238411910831928
0.01023268205113709
0.010220665750093758
0.010201646541245281
0.010185010763816536
0.010174645320512354
0.010176951605826616
0.010185874509625137
0.010169775770045818
0.010129721430130302
0.010112192342057824
0.010114520634524525
0.010083254752680659
0.010023875967599452
0.009987357631325721
0.009983675586991012
0.009999129553325475
0.010032690628431738
0.010084239761345088
0.010143083338625729
0.010172655414789915
0.010134943751618266
0.010061463993042707
0.01003056030254811
0.010061734113842249
0.010111841107718646
0.010148290186189115
0.01016056584659964
0.010142683084122837
0.010110399480909108
0.0101172528648749
0.010192520394921302
0.010267825592309236
0.010254089552909136
0.010167127843014895
0.010096441181376576
0.010086846631020307
0.010114421960897743
0.010152992173098029
0.010192579510621726
0.010205243569798768
0.01016599896363914
0.010103396964259445
0.01006346165202558
0.01003407932817936
0.009988324493169784
0.009954015258699656
0.009943075818009675
0.009922155034728349
0.009912133645266295
0.009958426035009325
0.010014197579585016
0.010002744761295616
0.009941453286446631
0.009906124835833908
0.00992924130987376
0.009982217052020133
0.010018799765966833
0.010017396495677532
0.009995566103607417
0.009988553575240075
0.010009287693537771
0.01002702824305743
0.010008124108426273
0.009973054360598326
0.009960303367115557
0.009963161931373178
0.009960843804292381
0.009955299976281822
0.009953345777466894
0.009959248183295131
0.009959738859906793
0.009920615293085576
0.009853313071653247
0.009828849877230823
0.009866505987010896
0.009904619129374624
0.009914007210172713
0.009921439965255558
0.00993946153204888
0.009956987504847348
0.009960841140709817
0.009955899631604552
0.009969910886138678
0.0100031500402838
0.010001769629307091
0.009936953014694154
0.009871662762016058
0.009875437063165009
0.009925184529274702
0.009980504591949284
0.010063836541958153
0.010157821862958372
0.010174789740704
0.010120471897535026
0.01009440447203815
0.010097721703350543
0.010047639426775277
0.009967437461018563
0.00995681857690215
0.010002610851079225
0.010007903156802058
0.009957809690386057
0.009917694102041423
0.009922088203020395
0.009938219808973373
0.009930154914036394
0.0099159005144611
0.009931345242075623
0.009970305277965963
0.009984654067084193
0.009945764085277914
0.009889912214130164
0.00987690940964967
0.009921732251532376
0.009981068545021116
0.010007909159176051
0.01001108169555664
0.010023620021529496
0.010038763587363064
0.010043692248873413
0.010061954003758729
0.010090799829922616
0.010075098099187017
0.009997961767949164
0.00992910991422832
0.009945760490372777
0.010035246559418738
0.010120792048983276
0.010163583564572037
0.01017596694175154
0.010179703906178474
0.010194585099816323
0.010225223046727478
0.01026480718050152
0.010305123259313405
0.01033561047166586
0.010361904446035623
0.010389663488604128
0.010401254040189087
0.010395697741769254
0.010397172505035997
0.01040510063059628
0.010402809651568532
0.010402559619396925
0.010415394646115602
0.0104254343919456
0.010439286287873984
0.010467494670301676
0.010463317357935011
0.01039047728292644
0.010303093707188965
0.010281391055323184
0.010325379618443549
0.010352942608296872
0.010319303795695305
0.010285659213550388
0.010313324383459985
0.010372508927248418
0.010404383414424956
0.01039602174423635
0.010374208614230156
0.010368089186958968
0.010373139851726592
0.010349921002052724
0.010295343799516559
0.010266547640785575
0.01028646318707615
0.010323737896978855
0.010370124732144177
0.010433751237578691
0.010502386675216257
0.010566199426539242
0.010615313351154327
0.010623014206066728
0.010585303851403296
0.010539039890281855
0.010515091344714164
0.010516431326977908
0.01053127605933696
0.010543935857713222
0.010553057021461427
0.01056314137764275
0.01056207889225334
0.010549458661116659
0.010561922863125801
0.010622270405292511
0.010680534010753036
0.010673389313742518
0.010625753854401409
0.010595528166741133
0.010582906273193658
0.010587021876126528
0.010631140186451376
0.010690340055152774
0.01071272608358413
0.010704702991060912
0.010709725613705813
0.01072014881297946
0.010697450977750123
0.010661272318102419
0.01065413213800639
0.010663704327307642
0.010653446521610021
0.010608625719323755
0.010555173531174659
0.0105427919421345
0.010564973312430084
0.010563635448925197
0.010524887209758162
0.010495793693698942
0.010522031513974071
0.010587360975332558
0.010628086598590016
0.010611730669625103
0.010551487035118044
0.010469880593009294
0.01040492088533938
0.010388103323057294
0.010387535220943392
0.010359372571110725
0.010330632971599698
0.010346155180595815
0.010392512357793749
0.010423966581001878
0.010407326947897673
0.010346046756021679
0.010295069962739944
0.010300997840240599
0.01034094804432243
0.01037307281512767
0.01038217100314796
0.010366391073912382
0.010331140258349478
0.010279208314605057
0.01022207946050912
0.01018809829838574
0.010168533283285796
0.010123030613176525
0.010073322006501257
0.01008317074738443
0.010147738293744624
0.010217375829815864
0.010277524278499185
0.010326491394080222
0.010344949932768941
0.010323260086588562
0.010291826650500298
0.010289008673280477
0.010306095206178725
0.010311852227896452
0.0102957882033661
0.0102643053047359
0.010235948683694006
0.010227478560991585
0.01021826661657542
0.01017527190502733
0.010121149369515478
0.01009576083626598
0.010090136444196105
0.010089398440904916
0.010101376776583492
0.010122176143340766
0.010142196412198245
0.010168196777813136
0.010190060338936746
0.01017350892536342
0.010130027099512518
0.010116613823920489
0.010129742478020488
0.010101528801023961
0.010029941396787763
0.00998335077892989
0.009971925211139022
0.009961111331358552
0.009966731914319097
0.010009758933447301
0.010046141729690134
0.010026431060396135
0.009973360868170857
0.009950234964489936
0.009983907146379352
0.01003858814947307
0.010047506634145975
0.00998706025071442
0.00990116351749748
0.009828671114519238
0.009783672019839287
0.009775445270352066
0.009771857974119485
0.009734622444957495
0.009689408242702485
0.009686897308565676
0.009740885943174363
0.009812357402406633
0.009855128158815205
0.009886233834549785
0.009936140235513449
0.009972992301918567
0.009962849458679557
0.009929679185152054
0.009922166401520372
0.00996334561612457
0.010042249695397914
0.010139096793718636
0.01021596027072519
0.010233174520544707
0.010217332383617758
0.010221208385191858
0.010236213686876
0.010216590822674334
0.010148078408092261
0.01007659435737878
0.010045017534866928
0.010026141125708819
0.010014917748048902
0.010066602490842342
0.01015443134587258
0.010189916621893644
0.010190820870921016
0.01022393824532628
0.010262272702530027
0.010258647189475596
0.010247805784456433
0.010278011565096676
0.010328737711533904
0.010340887401252986
0.010287476335652173
0.010202644891105592
0.010132799679413438
0.010077871768735348
0.010035756444558501
0.010043415282852948
0.010104342540726065
0.010160171608440578
0.010168091217055917
0.010139423636719585
0.01012080850545317
0.010152064966969193
0.010204387516714632
0.010221409895457327
0.01020893412642181
0.01017744019627571
0.0101007111184299
0.00999520527664572
0.009917446821928024
0.009894263660535217
0.009905383447185159
0.009927907073870302
0.009965426977723837
0.009998816596344114
0.009997925297357142
0.009995033405721188
0.010044471677392721
0.010128172636032105
0.010185092692263425
0.010209397389553487
0.010229784129187465
0.010241381982341409
0.010229608723893762
0.010202939063310624
0.010172557206824423
0.01013370965141803
0.010089640780352056
0.010063988794572652
0.010064258449710905
0.0100764065887779
0.010087356339208781
0.010078466315753758
0.01005596251692623
0.010069554480724037
0.010113433697260915
0.010113387540914119
0.010074637257494032
0.010079026515595614
0.010123885455541312
0.010124438148923219
0.010072581577114761
0.010047430372796953
0.010069003705866634
0.010076798377558588
0.010035741254687309
0.009980415711179375
0.009981386684812606
0.010063453018665314
0.010166019606404007
0.010228261286392808
0.010245435605756938
0.010240052961744368
0.010241663535125553
0.0102624542824924
0.01028847852256149
0.010291422293521464
0.010254635633900762
0.010218511037528515
0.010227399063296616
0.010239321989938616
0.010204939264804124
0.010175088550895453
0.010215368433855475
0.01028562180697918
0.010298986518755555
0.010249101244844495
0.01019276365172118
0.010147949173115194
0.010100469808094203
0.010059381024912
0.010033513358794153
0.010015066098421812
0.010011265468783677
0.010055953478440642
0.010166868707165122
0.010278730979189276
0.010313435629941524
0.010312477918341756
0.010339719140902162
0.010357441459782422
0.01032973253633827
0.01028672493994236
0.010252827256917953
0.010221367008052767
0.010191895770840348
0.010188175584189593
0.010201034341007472
0.010179200181737543
0.010143786510452628
0.010176609372720122
0.010279202684760094
0.010372920227237046
0.010399621482938527
0.01036867206916213
0.01032129617407918
0.010270041045732797
0.010218073152936996
0.010201495024375618
0.010244087977334858
0.01030140919610858
0.010294946883805096
0.010212858789600432
0.010138966110534966
0.01011904861778021
0.010096363262273372
0.010061091622337698
0.010092876446433365
0.010197131568565965
0.010270835594274103
0.010258245593868197
0.010222278158180416
0.010234507918357848
0.010275570172816516
0.01030307232402265
0.010330853038467466
0.010361089906655251
0.010353803234174848
0.010316885532811284
0.01029146731365472
0.01026628936175257
0.01022674962412566
0.010198439857922494
0.010189325059764087
0.010187143757939339
0.010197564749978483
0.010236359648406506
0.010288120149634778
0.010305321984924376
0.010289553301408887
0.010289580156095325
0.010302848420105875
0.010298720109276474
0.010284854578785599
0.010273571806028486
0.010261911936104297
0.010257374518550933
0.010262072160840035
0.01024653689004481
0.010207850406877696
0.010219258335419
0.010302094998769462
0.01033973584882915
0.010270525887608527
0.010192629746161402
0.010180161246098577
0.010191664542071521
0.010174629194661975
0.01013420068193227
0.010091826715506614
0.010044036884792149
0.010006901505403221
0.010027083014138042
0.010106967077590526
0.010177461272105575
0.010173607459291816
0.010121757998131215
0.010088983145542442
0.010076133334077895
0.010047380947507917
0.010008129556663335
0.009993071765638888
0.010001266323961318
0.009992791414260864
0.009965132395736874
0.009959655944257975
0.009969213996082544
0.009942418439313769
0.009897419163025915
0.009903339771553873
0.009957983558997512
0.010007702293805779
0.010039997762069106
0.010068963058292866
0.010083708688616752
0.010065456661395729
0.010027379812672734
0.010000703930854797
0.009989463984966277
0.009979369658976793
0.009982838002033532
0.010019546374678612
0.010065755406394601
0.010076310923323036
0.010061569958925248
0.010074049169197678
0.01010661625303328
0.010123271429911256
0.010135424816980957
0.010126978075131774
0.010052639758214355
0.009949490712024271
0.00990185544360429
0.009931110520847141
0.00998847581911832
0.010026810504496098
0.010055069490335881
0.010091056479141117
0.010093847238458693
0.010025191376917065
0.009939206806011498
0.0099274251004681
0.009987805467098952
0.010019371309317649
0.009981827745214104
0.009955409308895468
0.009984320122748613
0.010012625809758901
0.0100083029223606
0.010010711061768233
0.010052116089500487
0.010111056636087596
0.010150979277677835
0.010177421658299863
0.01021111647132784
0.010225930740125478
0.01018077007494867
0.010079069659113885
0.009977428391575813
0.009950519897975027
0.010004520216025412
0.01005901709664613
0.01007547884248197
0.010108587923459708
0.01017894672229886
0.010233186506666244
0.01024046537000686
0.010234312117099763
0.010272591137327253
0.010351656493730843
0.01040319041814655
0.010401786686852574
0.010378990769386292
0.010360108278691769
0.010361692202277482
0.01039708732161671
0.010440917843952775
0.010440647141076625
0.010399454100988805
0.010365593759343029
0.010332555891945958
0.010279149701818823
0.010258146240375935
0.010299519412219524
0.01034213080536574
0.010351633625105024
0.010357077922672034
0.010370950042270123
0.010381132769398392
0.010390240717679262
0.01041276952251792
0.010431205499917268
0.010400136928074061
0.010328975575976073
0.010290174842812121
0.010310339010320604
0.010343886553309858
0.01036184241529554
0.010364611423574388
0.010341283651068806
0.010295646730810404
0.010256129787303508
0.010232046800665558
0.010209332732483745
0.010186915160156787
0.010180769469588995
0.01020463665947318
0.010249259443953633
0.010274404832161963
0.010261977994814516
0.010246872762218117
0.010241730879060924
0.010204237448051571
0.010132656106725335
0.010086863641627133
0.010084598632529378
0.010095833777450025
0.010107250809669495
0.010117753935046494
0.010131751261651516
0.010146522857248784
0.010132919661700726
0.010091749336570501
0.010080062123015522
0.010126114906743169
0.010175587739795447
0.010154762025922536
0.0100720589235425
0.010020750272087754
0.01004843826405704
0.010092270015738904
0.010095655457116664
0.010082731395959854
0.010087440614588558
0.010111943758092821
0.010141580956988036
0.010153683815151453
0.01014774718787521
0.010154552822932601
0.010190958809107541
0.010247307484969497
0.010310968486592173
0.010363405761308968
0.010382257434539497
0.010371917840093375
0.010369298653677106
0.010393139026127755
0.010412134421058
0.010400515752844513
0.010390299865975975
0.01040958150755614
0.010412597418762744
0.010353517336770892
0.01027298734523356
0.01023208742029965
0.010226065143942833
0.010238521215505898
0.01029798036441207
0.01039137065410614
0.0104380061943084
0.010420253220945596
0.010408564736135304
0.01042057067155838
0.010393187599256636
0.010314523656852544
0.010229206020012498
0.010148016442544759
0.010074409493245184
0.010025024465285241
0.009983431841246783
0.009922391925938428
0.009871663413941861
0.009882495799101889
0.009920907351188361
0.009906414630822837
0.009840148985385894
0.009791617235168814
0.00980114673729986
0.009844136112369596
0.0098763906955719
0.009892667401582003
0.009907599850557745
0.009926941157318651
0.009975238922052085
0.010069275852292775
0.010164095512591302
0.010209647146984935
0.010211477247066796
0.010191613626666367
0.010165271484293043
0.010144966738298535
0.010134973092935979
0.010144724044948816
0.010162189658731223
0.010142893074080348
0.010092047620564698
0.010069964919239283
0.010090627716854214
0.010120771480724216
0.01015647068619728
0.010220027584582568
0.010306194880977273
0.01036559976171702
0.010362037769518793
0.010320029705762863
0.01027753658592701
0.010249725989997387
0.01024628233164549
0.01026053557638079
0.010255638915114105
0.010208650990389288
0.010161203984171151
0.010173048339784146
0.010235429052263498
0.010305626802146434
0.0103711714502424
0.010406671562232078
0.010375003693625331
0.010302715608850122
0.010249268929474056
0.010237453239969909
0.010259120934642851
0.01027455268893391
0.010240433546714485
0.010180583074688911
0.010159008554182947
0.010194527474232018
0.010245051267556846
0.01025715088006109
0.010233546579256654
0.010230471659451724
0.010260877325199544
0.01027841986157
0.010261134430766105
0.010221571284346283
0.010175831043161452
0.010140233212150634
0.010121532981283963
0.010130051197484136
0.010178238349035383
0.010220232564024627
0.010179803883656859
0.010082169119268656
0.010053736278787256
0.010142696807160973
0.010245731901377439
0.01028124992735684
0.010287144244648517
0.010291315922513604
0.010260612941347063
0.010197044648230076
0.01014787913300097
0.010122227887623013
0.01009269610978663
0.010063126874156296
0.010066266586072743
0.010103752873837947
0.01012858250644058
0.01011336226016283
0.0100939657445997
0.010103957564570009
0.010123884403146804
0.010129635026678442
0.010131932068616152
0.010137986578047275
0.010143796522170305
0.010167308724485338
0.010206908793188632
0.010222866358235478
0.010223870254121721
0.010257896021939814
0.010297603812068701
0.010279416674748063
0.010235431375913323
0.010251334803178906
0.010329226315952837
0.010394443776458501
0.010406919303350151
0.010390756279230117
0.01037157260812819
0.010350980195216835
0.010338700646534561
0.010335001344792545
0.010294052241370082
0.010190132525749504
0.010080548315308989
0.010030874121002852
0.010036324076354504
0.010054962784051895
0.010067293411120773
0.010088002560660243
0.010121611850336195
0.01013320216909051
0.01011598939076066
0.010117298923432827
0.010138178016059101
0.01012269918806851
0.010075000873766839
0.010050424383953213
0.010045129251666366
0.010020022289827466
0.009990296862088143
0.010005886065773666
0.010069920388050378
0.010138163422234357
0.010185491587035357
0.010200102520175279
0.010162424203008414
0.010090946224518121
0.010043875202536584
0.010057670492678882
0.010111858514137565
0.010161171741783619
0.010190601027570665
0.010201926841400564
0.010194629062898457
0.010209655659273266
0.010296678296290338
0.010420784885063768
0.010493677286431193
0.010479937247000635
0.010435070167295635
0.010432197679765522
0.010456273639574647
0.010438623833470046
0.010376612776890398
0.010330432741902769
0.01032796225976199
0.010352669237181544
0.010400000577792525
0.01046318348031491
0.010501356716267764
0.010486636240966619
0.010442449683323503
0.010409965361468494
0.010412387461401522
0.01045285797677934
0.010502395057119428
0.010500500607304276
0.010428894651122391
0.010357409147545696
0.010354337776079773
0.010393882673233747
0.010400534705258906
0.01035762983839959
0.010319678480736911
0.010308253085240722
0.010278467899188399
0.010224921074695885
0.010209191222675145
0.010241902484558522
0.010268124165013432
0.010276715490035712
0.010292741577140987
0.01030223879031837
0.010277992528863251
0.010226311753503978
0.010176702071912586
0.010159705481491983
0.01017689481843263
0.010172634487971663
0.010103512327186764
0.010031807399354876
0.01002862699329853
0.01005814888048917
0.010068323463201523
0.010069311349652707
0.01008480753749609
0.01010327113326639
0.010089985504746437
0.010061156959272921
0.01007825816050172
0.010135080688633025
0.01015329908579588
0.010095441439189017
0.010017488771118223
0.010000961115583778
0.010051436135545372
0.010094830808229744
0.010076750200241805
0.010030753877945244
0.010020864470861852
0.010051114996895195
0.010081080822274088
0.010097717307507992
0.010123225264251232
0.010166961238719524
0.0101982995076105
0.01018257019110024
0.010137341050431133
0.010103803048841654
0.010079370378516615
0.010044883782975376
0.010000731186009944
0.009950638799928128
0.009922970961779356
0.009944022768177092
0.009963086098432541
0.009938147300854325
0.009937179205007852
0.00999470849521458
0.010000522350892424
0.009890625467523933
0.009778448194265366
0.009760800967924296
0.0097797287767753
0.009775464707054198
0.00978857247158885
0.00984796297736466
0.0099150146311149
0.00994852399919182
0.009938588277436792
0.009901680140756071
0.009849994145333767
0.009770130426622926
0.009666594797745348
0.009587712311185896
0.009565126216039062
0.009556635310873389
0.009515293715521693
0.00948300768621266
0.009507129820995032
0.009544331459328531
0.009556422838941217
0.009576971088536083
0.009623084524646401
0.009662100858986378
0.009672125424258412
0.009652543244883419
0.009611661890521645
0.009579894915223122
0.00957692607305944
0.00958185969851911
0.009588795034214854
0.00962737649679184
0.009685885207727552
0.009715161677449942
0.009730247766710817
0.009775701882317663
0.009810500871390104
0.009785099118016661
0.009754993319511414
0.009772847699932754
0.00979221728630364
0.009767724247649313
0.00972908231895417
0.009712254195474088
0.009710979736410082
0.009711233554407955
0.009707442657090724
0.009700324009172619
0.009697874994017183
0.009703171644359828
0.009715204588137566
0.00973752511665225
0.009783411500975489
0.009859379543922842
0.009928242564201354
0.009940408929251134
0.009913173285312951
0.009912957367487252
0.00995939502492547
0.010012108888477088
0.010048623997718095
0.010080799851566553
0.01010411829687655
0.01010017700958997
0.010070716594345868
0.010042865150608123
0.010043362057767808
0.01005590746179223
0.010048300097696482
0.010041249487549066
0.010069040306843817
0.01011585352011025
0.010151547729037702
0.010163740385323763
0.01014512761030346
0.010101646138355135
0.010066551603376866
0.010065534515306354
0.010071577392518521
0.010060129286721349
0.010075660962611437
0.010139954732730985
0.010170922838151455
0.010109335989691317
0.010037229140289127
0.010060196951963007
0.010140959690324962
0.010165122114121914
0.010121812019497156
0.010089627630077303
0.010112291257828475
0.010187229826115071
0.01028606149367988
0.010373378894291818
0.010441670562140643
0.010466678282245994
0.010394737063907087
0.010256279106251896
0.010178350587375462
0.01021677415817976
0.010290805837139488
0.0103184072393924
0.010307490481063724
0.010311491773463785
0.01035605049226433
0.010407767770811916
0.010413424195721745
0.010369593859650195
0.010335054132156074
0.01035465308930725
0.010406602653674782
0.010463198930956423
0.010525046903640032
0.01056893629487604
0.010570393288508057
0.010560898380354046
0.010575584582984448
0.010596817042678595
0.010589007111266256
0.010560522791929544
0.010566679667681456
0.010616743760183454
0.010645544044673444
0.010638461438938976
0.01065821492113173
0.010714834132231772
0.010745502850040793
0.010726460185833276
0.010706671788357198
0.010721379765309394
0.010732572544366121
0.010693778987042607
0.010625847936607898
0.01056302895769477
0.010482949344441295
0.010391994030214846
0.01038903545588255
0.010494287321344019
0.010570044643245638
0.010545384720899165
0.01049875709693879
0.010481157922185957
0.0104594844346866
0.010413900762796403
0.01038405769970268
0.010404056613333523
0.010436428496614098
0.010431722761131823
0.010404682592488826
0.010382499173283577
0.010357962022535503
0.010334353432990611
0.01031595592852682
0.010283161760307849
0.01025597721338272
0.010276242569088935
0.010310770547948777
0.010313774896785617
0.010318647986277938
0.01034096146468073
0.0103241246053949
0.010262885941192507
0.010238206144422293
0.010285481051541865
0.010342396926134825
0.010357084227725863
0.010352678964845836
0.010357578238472342
0.010353118134662508
0.010333581464365124
0.01034923646133393
0.010413595754653216
0.01044160285498947
0.010372737552970648
0.01028526110574603
0.010305934902280569
0.010429042000323534
0.010511087416671217
0.010482441019266844
0.010434115454554558
0.010435899263247847
0.010439706034958363
0.010412899986840784
0.01040145761333406
0.010417308993637561
0.010400500628165901
0.010331927235238254
0.010272617395967245
0.010279200496152044
0.010342035624198616
0.010395023324526846
0.010393990855664014
0.01035704963374883
0.010307134087197483
0.01026924790814519
0.010284258285537362
0.01035295492503792
0.010431629666127264
0.010475201816298067
0.010467502120882273
0.010421349946409465
0.010353903826326132
0.010297014974057675
0.01028091310057789
0.010286458772607148
0.010278846737928688
0.010261559034697712
0.010253214393742383
0.010250534061342478
0.010249954918399452
0.010260819322429598
0.010267387982457877
0.010246432470157742
0.010215150211006403
0.010183941978029907
0.010138106909580528
0.010103566292673349
0.010104843871667981
0.010112493853084744
0.010122973439283669
0.010154961119405925
0.010169025547802447
0.010122512164525688
0.010039639412425458
0.009975577001459896
0.009963473053649068
0.009981779134832322
0.009986582081764936
0.009981623627245426
0.009992720363661646
0.010014650309458376
0.01003302052617073
0.01004502319265157
0.010062781935557723
0.01011485296767205
0.010187861523590983
0.010205925875343382
0.010145366713404656
0.010077789947390557
0.010071065071970224
0.010134375551715494
0.010225235093384981
0.010303474189713597
0.010374353756196797
0.010422859322279692
0.010411754199303687
0.010372276394627988
0.010363322598859668
0.010381345078349114
0.010395727464929222
0.010403653676621615
0.01041894383262843
0.010451670242473484
0.010481346086598932
0.010448473393917085
0.010344250407069922
0.010272317831404507
0.010301060951314866
0.010346819506958127
0.01033768300898373
0.010331051773391664
0.010360745801590384
0.010360022429376841
0.010306736081838607
0.010267139091156422
0.010270405798219145
0.010278974259272218
0.010271626054309308
0.01026674457360059
0.010267281103879214
0.010247126277536154
0.010204136529937386
0.010174441458657384
0.010187544375658036
0.01021838042885065
0.01021036533638835
0.010174402580596507
0.010189874623902142
0.010261998944915831
0.01028639224357903
0.010215231929905713
0.010138650620356203
0.01013640834018588
0.010165718821808696
0.010162591631524266
0.010162528841756285
0.010229991632513702
0.010325704026035965
0.01035228100605309
0.01029418629128486
0.010217745103873313
0.010164130199700593
0.010132026420906185
0.01012342531234026
0.010120588671416044
0.010089696408249438
0.010047480058856308
0.01004491197410971
0.01009252100251615
0.010158705874346197
0.010228069298900664
0.010300783915445208
0.010347513128072023
0.010335724675096572
0.010278241904452444
0.01022555195260793
0.010216588405892253
0.0102378049492836
0.010243495660834014
0.01019769823178649
0.010119262798689306
0.010085987434722483
0.010125231514684856
0.010178126329556107
0.010222084489651024
0.01027779615484178
0.010300026671029628
0.01023826302960515
0.010159059693105519
0.01014584130141884
0.010152027658186853
0.010104536679573357
0.010056838840246201
0.010094982436858118
0.010185329550877214
0.010235769473947585
0.01023780768737197
0.010228597125969827
0.010196497007273138
0.010150079522281885
0.010142747615464031
0.010165418814867735
0.010160505594685674
0.01011850886978209
0.010068551264703273
0.010035012201406061
0.010042444840073585
0.010101658357307315
0.010180274853482843
0.010226627681404352
0.010227045225910843
0.010210958472453058
0.010185266914777457
0.010134960976429283
0.01009783562272787
0.010119481007568537
0.010168395163491368
0.01019949056673795
0.010213936218060554
0.010214185803197324
0.010191907631233335
0.010146136493422091
0.01008353711105883
0.010043501341715454
0.010084634940139949
0.010188798848539592
0.010253828931599856
0.010240182420238853
0.01021493856329471
0.010215042564086617
0.010202305573038757
0.010171167738735675
0.010173105704598128
0.01020574377849698
0.010197968343272806
0.010146568669006229
0.010136420805938542
0.010194324385374785
0.010255342763848603
0.010271176067180931
0.010242685456760228
0.010189512493088842
0.01014672810677439
0.010136454389430583
0.010145771857351065
0.010152542921714485
0.010130291674286127
0.010064611877314746
0.010011752936989068
0.010047658034600317
0.010142899621278047
0.010202540042810142
0.010200904356315732
0.010183967435732483
0.01018042023293674
0.01016662067733705
0.010115357325412333
0.010061536487191915
0.010066049140878022
0.010120512968860566
0.010171175892464817
0.010204498595558107
0.010228369175456465
0.010231047468259931
0.010231789774261415
0.01028449079953134
0.010370496651157737
0.010408785450272262
0.0103908638516441
0.010363321704789995
0.01032895469572395
0.010295848487876355
0.010305714975111187
0.0103387806750834
0.010336970421485603
0.010308441389352083
0.010296199964359402
0.010300915269181133
0.010296878907829522
0.010289256270043552
0.010292002889327705
0.01028201587498188
0.01025098324753344
0.010222474690526723
0.0101992193935439
0.010183317861519754
0.010197547799907624
0.010250175832770764
0.010305301854386925
0.010305801387876273
0.010271011660806835
0.010287290238775313
0.010357071808539332
0.010398669932037592
0.010375082585960626
0.010311924288980662
0.010243473178707063
0.01019634269643575
0.010181521913036704
0.01016997694503516
0.010129383765161037
0.01011116560548544
0.010197312203235925
0.010341704995371402
0.010419157836586236
0.010407705274410546
0.010350861600600184
0.01025348958093673
0.010147814210504293
0.010093203652650118
0.010078505435958505
0.010066922693513334
0.010071737598627806
0.010105125354602933
0.010129656326025725
0.010108553254976869
0.010067035928368568
0.01004913889337331
0.010052605629898608
0.010065880375914276
0.010098493164405227
0.010147237414494158
0.010180800314992666
0.010165449371561408
0.010114576765336097
0.010077278902754188
0.010067267236299813
0.010063359960913659
0.010056093246676027
0.010047538029029966
0.010034930626861751
0.010015295944176614
0.009990270962007344
0.00997673318721354
0.010002888990566134
0.010046208603307604
0.010036392188630998
0.009968361500650644
0.009908151510171593
0.009887528903782368
0.009894883949309588
0.009919105865992605
0.009948190189898015
0.009978014575317502
0.010004221093840897
0.009995949333533644
0.009954588511027396
0.009943137927912175
0.009966392028145492
0.00995690337382257
0.009919469077140093
0.009910092353820801
0.009921880988404155
0.009927935139276088
0.009939957740716637
0.009964675032533706
0.009972304892726243
0.009928729711100459
0.009845150783658028
0.00977904309052974
0.009761849804781376
0.009759953627362847
0.009747762037441134
0.009746716851368546
0.00975206452421844
0.00973083875142038
0.009697821005247534
0.00968915359582752
0.009698619446717203
0.009692109618335963
0.009648409667424857
0.00958549209870398
0.009558992451056838
0.009613157026469707
0.009720990671776236
0.009806409305892884
0.009839345645159482
0.009857807666994631
0.00988820840138942
0.009906451646238566
0.009895849586464465
0.009892018879763782
0.009943171422928571
0.010035295551642776
0.010080284560099245
0.010025333021767438
0.009938358790241181
0.009904700410552324
0.009914741395041346
0.009923413209617139
0.009919529324397445
0.00990992717910558
0.009897610233165323
0.009864603383466602
0.009803060167469084
0.009774634880013764
0.009840297820046544
0.009949844577349723
0.010007634707726538
0.010001924294047058
0.009992173160426318
0.009993488946929575
0.009951753597706557
0.00986011281143874
0.009785739709623159
0.009759672204963862
0.009765408914536238
0.009803105215542018
0.009869612022303045
0.009930288386531174
0.009961462053470314
0.009968416118063032
0.009965737359598279
0.009975681528449059
0.01000608035363257
0.010043796920217573
0.010078401914797723
0.01009669952094555
0.01009434788953513
0.010090103298425674
0.010092274136841297
0.01008701320271939
0.010082205343060195
0.010110460622236132
0.010161999729461968
0.01019218868110329
0.010182642135769129
0.010135866957716644
0.010074450368992984
0.010043968888930976
0.010073467176407575
0.010153173743747175
0.010242225248366594
0.01028766119852662
0.010274181803688408
0.010259998310357333
0.010298159956000745
0.010351701653562487
0.010361807737499475
0.0103390816738829
0.010331922210752964
0.01035362672060728
0.010371994567103684
0.010355166993103921
0.010320908417925238
0.010318838013336062
0.010349096772260964
0.01036505910102278
0.010363779608160257
0.010359578365460038
0.010323990127071738
0.010272641717456281
0.010272838091477752
0.010313574504107238
0.010328344763256609
0.010315742497332393
0.01033249355852604
0.010413282252848148
0.01052324163261801
0.010589150828309357
0.010598908211104572
0.010599419255740941
0.010579423843882978
0.010503923874348403
0.010433695111423731
0.01043029391206801
0.010444459621794522
0.010427901889197528
0.010418422403745353
0.010460676215589047
0.01053405525162816
0.010580387953668833
0.010572262583300471
0.010520379282534123
0.010449877316132188
0.010402774289250374
0.01039932671468705
0.010407823626883328
0.01040573616977781
0.010413931822404266
0.010441243210807442
0.010444614193402231
0.010370899587869645
0.010247508962638676
0.010189170390367508
0.010246825707145035
0.01032450657337904
0.010328681669197976
0.01029261611867696
0.010290669277310371
0.010325613152235746
0.010350959370844065
0.010352617423050105
0.01036449708044529
0.010413909861817956
0.010459174541756511
0.010431280774064362
0.010356500959023834
0.010329223480075598
0.010368968928232788
0.010403703949414193
0.010380106959491969
0.010340253440663218
0.01036003529559821
0.010431647920049726
0.010474165054038167
0.010454282034188508
0.010415278868749737
0.010391300502233207
0.010370229897089302
0.010331051792018115
0.010275892000645399
0.010215105242095887
0.010146509003825487
0.010086530526168645
0.01006619677413255
0.010079497382976114
0.010095417820848525
0.010101649831049143
0.01010903639253229
0.01012644509319216
0.010144252721220255
0.010147300409153103
0.010136389615945518
0.01012115366756916
0.010096623743884266
0.010065645580179989
0.010051406482234597
0.010058838101103902
0.010079352632164956
0.010102222594432532
0.01009962385520339
0.010067173489369452
0.010054674842394888
0.010096333054825664
0.010139993107877672
0.01011729464866221
0.01006174468435347
0.010057224696502089
0.010103819239884616
0.010133687919005752
0.010124138910323382
0.010120402495376766
0.01015107958111912
0.010181231745518745
0.010177024225704372
0.010162731232121587
0.010168348201550543
0.010186733710579574
0.010221445546485484
0.010268273004330695
0.010267942622303962
0.010198308993130923
0.010123449433594943
0.01008706218097359
0.01008003999479115
0.010107231508009136
0.010159589061513543
0.010173638979904354
0.010126336538232862
0.01008575123269111
0.01011381361167878
0.010205385931767523
0.01030224687885493
0.010322163035161792
0.01025071051903069
0.010181108419783414
0.010179072562605142
0.010192236662842333
0.010160265625454485
0.010118819745257497
0.010123525173403322
0.010147853754460812
0.010145922270603479
0.010127325830981136
0.010106111695058644
0.010070918360725045
0.010012760702520608
0.009949767803773284
0.009926010956987738
0.009943519742228091
0.009947631591930985
0.009933566069230437
0.00995265255216509
0.009992136908695102
0.009991017058491708
0.009967651017941535
0.009993519862182438
0.01006422116421163
0.01010457490105182
0.01008115469943732
0.010042693386785685
0.010041810153052212
0.010061919833533465
0.01005908499006182
0.010050587910227478
0.010080705820582807
0.010120248780585825
0.010117856939323246
0.010092042274773122
0.010083583290688694
0.01009144778829068
0.010091752936132252
0.010068225641734898
0.010025771670043468
0.010006181900389493
0.010046429559588432
0.010113511616364122
0.010133273843675851
0.010080462004989386
0.010014690570533275
0.010006683282554149
0.010051368521526455
0.010096598365344107
0.010122419307008386
0.010140872579067945
0.01014895958825946
0.010136155541986228
0.010114118377678095
0.010098956832662225
0.01008347467519343
0.010051885582506657
0.010011722999624908
0.009978571124374867
0.009957441235892475
0.009967014347203075
0.010016229953616857
0.010078014456667006
0.010130594768561423
0.010162425548769534
0.010162730067968369
0.010145061356015504
0.01012954096775502
0.010116763529367745
0.01010274191852659
0.010099781253375113
0.010135749620385468
0.010208490355871618
0.010257410774938762
0.010230031721293926
0.010154247819446027
0.010108560160733759
0.010118702817708254
0.010128454230725765
0.010113545195199549
0.010126600423827768
0.010184376197867096
0.01022951956372708
0.010204890454187989
0.010108843701891601
0.010015596961602568
0.010009608599357307
0.01007725709117949
0.010140886851586402
0.010172649645246565
0.010188643992878497
0.010179833802394568
0.010141606498509646
0.010127825755625963
0.010174821149557828
0.01022745749913156
0.010220473841764032
0.010175371943041682
0.010162715618498623
0.010200157472863793
0.010245300331152975
0.010253315828740596
0.010207340149208903
0.010148285287432373
0.01014209108427167
0.010176919610239565
0.010174312787130475
0.010116798607632517
0.010071412259712816
0.01008694879245013
0.01014292505569756
0.010207100347615778
0.010291259991936386
0.010389864183962346
0.010432285331189632
0.010412131487391889
0.010425494448281825
0.010481866202317178
0.010484767956659197
0.010429304423741997
0.010417343913577497
0.010472272257320583
0.010490509951487183
0.010418263697065413
0.010341870929114521
0.010335638667456806
0.010353177282959224
0.01033078613691032
0.010283193434588611
0.010243236855603754
0.010201149396598339
0.01015729786362499
0.010147804589942098
0.010177044551819564
0.010212467638775707
0.010250217793509365
0.010303024728782475
0.010342686627991498
0.010338911516591907
0.010322236148640513
0.010322433952242136
0.010311591592617332
0.010276624588295818
0.010270889420062303
0.01033633129671216
0.010423302091658116
0.01045099061448127
0.010413724910467863
0.010369688491337
0.010354061126708985
0.010347515097819268
0.010319521590135992
0.010276922089979053
0.010262825815007091
0.010300329527817667
0.010357952644117176
0.010397094041109086
0.010417501917108893
0.010450697033666074
0.010517719411291182
0.010567218479700387
0.010537226148881019
0.010482077994383871
0.01048401987645775
0.01050158429890871
0.010464450130239129
0.010415460937656463
0.010417364020831883
0.010436958149075509
0.01042653645388782
0.010408485177904367
0.010421099849045276
0.010445650671608747
0.010440262933261692
0.01041953505948186
0.010422973348759114
0.010429103071801364
0.010396045777015387
0.010348240006715059
0.01032342191785574
0.010297465622425079
0.010243934914469718
0.010195955731905997
0.01019049388822168
0.01020796039607376
0.010213096430525183
0.0101961442315951
0.01015878458507359
0.010128115536645055
0.010148757766000927
0.010210111560299993
0.010243118861690164
0.010212244363501669
0.010151224080473184
0.010106183937750757
0.010091787623241543
0.01010158207733184
0.010113324150443076
0.010092639802023769
0.010043177339248359
0.010008136769756674
0.010014619394205511
0.010064178751781583
0.010122583685442806
0.010133608700707555
0.010103436387144029
0.0100999591127038
0.010144671727903187
0.010195824699476361
0.010219394392333925
0.010196143593639136
0.010117618115618825
0.010019543529488147
0.009974232940003276
0.010024177059531212
0.010109459455125034
0.010123121137730777
0.010063549824990333
0.010015874756500126
0.010000476902350784
0.009974521370604634
0.009944255985319615
0.009960308033041656
0.010016355984844268
0.01004846533294767
0.010041971630416811
0.010043423022143543
0.010074861571192742
0.010120638781227171
0.010164112974889577
0.010185247203335166
0.010162067357450724
0.010108701060526073
0.010068714441731573
0.01004947625566274
0.010021101199090481
0.009976068348623812
0.009943550331518053
0.00995718908496201
0.01001562197227031
0.01007148128002882
0.010082970918156207
0.010064364485442638
0.010041737253777683
0.009994954066351057
0.00989801175892353
0.009792457725852728
0.009772668881341815
0.009862768757157027
0.00996405078098178
0.009990320177748799
0.009969304027035832
0.00996198837645352
0.00996073532383889
0.009925235603004694
0.009883320047520102
0.009892219486646354
0.009932098099961878
0.009941356955096126
0.009902561651542782
0.009856354636140168
0.00984974053222686
0.009859012383967638
0.009833974931389093
0.009812648575752973
0.009848584099672734
0.00988471059128642
0.009855497488752007
0.009796855887398124
0.009762370469979941
0.009746408383361995
0.009703739588148892
0.009616410173475743
0.009533158726990223
0.009504936002194882
0.009527851613238453
0.009575089644640685
0.009633439159952104
0.00969605972059071
0.009745678892359137
0.00977483403403312
0.0097972197458148
0.009807487404905259
0.00979903167579323
0.00981289591640234
0.00987251991406083
0.009948432366363703
0.010026790290139616
0.01009660004172474
0.010116227157413959
0.010070423218421639
0.010007245405577124
0.009989034999161959
0.010017897267825902
0.010051280981861055
0.010077086184173823
0.010101255727931857
0.010111791379749775
0.010113778999075293
0.010129774389788508
0.010151419225148856
0.01014465382322669
0.010091234710998834
0.01001676572021097
0.00997824416961521
0.00999561969190836
0.010019188416190445
0.009996449663303793
0.009933671155013145
0.009886413528583944
0.009911918570287526
0.010002843234688044
0.01008676121942699
0.010102340369485319
0.010038842619396747
0.009941355092450976
0.009889716925099492
0.0099183593923226
0.009978894996456801
0.010010070842690766
0.010004542795941233
0.009988213372416795
0.009969516382552683
0.00995298664085567
0.009963369648903608
0.009996658372692764
0.010018953289836645
0.010024103452451527
0.01001171797979623
0.009978888961486519
0.009959363830275833
0.009977438705973327
0.01000004935078323
0.009990231646224857
0.00996407950296998
0.009966187980026006
0.010000249603763223
0.01001270055770874
0.009965451103635132
0.009892380894161761
0.009855708074755967
0.009869829630479216
0.009898543497547508
0.009929267247207463
0.009995108512230217
0.01010811768937856
0.010224302439019084
0.010275590298697353
0.010237095523625611
0.010168422344140709
0.010148277250118553
0.010182539070956408
0.01021868187468499
0.010234217764809728
0.010249079535715282
0.010251764385029673
0.010212071733549237
0.010152618777938186
0.010117979389615357
0.010118210804648697
0.010145738129504025
0.010187161094509066
0.010215877732262015
0.010215555285103619
0.010190468868240715
0.010164583763107658
0.010171482251025736
0.010202199909836054
0.010214035748504102
0.010203099953942
0.010199587321840226
0.010209766142070293
0.010217458917759359
0.010229139206930995
0.010255168061703443
0.010266962121240794
0.010226993756368756
0.010134057216346264
0.010044867736287415
0.010033663939684629
0.010085947425104679
0.010123196360655128
0.010141031825914979
0.010185947767458856
0.010244549540802837
0.010271563748829067
0.010261231153272092
0.010232435213401914
0.010182109908200801
0.010099777858704329
0.010030831382609904
0.010042433366179467
0.010119018307887018
0.010187809597700834
0.01020412525627762
0.010157451573759317
0.010076112700626255
0.01001722114160657
0.009997468581423164
0.009987806305289268
0.009985486972145735
0.0100186787545681
0.01008709745015949
0.010151541964150966
0.010168850435875357
0.010137329096905887
0.01010937949642539
0.010126685569994152
0.010173050849698485
0.010204695351421832
0.010197805860079824
0.010166113539598882
0.01012465282343328
0.010070774727500975
0.010022905794903636
0.010003443318419158
0.009990770285949111
0.009971587816253305
0.009980213586241007
0.010024055992253124
0.010055630928836762
0.010042844293639063
0.010014354586601257
0.01000863620545715
0.010000491822138429
0.009950845795683562
0.009878162140958012
0.009818385248072445
0.009801721889525652
0.009854949763976037
0.009959632828831673
0.0100564624927938
0.010105521329678594
0.01012153958901763
0.010150180072523654
0.010198093508370221
0.010236216951161623
0.010284774019382895
0.010368421114981175
0.010426632883027196
0.01042318110819906
0.010429094163700938
0.010481746471486985
0.010506322272121907
0.010450473711825907
0.010375319407321512
0.010350985550321639
0.010363807450048626
0.010372408307157457
0.010359428394585847
0.010321559719741344
0.010279467399232089
0.010277707404457033
0.010334830563515425
0.010406790301203728
0.010437222267501056
0.010440317774191498
0.010467084893025457
0.010501781115308403
0.01048917000181973
0.010428970968350769
0.01037097322754562
0.01035243963357061
0.010360567662864924
0.010371533539146185
0.010389088578522205
0.010400749142281712
0.010387985855340958
0.010379044022411108
0.010399990831501782
0.010412835013121367
0.01038204638287425
0.01035947330761701
0.010401152558624744
0.01046000113710761
0.010457596853375434
0.010408864291384816
0.010395829994231463
0.010419883788563311
0.010396643341518939
0.010312879481352866
0.01023360907100141
0.010187060898169875
0.010170400706119836
0.010180475898087024
0.010188589682802557
0.010172453848645091
0.010151865077205002
0.010156617620959879
0.010192053262144327
0.010226479792036116
0.010224232533946633
0.010203314796090126
0.010205669230781495
0.010228704223409294
0.010240180506370962
0.010229404731653631
0.010223820321261883
0.010261305975727737
0.010331482118926942
0.010361343072727323
0.010301787019707263
0.010194705119356513
0.010102595463395118
0.010045987414196133
0.010032522506080568
0.010064430148340762
0.01012047088239342
0.010163245052099227
0.010171597553417087
0.010151923759840429
0.010115688322111965
0.010087733301334082
0.010099108698777854
0.010135518861934542
0.01015832726843655
0.010167196248658002
0.010175725505687296
0.010182741521857679
0.010205612657591701
0.010251354738138617
0.010272679170593619
0.010229100622236729
0.010147968772798777
0.01009097998496145
0.010082116471603514
0.010092830723151565
0.010085271350108086
0.010038123955018819
0.0099441320868209
0.009813555004075169
0.009687778144143521
0.00962482617702335
0.009647737545892597
0.009712131316773594
0.009762528561986982
0.00981643188279122
0.009902095622383058
0.009955000430345536
0.009905330678448081
0.009799285447224975
0.009733336395584047
0.009720669463276863
0.009703434486873448
0.00967531392350793
0.009678855612874031
0.00967615975998342
0.009589178119786084
0.009689942570403218
0.009887584899552167
0.010045496090315282
0.010129214506596327
0.010150546017102897
0.01006253344938159
0.009928079103119672
0.009940341333858668
0.010105649284087121
0.010402052132412791
0.010745159965008497
0.010986410863697529
0.011069851629436016
0.01107367371674627
0.011050988361239434
0.010988825242966413
0.010892991540022195
0.010826404187828303
0.01089560153428465
0.011160852084867657
0.011540679149329663
0.01190602546557784
0.012247280492447317
0.01258981586433947
0.012824704828672111
0.012854489884339272
0.012790039866231381
0.012780999843962491
0.012785437754355372
0.012831698982045054
0.013075583344325424
0.013574021612294018
0.014211162640713156
0.014743800670839847
0.015049283546395599
0.015120762279257178
0.014975882866419852
0.01489846565760672
0.014826599243097007
0.014769911817274987
0.015036088125780224
0.015671080611646175
0.01617110428865999
0.01627529848832637
0.016350588686764242
0.016842488572001456
0.017795369257219137
0.01878191917669028
0.01907467987854034
0.01967870568856597
0.020708288089372216
0.02140400966629386
0.021595762087963523
0.021616638097912075
0.022038522474467755
0.02284466955345124
0.02387703886255622
0.02487501546740532
0.02560448635369539
0.026045929943211376
0.02641651203390211
0.02676194002851844
0.026758119789883496
0.02695060334634036
0.02700139828491956
0.027230864278972148
0.027484935224056244
0.027402870701625944
0.02787759471219033
0.02911924021318555
0.03111887434963137
0.03343955277465284
0.03553763210773468
0.03717166633810848
0.038285818742588164
0.038504402795806525
0.03969287948217243
0.042432471844367686
0.046088549462147056
0.049594138259999455
0.05217437590006739
0.05377404194325209
0.054398734122514725
0.0551631996082142
0.05768517790362239
0.061161721320822836
0.06450417464599013
0.06690229887142778
0.06724595575127751
0.0695355098694563
0.07422934588976204
0.07901679614093154
0.08222553387284279
0.08416924333199859
0.08519483354408294
0.08622494254261255
0.09054558594711125
0.09607442256528884
0.09982498724013567
0.10086101108696312
0.10175443555228413
0.10454767720773817
0.10958192258141936
0.11554714445024729
0.11982437403872609
0.12124545910861344
0.12169872278347611
0.12291560631245374
0.12490771390032024
0.1278881824342534
0.13120240323711185
0.13379698139149696
0.13530018608085811
0.13607277104165405
0.13634008152410387
0.13666950582526624
0.13764200804755092
0.13884915689006447
0.1401361719565466
0.14131913066376
0.1420611337432638
0.14263971814420073
0.1440141057083383
0.14678959777578712
0.15032286178786308
0.15310230469796807
0.15425842554308475
0.15441012916155158
0.15611638258676977
0.15938579726964236
0.16278204577509314
0.16459861242678017
0.16492437807843088
0.16501011633779852
0.16510452022776007
0.16509035111404954
0.16593518613372
0.16788138943258674
0.16989887080155314
0.17113592012319714
0.17147318420466034
0.1708807256212458
0.17098093026317657
0.17223247198853642
0.17384158751927317
0.17454430217389016
0.17389813001733273
0.17300502839963883
0.17330013177357614
0.17349344450049103
0.17280298296362162
0.17228371158707886
0.17335487376432865
0.17549732309300453
0.17624608215875923
0.17750668413937093
0.1814566773409024
0.1853383633401245
0.18725078585091978
0.1878200391912833
0.18778250518254935
0.18813044904731213
0.19042040108237415
0.19283408127725124
0.19434044390451163
0.19486383808776736
0.19555975087918342
0.19650116060860456
0.19646099962759764
0.1973020353540778
0.19762056176550685
0.19691830690950154
0.1963206906663254
0.19642161269672215
0.19622010202612727
0.19681245700921862
0.1974230382591486
0.19583805366419255
0.1922636116342619
0.18947843967471273
0.1902292237849906
0.19379409936256706
0.1970432670833543
0.19667433702852577
0.19688357650302352
0.19754742559976876
0.19734935746062546
0.19611254760529845
0.19633029866497964
0.19545923346653582
0.19233259154018015
0.18792785439640283
0.18529378214851022
0.1840631347661838
0.18453184597659855
0.1870404040813446
0.18771053733304144
0.18648497837595643
0.1849304974405095
0.18390209339559077
0.18490930464118718
0.18523159218486399
0.18322256008628757
0.17920578120276331
0.1757429741695523
0.17439857745543122
0.17416361855342985
0.17360610363539308
0.17348484182264656
0.17338824468199163
0.17210558717604726
0.1696961851697415
0.1719405395584181
0.1762845041276887
0.179467684738338
0.18029146211687475
0.1800170121015981
0.17999149700161068
0.1792692210059613
0.17835649696644396
0.178694433728233
0.17877032114658506
0.17725448458455503
0.17528096428141
0.1717058396525681
0.17078138075303287
0.1729031991492957
0.17516289907507598
0.17420575320720671
0.17107251782901586
0.1674532079184428
0.16684077736455946
0.1702891060290858
0.17411294766701757
0.17485381882172077
0.17620737492106855
0.17653951466083526
0.1747894497355446
0.17401406672783196
0.17529648831579833
0.1763178240414709
0.17666763921268283
0.17762360582128167
0.17748544535133987
0.1765303834155202
0.17632321503479034
0.17775664547458292
0.17976977004669606
0.18049353731796144
0.180024753077887
0.18156110486947
0.18348054225556554
0.1833112326124683
0.1812575364811346
0.18054847984109074
0.1801313285715878
0.17799434409011156
0.174873249954544
0.17377696239389478
0.17703197898808867
0.1805219301721081
0.18096120417583733
0.17971016444265842
0.17826356399804355
0.1769500488229096
0.17699374232441187
0.17618403613567352
0.17623573216143995
0.1766601355979219
0.1757768489839509
0.17534168798010796
0.17564869581256062
0.17550599525216967
0.17446851606015115
0.17389156071003525
0.1749872650206089
0.17455093884840608
0.17540498763322832
0.1797772001614794
0.18131763871293516
0.1799372583674267
0.1785555013548583
0.17765053844545037
0.1795690121129155
0.17950758380815388
0.17778471739031373
0.17512129710521548
0.17543166908435523
0.17677132565993817
0.17582440746948122
0.1741135625122115
0.1746644591819495
0.17627651274204253
0.17738683381583542
0.17636002731975167
0.17280275733210146
0.16853077019564808
0.16497723635751754
0.16340298836585135
0.1648245931044221
0.1627578389411792
0.1600503774592653
0.15719967193901538
0.1560469695366919
0.15521952669136227
0.15606784336734564
0.15761629361659288
0.15853037498425693
0.15704006455373018
0.15415962075814604
0.1524051781045273
0.15233337650075554
0.148491670046933
0.14366334718186408
0.14119220943190158
0.1408247802313417
0.14040034157224
0.1400308450544253
0.13984162176493556
0.13942077541258185
0.13800247721374034
0.13692406774964183
0.1366887977765873
0.13571994907222687
0.13618007017765194
0.13523635560646652
0.1324632666585967
0.1303882476920262
0.13052374433726072
0.1309861227311194
0.13107007970567794
0.12930278473999351
0.12549375549890102
0.12274708640761674
0.12353564741555602
0.1229274003766477
0.12211380794178694
0.12249414348043501
0.12147711599711329
0.11917672416660935
0.11838276862632484
0.11944696985650807
0.11895492004230618
0.11785612581297755
0.11836096889339387
0.11836544372607022
0.116630047718063
0.11449894602410496
0.11366000480949878
0.11375730053521693
0.11222700030077248
0.11071696698199958
0.11009256903547794
0.11155205782968551
0.1116380088729784
0.11113695108331739
0.10926451466977596
0.10835197477135808
0.10873896436300129
0.10526171149220317
0.10214781349059195
0.10208965892437845
0.10184636777732521
0.1021261927485466
0.10369828339666128
0.10298955262172967
0.10640761124901474
0.11081291564740241
0.11358172512147575
0.11308940635528415
0.115773437009193
0.1174873011559248
0.11698297881986947
0.11999610134400428
0.12164927640929818
0.12041835191193968
0.12017590682022274
0.1185987075837329
0.11465265359729529
0.11340242064557969
0.1123522004019469
0.10910729349590838
0.10706667282152921
0.10638488953467458
0.10488000456709415
0.10299245521891862
0.10461596550419927
0.10426522148773074
0.10396392070688307
0.1069331994978711
0.10860317302402109
0.11035354032646864
0.11342281788121909
0.11508830651640892
0.11528582753613591
0.11553505032788962
0.1153799034282565
0.11455850383266807
0.11563895783852786
0.11669437529053539
0.11723179830703884
0.11866702509112656
0.12152359602041543
0.12317147690802813
0.12402008110657334
0.12363438048865646
0.12307876436039805
0.12310558973811567
0.12524004296399652
0.1275568400649354
0.12722668800968676
0.12924513816833497
0.13260787105187774
0.13452693874016405
0.1340365914767608
0.13375530812889339
0.1341867844387889
0.1336069581890479
0.13312219702638686
0.13308308621868492
0.13309924765489994
0.1332963745156303
0.13346616322174668
0.13330463365186007
0.13298014005180447
0.13218838275410236
0.13208212910685688
0.13302516031078995
0.13355052231810988
0.13296633526682855
0.13362856811843812
0.133741286220029
0.13376259580254554
0.13217321529053153
0.1305882791383192
0.12995236193295567
0.1309193055331707
0.13163501500152053
0.1320405093859881
0.13194497267249972
0.13107807856518774
0.12954387252684682
0.1286756688123569
0.12905532573349773
0.1282872734265402
0.12749995291698724
0.12761040105950086
0.12796553436666727
0.12825760401319714
0.12886132201179862
0.12877248863689603
0.12928221884649246
0.13038447111845017
0.12915293543133885
0.1287677702633664
0.12868070759810507
0.12967359603382647
0.13005329788662492
0.12858155550900846
0.12802381894551218
0.12807616534642874
0.1296926050959155
0.13161720010917632
0.13079312417190522
0.12947419044096023
0.12987027097027748
0.12768999595195055
0.12259691290557384
0.12141013684682549
0.12265965134371072
0.11815783662721514
0.1146736665116623
0.11393867089413107
0.11070575529243797
0.10933702980633825
0.10950721131172031
0.1090472906967625
0.10878576109651476
0.1096474447986111
0.11043711591977626
0.1105049701128155
0.11098772373516112
0.11300427324138582
0.11412223648745566
0.11360892073716969
0.11391203861217945
0.11293619302101433
0.11263375985436141
0.11148783520795405
0.10809089780785143
0.10646190298255533
0.10397640733513981
0.0992910181498155
0.09705109549220652
0.09816992550157011
0.09926737907808274
0.09871488291304559
0.09960010136011987
0.09866050993558019
0.09665789223276079
0.09673342839349061
0.09562541478313506
0.09323592262808233
0.09097611633595079
0.09007030243985355
0.08977162608876825
0.08895986430346965
0.08773452101740986
0.08553159011527896
0.08310552541632205
0.08307454855646938
0.08157198142725974
0.07959078656043857
0.07893548477441073
0.07899490582756698
0.08042481603100896
0.08389688577502966
0.08711610187776386
0.08778120656963438
0.0883690208569169
0.08849860333837568
0.08850879050325602
0.0884392242738977
0.08875888394191861
0.08861088058445603
0.08848333954345435
0.08813727569766343
0.08749645802658051
0.0869262452563271
0.0868794616125524
0.08734865333419294
0.08874424299690872
0.08855730860959739
0.08916878296993673
0.09008878205902875
0.09042081510648131
0.09007167665753514
0.09111654735170305
0.09293352901935577
0.09359097126871348
0.09475481043569743
0.09671775640919805
0.09827757394406944
0.09950468138791621
0.10049720772542059
0.10046147845685482
0.10170814185868948
0.10367237883619965
0.10451457352843135
0.10369410807732493
0.10399649586994202
0.10386833794414997
0.10352225345559418
0.10458313998300582
0.10564817317761481
0.10509826482273638
0.10341495313681662
0.10293269959744066
0.10342272118665279
0.10406546153593808
0.1033648389717564
0.10169083227403462
0.10066560324281454
0.10106587424408645
0.10112329000607133
0.10282401003409176
0.10373009338509291
0.10418716004583985
0.10260039455723018
0.10190216161310672
0.10266339330002666
0.1031554529396817
0.10388637867290526
0.10408665358554572
0.1036121118441224
0.10402741318102926
0.10475268443580717
0.10495050488971173
0.10417208603117616
0.10325193553231657
0.10282938505057246
0.10227692453656345
0.10011550968512893
0.09811986029148102
0.09756832528393716
0.09698635562323034
0.09607822501566261
0.09522889838553965
0.0946960773319006
0.09479984479956328
0.09529578475747258
0.09531805164180696
0.09522979828063399
0.09505850950721652
0.09435183054301888
0.09396339068189263
0.09495872492436319
0.09491780327633023
0.09416807345114649
0.09497081523295492
0.0959288396174088
0.09580962962005288
0.095197619269602
0.09509271752089261
0.09525703546591104
0.09522233918309211
0.09547903163358569
0.0953973757242784
0.09486595040652901
0.09477151667233556
0.09476732199080289
0.0947281673224643
0.09445806615054607
0.09316802837420254
0.09375705594662577
0.09405855850782245
0.09198940220288933
0.08981732997111976
0.08992394352797418
0.08949690386652946
0.0898746740538627
0.09054190646857023
0.09071008580271155
0.09045493713114411
0.09059911654796451
0.09062703868374228
0.09062784280162305
0.0902532656956464
0.09029049512930215
0.09097062865737826
0.08978189683053643
0.08874261657241732
0.08915192190557718
0.08916471108328551
0.08796501889359205
0.08737033309880644
0.0870094982534647
0.0855288045713678
0.08333908699918538
0.08310343719087541
0.08280082620214671
0.0814926113653928
0.07969969693105668
0.07873958565294742
0.07828016345854849
0.07862513397820294
0.07728097842074931
0.07500337891746313
0.07350313156377525
0.07352374069858342
0.07394609468057751
0.07402150222565979
0.07290049190633
0.07222636045422405
0.07193131965585053
0.07192939850501716
0.07185392524115741
0.07142873665317893
0.07081487691495568
0.0698589187581092
0.06995372966397553
0.06893499150406569
0.06729884329251945
0.06625544630922377
0.06574050983414054
0.06372305472847074
0.06225187969859689
0.06236625862773508
0.06178086177445948
0.06094844303093851
0.061223514978773895
0.06151189415715635
0.060718461936339736
0.06169077972881496
0.06379674631170928
0.0639817673061043
0.06302036186680197
0.06285065092612058
0.06223146391566843
0.06201339193619788
0.062423902079463
0.062419913709163666
0.06166333807632327
0.06087487909942865
0.06087066741194576
0.06115501309745014
0.062235929211601614
0.0639689907245338
0.06503862309269608
0.06491908648051321
0.0657452659541741
0.06718299580737948
0.06790523692499846
0.06689912244677544
0.06652821585536003
0.06664877275936305
0.06627202284522354
0.0658354574861005
0.0670954839605838
0.06688221749849617
0.0656763795018196
0.0666988050332293
0.06868964330758899
0.06940089684445411
0.07029702190775425
0.07213204819709063
0.07287968228571116
0.07294656442478299
0.07301929547917098
0.0732116601197049
0.07372831183020026
0.073445616485551
0.07257333227898925
0.07270610473584384
0.0718685757694766
0.06963240206241608
0.06784675208386033
0.06718915511853993
0.06670779691077769
0.0665689079137519
0.06658148118294775
0.06651899004820734
0.06621067432686686
0.06719405826646835
0.06790037181228399
0.06773813012521714
0.06853025321383029
0.06924953667912633
0.0690552122425288
0.06849042693153023
0.06876730092335492
0.0689082447020337
0.06835418709553778
0.0675479573244229
0.06743505029939115
0.06755299532786012
0.0670373536227271
0.06632251229137182
0.06665759988594801
0.06690150076523423
0.06635861756280065
0.06632906544953585
0.06737099417485297
0.06683769013732671
0.06632875915151089
0.06618411832489074
0.06627929112873972
0.06646922365762294
0.06677399605046958
0.06728982314933091
0.06647186448331922
0.06540489530190825
0.0655298162298277
0.06551564938388765
0.06506742250174284
0.06474503620527684
0.06490879425313324
0.0651277372566983
0.06503486354835332
0.06501285500824451
0.0651640648767352
0.06605785372201353
0.06707797354552895
0.06722395479213446
0.06831194157712162
0.0696655673161149
0.06944456172175706
0.06921564936637878
0.07016657146159559
0.0703360630897805
0.06969358370639384
0.06981691891793161
0.07041916339658201
0.06873429073486477
0.06732503269799053
0.06711314455606043
0.06773482004646211
0.06785373758990318
0.06829351612366735
0.06841341875959188
0.06780198371503503
0.06759727125521749
0.06813652034383268
0.06877942899242044
0.06900200002826751
0.06897626885212958
0.06953902011737227
0.06995701034553349
0.06980939311441034
0.06980639253742993
0.0688092626677826
0.06710135436151177
0.06610711582005024
0.06656696695834398
0.06680919085629285
0.06638502862304449
0.06621164980344474
0.06719713067635893
0.06690145163796841
0.06590068181511015
0.06614336505066604
0.06515464889351279
0.06386737599037588
0.06369394692592323
0.06307515747379512
0.061535781580023464
0.06080187789630145
0.060305236014537515
0.06164264377672225
0.06354146081954241
0.06466584764420986
0.06494940934237092
0.06510902285575866
0.06583301268517971
0.06616042126901447
0.06644689877983183
0.06674600002355874
0.06617235977668315
0.06703750854358077
0.06852995506487787
0.06868889309465885
0.06861298078205437
0.07000995752867312
0.06942021677270532
0.06915823608636856
0.07056859088130295
0.07063714100513607
0.06999462017323822
0.06936372661963106
0.0692669732356444
0.06896503209136426
0.06838578740134835
0.06804090598598123
0.0680761406198144
0.06827147683128715
0.06854953994043171
0.06849408224690706
0.06871526800561696
0.06811079910025
0.0680242662364617
0.06787572938483208
0.0686849009199068
0.07012513491790742
0.07180782805662603
0.07150477358605713
0.07222724979743361
0.07370229252614081
0.07471299526281655
0.07509232993703335
0.07481431918218732
0.07466650683432817
0.07553960585035384
0.07636346423998475
0.07632853959221393
0.07641124426387251
0.07699930696748197
0.07716059624683112
0.07688139774370939
0.07767002831213177
0.07892760085407645
0.07944364425260574
0.07886633021291345
0.07768532548099756
0.07756585422903299
0.07647658311761915
0.07509493310004473
0.0745491859363392
0.07389999678824097
0.0729772661998868
0.07338608941063285
0.07400990094523877
0.07324645484331996
0.07281028594821691
0.0734491262678057
0.07308572982437908
0.0718774634366855
0.07116113855503499
0.07130373460706324
0.0712906597321853
0.07084346577990801
0.07085688655730336
0.07089621387422085
0.07044669167138636
0.06989536175969988
0.06970325463917107
0.06920874118804932
0.06726251960266381
0.06508813815191389
0.06409338179044426
0.06411493715364486
0.06403655909001828
0.06421179345808924
0.06414131099823862
0.06418271424714476
0.06406104758847504
0.06406300543807447
0.0635793033754453
0.06300868875812739
0.0634276003902778
0.06474249990191311
0.0644536290736869
0.06432875538244844
0.06429102466907352
0.06353244934696704
0.06380267346277833
0.06358570938464254
0.06354623351246119
0.0645709944376722
0.0636656799679622
0.06146514736581594
0.05998132464941591
0.059904315834864975
0.06025348687544465
0.0592913912050426
0.05880821375641972
0.05861602435819804
0.05853945632930845
0.05860752084292471
0.0575905696535483
0.05618207875173539
0.05622123173903674
0.05586303990799934
0.05445907400920987
0.05436633311677724
0.054382612989284096
0.05322580478154123
0.05286042592022568
0.05323686097748578
0.05343164584599435
0.05350488123483956
0.05349329265765846
0.05386609666049481
0.053915099841542545
0.05478965442627668
0.05565455572213977
0.056000214787200096
0.05636729558929801
0.05608300125226379
0.05701557030901313
0.05741854563355446
0.05751166865695268
0.056437732921913265
0.054101536865346134
0.053249978800304236
0.053997350395657125
0.05294565265998244
0.05248798924963921
0.05232491163071245
0.05207142331171781
0.05205569916870445
0.05231805101968348
0.05164317607413978
0.05135387775953859
0.0512180209485814
0.05077395473606885
0.050529847042635086
0.05053070585243404
0.050793762574903666
0.05018568831961602
0.04926307899877429
0.048705006926320495
0.04885691290255636
0.049314417028799656
0.04927374330349266
0.04962036725599319
0.04993158545345068
0.05040162825025618
0.05117058230098337
0.05124884685035795
0.050743573340587315
0.05087129979394376
0.05132947917561978
0.05094196563586593
0.05057947857771069
0.05033101186621934
0.05051143315155059
0.05029752077534795
0.04976249305531383
0.04964969319291413
0.05017831672914326
0.051207873839884996
0.052396121439524
0.053161255242303015
0.05335737250279635
0.05471512264106423
0.0564795790379867
0.057374125677160916
0.05776894554961473
0.05906216054689139
