0.009931595030939206
0.009946317815920338
0.009968647757777943
0.009974769559921697
0.009965334008447825
0.009980315756984055
0.010019482434727252
0.010029005780816079
0.009996854952769354
0.009968677007127552
0.0099711706826929
0.00999761828337796
0.010042799533111975
0.010076688771368936
0.010047571421600877
0.009982239756500349
0.009938079327112064
0.009940098249353468
0.009946950712474064
0.0099455154070165
0.009948333465727046
0.009964138499926776
0.009995524868136272
0.010020732977427543
0.010017656922573224
0.010008449568413198
0.010018477067351341
0.010026362243806944
0.010011525684967637
0.009994814614765346
0.00999499469413422
0.010003381811548024
0.010005583071615547
0.009999349187128246
0.009998566439608112
0.010011400149669497
0.010027617393061518
0.01003845686209388
0.010040122383506968
0.01002974874805659
0.010015474476385861
0.010009745479328558
0.010013431556290016
0.010018177892779931
0.010023114623036235
0.01003739142557606
0.010059621854452416
0.010070219613844529
0.010053543682442979
0.010023467177525162
0.010010632568737491
0.010020997106330469
0.01003001803997904
0.010018742496613412
0.00999704750487581
0.009993451420450583
0.010022920122137293
0.010058340629329905
0.01006059513776563
0.010033217255258933
0.010009209107374772
0.00999967030948028
0.009981221742928028
0.009946096026105807
0.009934552295599133
0.009963194706942886
0.00998432844877243
0.009970545289106666
0.009949466974940152
0.009935919519048184
0.009918258925899863
0.009895855890354141
0.009876602427102626
0.009867168782511726
0.009867874648189173
0.009871277178172022
0.00988641702919267
0.00992210243246518
0.009944443693384528
0.009918542513623833
0.009868948986986653
0.009842555024661123
0.009846570739755407
0.00986349196289666
0.009883578880690039
0.009894717615097762
0.009885263522155583
0.009869915671879425
0.009873832912417129
0.009882911603199318
0.009861206191126258
0.00981835090671666
0.009791277127806097
0.009781356095336377
0.009773564678616821
0.009776205794187262
0.00979465981014073
0.009820587884169072
0.009854563953122125
0.009884958538459615
0.009884790675714612
0.009846841950202362
0.009788214650470764
0.009746428971411661
0.009748858438106254
0.00976676334044896
0.00975787439965643
0.009731676862575114
0.009720318543259054
0.009732982692075893
0.009766848995350302
0.009811928354902194
0.009848695277469233
0.009873705958016217
0.009889644510112703
0.009877800138201564
0.009833489776356145
0.009801897900179029
0.00983199173468165
0.00989868666511029
0.009925072186160833
0.009893223505932837
0.009857843454228713
0.009855876186629758
0.009868457185802981
0.009863139119697734
0.009842502009123564
0.009830744991777465
0.0098257233412005
0.009810928431106732
0.00979546144604683
0.00979389437357895
0.009789607572602109
0.009759151560720056
0.00972311811055988
0.009722188442246989
0.009743840340524912
0.009740743552101775
0.009713169418973848
0.009706622028024867
0.009735478818183764
0.009763969228370115
0.009767757736844941
0.009759636288508773
0.009746915481518953
0.0097207486780826
0.009686905565904453
0.009665609917137772
0.009666736176004633
0.009683587885228917
0.009701559710083529
0.009702761077787727
0.009704801292391494
0.009712197369663046
0.009792343064909802
0.009900859436020254
0.009949210695922375
0.009915385268395766
0.009850845822365955
0.009797703803051262
0.0097641860274598
0.009750957239884884
0.00974325430346653
0.009716882074717431
0.00967564236954786
0.009644053963711485
0.009626777318771929
0.009605799256823956
0.009574825663585217
0.00955305816140026
0.00956102769006975
0.009601023989962414
0.009647853188216687
0.009659955109236762
0.009633938231272622
0.009612174947978929
0.009616800324292853
0.009636423299089075
0.009664247169857844
0.009694771084468812
0.00971247220877558
0.009712722277035936
0.009714451408945024
0.009739010813646018
0.009773313670884819
0.00977874943986535
0.009748129909858107
0.009707927439594642
0.009675832684151828
0.00965711240656674
0.009649944788543507
0.009648357462137937
0.009656117123086005
0.009672357257222756
0.009679887847742066
0.009679831329267473
0.00969285283004865
0.00970884803798981
0.009703959714388475
0.00969019357697107
0.00968281642301008
0.009668362543452531
0.009645618445938453
0.009642797174165026
0.009662822103127838
0.009668402505340054
0.009655003569787369
0.009664954186882823
0.00970721319084987
0.00974477275274694
0.0097552316240035
0.009736275339964778
0.009693193666171282
0.00966446908772923
0.009693634944269433
0.009749944541836158
0.009789531884016468
0.009785551648819819
0.009761741028632968
0.009732947014272212
0.009707062734523788
0.009690026980824768
0.009678121097385884
0.009672712393803523
0.009681342621333897
0.009700198172358796
0.009716655146330595
0.009732070423197
0.009755564937368035
0.009773562888149172
0.009760032908525318
0.009714855897473172
0.009675316194770857
0.009667749410727993
0.00966650531743653
0.009646335878642276
0.00962343848310411
0.009617592032300308
0.009624266291502863
0.009629397770622746
0.009633117952616885
0.009650953835807741
0.009692676092963665
0.00974224649136886
0.009766451042378322
0.009749645604752005
0.00970762977260165
0.009671990434871986
0.009665579940192402
0.00968089470290579
0.009691506078233943
0.009693241121713072
0.009706956704612822
0.009734680427936838
0.00975415818975307
0.009749533592257649
0.009728420965839178
0.009722835135180503
0.009740040474571287
0.009746587667614222
0.0097475383291021
0.009779929667711258
0.009831718348432333
0.009863766640191897
0.009862562413327397
0.009849036074010655
0.009862770359031856
0.009905276509234682
0.009931317158043384
0.009920949053484946
0.009902759365504608
0.009905696330824866
0.009924681520787999
0.009943279520375653
0.009970430477987974
0.010005455459468066
0.010001890539424494
0.009945193621097132
0.009902959665050731
0.009923350739991293
0.009959740473423153
0.0099568929488305
0.009934389659902081
0.00992812858428806
0.009929730908479541
0.009927038982277736
0.009936932133277877
0.009967590842861682
0.00998483095318079
0.009960233657620847
0.009929894554661587
0.009939145437674596
0.009963400728302076
0.009952715334948152
0.009906797335715964
0.009861082477727904
0.009843143530888483
0.009849346997216344
0.009847494884161279
0.009821683533955365
0.009804330160841345
0.009833660474978387
0.009892962229205295
0.009930619107326493
0.009935363854747265
0.009940897607011721
0.009957227349514142
0.009958910762798041
0.009937103571137413
0.00990806462126784
0.009877817300148308
0.009844079380854964
0.0098218341905158
0.009822989567182958
0.009831572234397755
0.009832930064294487
0.009833740066969767
0.009828626748640091
0.009792696211952716
0.009734321670839563
0.009706682991236448
0.009737967853434384
0.00978678674204275
0.009803429140010849
0.009805300182197243
0.009831126596545801
0.009863685182062909
0.00987355986959301
0.00987740908516571
0.009890930764377116
0.009901561944279819
0.00991526170168072
0.00995092813973315
0.00999192573246546
0.009998232218204067
0.009961132475873456
0.009919885710114613
0.009918939088238403
0.009958407160593197
0.00998887837631628
0.009968132886569947
0.009918205307330936
0.009889529427746312
0.009894974005874246
0.009909388198284432
0.009906865352531895
0.009894440626958385
0.009896212993189692
0.00990529807517305
0.009899504238273949
0.009885759603930637
0.009889565812190994
0.00990713077946566
0.009936865316703916
0.00989259977824986
0.009791569856461138
0.009727005077293143
0.009738471776945517
0.009768874358851463
0.009772144336020574
0.009768937304615975
0.009781795296585188
0.009792557081673293
0.009787750113755465
0.009790994395734743
0.009817901531932875
0.009853197197662667
0.009884945140220225
0.009910620637238026
0.009922646874329075
0.009918131603626534
0.009902180467033759
0.009882975374348462
0.009880392742343248
0.009903118092333898
0.009918325102189556
0.009899724532151594
0.009871230277931319
0.009860789680387824
0.009858803619863465
0.009840048751793801
0.009803556790575384
0.009770187231479212
0.009749765618471429
0.009736111256061122
0.00970786292804405
0.009651229712180793
0.009611852685920894
0.009644784288248047
0.009713660924462601
0.009741929608862847
0.00972117269411683
0.009688276366796344
0.009667953819734976
0.009672318146331236
0.009689271928509697
0.009690674643497914
0.009681023613084108
0.009685272828210145
0.009701262273592874
0.009711790734436364
0.009718050186056643
0.009734427682124078
0.009761216817423701
0.0097841577953659
0.009803808474680408
0.009826006412040442
0.009830579976551235
0.00980633613653481
0.009786111423745752
0.009805965879932045
0.009857715180842205
0.009888738875743002
0.009862889103824274
0.009812781304353847
0.00978869758779183
0.009801594729069621
0.00983582707005553
0.009864921907428652
0.00987652902607806
0.009889718032209203
0.009913077132077888
0.009924234136706218
0.009913112267386169
0.009901839708909392
0.009911212099250406
0.00993010057718493
0.009929166414076462
0.009908213809831068
0.009904581470182165
0.009937701676972211
0.009980767115484923
0.009994235564954579
0.009974837554618716
0.009958774527767673
0.009965343836229294
0.009975860499544069
0.009969264441169799
0.009947190796956419
0.00992687619989738
0.009915067825932055
0.009900281197624282
0.009874780331738293
0.009846180053427816
0.009818871462484821
0.009796394139993937
0.009798064617207274
0.009825024526799097
0.009846235133009031
0.009846546149346977
0.009842681027948856
0.009850883211474865
0.009864692522678525
0.00987106110318564
0.00987326103495434
0.00987724700011313
0.009872415554709732
0.009845981585094706
0.009812140641734003
0.009800622072070837
0.00980352638522163
0.00978765623876825
0.009762033729348332
0.00975563402636908
0.009758127931272611
0.009743966241367162
0.00971446675248444
0.009692451339215041
0.00968839175067842
0.009689058419317007
0.009686557764653117
0.009685614996124059
0.0096877657645382
0.009685950068524107
0.009665004997514189
0.009633580155204982
0.009634015100309624
0.009679826798383147
0.009732752342242747
0.00975469391909428
0.009748926871689037
0.009743643971160055
0.009742023969301954
0.009730071937665343
0.009718606226379052
0.009725299691781401
0.009739709713030606
0.009733909540809691
0.009707701845327392
0.009696707424009219
0.00971283445833251
0.009729962163837626
0.009743526121601462
0.009775723264319823
0.009821904191048815
0.009847903955960646
0.009842184806475416
0.00982649962301366
0.009816552123520523
0.009821027538273484
0.009845766953658313
0.009864342890214175
0.009841873050900176
0.00979122453602031
0.009759651246713474
0.009768790531670674
0.009793982217088342
0.009802662532310933
0.009797727045370266
0.009802688295021653
0.009819588478421792
0.009833026357227936
0.00983516821754165
0.009830412840237841
0.00983582208864391
0.009862302641849965
0.009888194049708546
0.009893624752294272
0.00990015119779855
0.009928440026706085
0.009954917513532564
0.009951264866394922
0.009936841725138947
0.009949097221251577
0.009978459543781355
0.009982076613232494
0.009952762209577486
0.009925888339057564
0.009928055135533213
0.009955116673372686
0.009981693475274368
0.009982232663314789
0.009964627617737278
0.00996146302553825
0.009976830646628514
0.009982941896887497
0.009974820280913264
0.009974065207643434
0.009978836824884638
0.009978536140406504
0.009986112379701808
0.010004176596412435
0.010020816097967327
0.010035137535305693
0.010046006981283426
0.010053482856601476
0.01006355086923577
0.010072962034028023
0.010076329272706061
0.010080497855087743
0.010099162351107225
0.01012903155409731
0.010134139535948635
0.010101155659649521
0.010086716063087807
0.010128107983618975
0.010167088828748092
0.01014590128674172
0.010104864514432847
0.010110700321383774
0.01015082812635228
0.0101720641029533
0.010172471342375502
0.010177459151018411
0.010180168828228489
0.010175113095901906
0.01018123835325241
0.01019326045177877
0.01018906379234977
0.01017820002976805
0.010168443863512948
0.010136751405661925
0.010081336254952476
0.010034292715135961
0.010019049346446991
0.010033285059034825
0.010053686904720962
0.010058221770450473
0.010050583470147104
0.010055296170758083
0.010091348649002612
0.010144278700463473
0.010180552707752213
0.01019176017260179
0.010193469994701445
0.010202811387134716
0.010234984210692346
0.010278315423056484
0.010286278208950535
0.010247525445884094
0.010217603838536888
0.010234261057339608
0.010267195177730172
0.010271908162394539
0.010235996192786843
0.010189532696967945
0.010169110405258834
0.01019132196321152
0.010215593430912122
0.010202761123655363
0.01017399637377821
0.010168434837833046
0.01016984203015454
0.010154019194887952
0.010139302146853879
0.010128156447317451
0.010105963202659041
0.01009752627578564
0.010120968259871006
0.010137231167173013
0.010113675858592614
0.010078744931379334
0.010079304110258818
0.010116408044705167
0.010157303779851645
0.010193349871551618
0.010215280777774751
0.010184636543272063
0.0101151730469428
0.010071760809514671
0.010062097951304168
0.010056814892450347
0.01006569154909812
0.010099816505098716
0.010130120208486915
0.010130732972174882
0.010115911662578582
0.010111141455126926
0.010108424241188914
0.010089687734143808
0.010074932096758858
0.010084469533758238
0.010099610654870049
0.010110756418434903
0.010132309518521652
0.010149566651089117
0.010137404820416123
0.010124264956684783
0.010150473893154412
0.010191405983641743
0.010192394744371995
0.010152362622320651
0.010113751459866762
0.010094272509450093
0.010088546408805996
0.010101175766903907
0.010130898836068809
0.010154664692236111
0.010150219821371138
0.010130410098936409
0.010129319227999076
0.010138581219362095
0.010122487978078425
0.010097052736673504
0.010100604437757283
0.010119580584578215
0.01012164025916718
0.010113231176510452
0.010121952890185639
0.01015091567998752
0.010175329985795543
0.010185297945281491
0.010194197483360767
0.010203698381083086
0.010213174194796011
0.01023673321469687
0.010268273280235007
0.010276595572941005
0.01025955485412851
0.010250716208247468
0.01026025865925476
0.010264345551840961
0.01025427543441765
0.010245608246186748
0.010245415433309972
0.010245055212872103
0.01023882484761998
0.010230879194568842
0.010223322286037728
0.010216275060083718
0.010214786900905892
0.010217475550016389
0.010217752502067015
0.010212183448020369
0.010198928868630901
0.010185283637838438
0.010185088634025306
0.010201688149245457
0.010219052250031382
0.010224765492603182
0.010236388542689384
0.010267744528828188
0.01030243310611695
0.010326405472587794
0.010342384928371758
0.01035653547034599
0.010364959673024714
0.010356325614266098
0.010341412537964062
0.010336007043952123
0.010321119329892098
0.010287549330387264
0.010268093453487382
0.01027403820073232
0.010271075305063278
0.010239268679870293
0.010206996287452056
0.010211833147332072
0.010244899647077546
0.010260235655587167
0.010236421626759694
0.010200822592014446
0.010187954198336228
0.010195467971498147
0.010196660672081635
0.010185174421640113
0.010187770974589512
0.010218626329442487
0.010250948006287217
0.010268983646528795
0.01028750191326253
0.010298694076482207
0.010279428369831294
0.010236374427331612
0.01020320518873632
0.010214022975414992
0.010260726463748142
0.01028935567708686
0.010269520990550517
0.010230726639274507
0.010210906241554766
0.010199656416662038
0.010164911628235131
0.010119887983892113
0.010108521761139855
0.010136971574975178
0.01016861604875885
0.010174059509299695
0.010158609326463192
0.010141022854950279
0.010131505422759802
0.010134750592987985
0.010147270786110312
0.010158478036755696
0.010162907500052824
0.010165639992337674
0.01017155839712359
0.010161426238482818
0.01011327249580063
0.010059009700780734
0.01004804313648492
0.010068595766788348
0.010091155763948336
0.0101228671555873
0.010155201589222998
0.010161496724467724
0.010160949799465016
0.010190426532644778
0.01022954493528232
0.010224333822261542
0.010174409195315093
0.010136113653425127
0.01014037711196579
0.010165319871157407
0.010187168655684219
0.010200198324164376
0.01018682099529542
0.010137772326124832
0.010093061834340914
0.010091481452109292
0.010126977419713513
0.01018459114478901
0.010250273837009445
0.010299711031839251
0.010309614392463117
0.01027508089900948
0.010230531350243837
0.01022218342171982
0.010248068782966585
0.010268563395366073
0.010256640168372542
0.010215562325902284
0.010173533677589148
0.010155670245876536
0.010161909610033035
0.010186472387285903
0.010219633040251211
0.01023486535414122
0.010230266955913976
0.010236092450795695
0.01024960312526673
0.010241567093180493
0.010221356126712634
0.010225710285594687
0.010267905746586621
0.010328479757299646
0.01038864003494382
0.010414096898166463
0.010395891520893201
0.010368487475207076
0.010365604797843844
0.010370192853733896
0.010351716177538037
0.010320785136427731
0.010316281811101361
0.010340487845242023
0.01034030263312161
0.01029711146140471
0.010273909252136946
0.0103110604849644
0.01036373875918798
0.010391292655840515
0.010407567707588897
0.01042254150728695
0.01041705637704581
0.010376225718064234
0.010322923107305542
0.010308197651756928
0.010347336112754419
0.010400593393715098
0.010427144536515697
0.01041992378886789
0.010403337083989755
0.010408001156756655
0.010425664043286815
0.01040875174687244
0.010348891025641934
0.010310875391587615
0.01033804847393185
0.010383536224253476
0.010386852523079143
0.010357667504576966
0.010339917369419709
0.010343248925637453
0.010348750445991754
0.010357544089201838
0.01038476912304759
0.010413613428827375
0.010416213421849533
0.010407607125816867
0.010420787242474035
0.01044614004669711
0.010453906318871305
0.01045382936601527
0.010472693253541365
0.010495383875677363
0.010482462689979002
0.010446548351319506
0.010444817175157368
0.010476612417260184
0.010489494050852954
0.010486262944759801
0.01050267536076717
0.010518046101788059
0.010502216794993729
0.010489897930528968
0.010523416355717928
0.010580955675104633
0.010611296553397551
0.01060296943411231
0.010589088511187584
0.010585958159063012
0.010567246221471578
0.010523186852224172
0.01049072930472903
0.010490175227168948
0.01048793013440445
0.010460363160818815
0.010438453442184255
0.010448173184413464
0.010461416646139697
0.01044943658169359
0.010428373727481812
0.010419962333980948
0.010420170103898271
0.010413140075979755
0.010391291619744152
0.01036436096066609
0.01034832256147638
0.010345951853087171
0.01034804025082849
0.010364618035964668
0.010411179398652166
0.010454362406162545
0.010451484442455694
0.010411544154630975
0.010355299782240764
0.010295493898447604
0.010268990619806573
0.010285209205467254
0.010284154028631746
0.010244612629758194
0.010220201459014788
0.010209460689220578
0.01016063974937424
0.010097080291016027
0.010081351654371247
0.010109838490607218
0.01013982435571961
0.010163579031359404
0.010195933637442067
0.010226643458008767
0.010239033120451496
0.010251100092427806
0.010279268719023094
0.01029367910930887
0.010271648685447872
0.010238905866863206
0.010215484300861135
0.010198252154514193
0.01019979896140285
0.010229971003718674
0.010267359799472615
0.010289169817697256
0.010294164763763547
0.010290895503712818
0.01027871529222466
0.0102531058981549
0.010233933860436082
0.010242831779178231
0.01026242198422551
0.010270591496955604
0.010275071567157283
0.010283622981514782
0.010279791319044307
0.010244669374078513
0.010189889878965915
0.010150752404006197
0.010144460456212983
0.010153802140848711
0.010157449657563121
0.01015657895244658
0.01015870610368438
0.01015903479536064
0.01015704643097706
0.010163437097799034
0.010177022719290107
0.010187940216856078
0.010190250512678176
0.010176973682828248
0.010166122210212052
0.010195938947144895
0.010256113080540672
0.01029606907395646
0.010303966652136296
0.010299873064504937
0.010277391839772464
0.01023325715214014
0.010211773255141452
0.010236120206536725
0.010261373744579033
0.010255252827191726
0.010234346585348249
0.010207233784021809
0.010175083884969354
0.010153223677771167
0.010136113137705252
0.010108490339480341
0.01009059458039701
0.01010925380513072
0.010151255871169268
0.01017980915377848
0.010179361040936783
0.010166149511933327
0.010155148090561852
0.01014113933313638
0.0101346463477239
0.01016536311712116
0.01020993139478378
0.010200359178707003
0.010127811258425936
0.010051275416044518
0.01001120739034377
0.009993095810059457
0.009975636485032737
0.009976552977459505
0.010010338535066695
0.01003978585009463
0.010027799274539576
0.009990457830717787
0.009965104192961007
0.009967958052875474
0.009988282647682353
0.010006053987890482
0.010006545587675646
0.009977430158760398
0.009927515785675496
0.009902066155336797
0.009934316801372916
0.010003912810934707
0.010060384069802239
0.01006909316056408
0.010040901449974627
0.010012777656083927
0.010003485813504085
0.01000253676204011
0.0099890102352947
0.00996133151347749
0.009947575674159452
0.009964949127752334
0.009988680189708247
0.009996295149903744
0.01000848395517096
0.010033346364507452
0.010024298811331392
0.00996846505207941
0.009935132779646664
0.00995898716384545
0.009977826855611056
0.00993988951202482
0.009870685536880046
0.009817523623351008
0.009802337463479489
0.009817243239376694
0.009839008732233196
0.00985989899840206
0.009888913135509938
0.009916497744852678
0.009916696225991473
0.009890976785682142
0.009869640221586451
0.009869031105190516
0.009877884639427065
0.0098765084031038
0.009858473917702212
0.009846554257674143
0.009868225870886817
0.009915127721615135
0.009962373730959371
0.009999674413120375
0.01001137720188126
0.009980247945059091
0.009941120959119872
0.0099278472433798
0.009943306283093988
0.009940654905512929
0.009910131471697241
0.009884986095130444
0.009877537632128223
0.009866000803885982
0.009843998645665123
0.009835959224728867
0.009847893018741161
0.009846956668188795
0.009819463428575545
0.009802071958547457
0.009818820669315755
0.009838040509494021
0.009835590972797945
0.009834614575374871
0.0098458879487589
0.009853477589786053
0.00986417090287432
0.009890785573516041
0.00991231097956188
0.009903427805984393
0.009870484098792076
0.009835433189291507
0.0098128690070007
0.009810867027845234
0.009827188950730488
0.009839657755801454
0.009834904972231016
0.009833105512661859
0.009842091207392514
0.009843754360917955
0.009844912157859653
0.009862077664583921
0.009879446218255906
0.00988138681743294
0.0098858236533124
0.009904696302255616
0.009918303308077157
0.009922313776332885
0.00993355623097159
0.009943365309154614
0.009936974375741557
0.00993235825211741
0.009946961497189478
0.009964503995142877
0.009964529832359403
0.009943521089153364
0.009912377266446129
0.009906045465031639
0.009941265876404941
0.009972422716673464
0.009968642874155194
0.009966044152388349
0.009982423599576578
0.009988669020822271
0.009981224248185754
0.00997346460004337
0.00995311448466964
0.00992737445863895
0.009926166668301449
0.0099373650085181
0.009936763468431309
0.009945637193741277
0.009975506543414668
0.009984773468459026
0.009949275514809414
0.009907287617679686
0.009900103197433055
0.009917715344345197
0.009931049168808386
0.009942516016308219
0.00996274852543138
0.009980534997303038
0.009996590710943564
0.010022702513961122
0.010034330894704908
0.009995188815519213
0.009947912514908239
0.009897852904396131
0.009909042136278003
0.009925803733058274
0.009901652673725038
0.009877580335596577
0.009879273487022146
0.009863374385749921
0.009823650802718475
0.009805263365851715
0.009816269825678318
0.00983855031663552
0.0098701855330728
0.009902477961732074
0.009922580998390914
0.009936892507830634
0.009956118477275596
0.009984393741469831
0.010018321489915251
0.010041357649024576
0.01004467903985642
0.010044500738149508
0.010048554820241407
0.010036585556808858
0.01000740525429137
0.009994872868992389
0.010015413186047227
0.010047160793328657
0.010052401227876545
0.01001047580386512
0.009943325379863381
0.009890112552093343
0.009866912454599515
0.009865552618866786
0.009876367979450152
0.009903319632867351
0.009948330811457708
0.00998773707775399
0.009993579527363182
0.00997704550391063
0.009974533962085842
0.009996313455048948
0.010020780941704287
0.010027303341776133
0.010020373605657369
0.010018730664160102
0.01002139249118045
0.01001412344747223
0.010001404465874657
0.009993750751018524
0.00998802768997848
0.009984156056307257
0.009986194481607527
0.009987804590491579
0.009989298381842673
0.010003081517061219
0.01002999750431627
0.01006701244157739
0.01011780196451582
0.010164914352353662
0.010182498479261995
0.010186846010619775
0.010202192772412673
0.010196814981754869
0.010136956587666645
0.010057895361678676
0.010017679928569122
0.01003147074370645
0.0100685102539137
0.01010608994634822
0.010134930782951414
0.010152676472207531
0.010167688912479206
0.010192540410207585
0.010218242798000574
0.010206777799176052
0.010135246878489853
0.01003579885349609
0.009975581575417891
0.009987177548464388
0.010031881293980405
0.010057408246211708
0.010057110650232062
0.010052053587278351
0.010053110792068765
0.010060190198710189
0.010074207138968632
0.010086645405972377
0.010084082290995866
0.010068062252830714
0.010037261914694682
0.009993437370285392
0.009977645572507753
0.010015129754319787
0.010058067128993571
0.01005795600824058
0.010022043688222767
0.009979520898777992
0.009963483461178839
0.009989278363063932
0.010028054404538125
0.010048186935018749
0.010052017571870237
0.010051863193511963
0.010052561030024663
0.010062875378644094
0.010090947571443394
0.010125798216322437
0.010151728373020887
0.010162151068216189
0.010144470534287393
0.01010364258196205
0.010081323065096513
0.01009488504496403
0.010108819246524944
0.010093401581980289
0.0100585772912018
0.010024501972366125
0.010005266958614811
0.010020038632210343
0.010058418336557224
0.010094782109372319
0.010096822286723182
0.010079879019176587
0.010060717433225364
0.010042548421770334
0.010030803265981375
0.010031603949610144
0.010039370943559334
0.010045020525576548
0.010051415896741673
0.010066505526192487
0.0100814862200059
0.01007144269766286
0.010043044766644017
0.01003864909056574
0.010053054451709613
0.010042896755039691
0.010020042788237333
0.010011280592298135
0.009990745573304594
0.009948617422487586
0.009924189645098523
0.009930588983697817
0.009943090920569376
0.00995500929420814
0.009974332324927672
0.009987165261991322
0.00997582990443334
0.009956279093166813
0.00995209201821126
0.0099596935370937
0.009970339884748682
0.009978741506347432
0.009979435085551814
0.00998510452802293
0.010004863666836172
0.010020618002163246
0.010023342587519437
0.010029176311800257
0.010038402852369472
0.010019136958289892
0.009960560975596309
0.009912077644839883
0.009921764667378739
0.009964844404021279
0.00998646347085014
0.009982283422723413
0.009984908358892425
0.009997011203086003
0.009992151880869642
0.009967772929230704
0.009950477819656953
0.009958742011804134
0.009984131254022942
0.010009901475859806
0.01003386134863831
0.010054951187921688
0.01006296713487245
0.010054598433198407
0.010033774774055928
0.010010276172542944
0.010004893474979326
0.010021822899580002
0.010031367911724374
0.01001723769120872
0.010008617757121101
0.010027393155032769
0.010043909662635997
0.010028923951322212
0.010003502292092889
0.009991770425112918
0.009982956511666998
0.009972049741772935
0.009968136433744803
0.009956177237909288
0.009917204662924632
0.009876078751403838
0.009879978544777259
0.00994525724207051
0.010009740031091497
0.010060474502388388
0.010044230037601664
0.010037885478232056
0.010077783906599507
0.010095162522047759
0.01005824789055623
0.010023011052981019
0.010021257220068946
0.010026950674364344
0.010017029950395226
0.009988687133882195
0.009949280300643295
0.009920134901767597
0.009917580760084093
0.009929926510667429
0.009934425471583382
0.009919863988179713
0.009891527079744264
0.009873881228268147
0.009883673434378579
0.009900509472936391
0.009908772183116525
0.00992751901387237
0.009954901961609721
0.009953286410309374
0.009914969056844712
0.009877955456031486
0.009869850149843842
0.00988046650076285
0.009887723207939417
0.00988493358832784
0.009882481800159439
0.009890327474568038
0.009909360109595582
0.009937561802798882
0.009960313504561781
0.009953415520722047
0.00992431525606662
0.009906732962699607
0.009907920208061114
0.009910461285617202
0.009903833447024226
0.00989421970793046
0.009898450411856174
0.00991595618892461
0.009926732674939558
0.009924056943273172
0.009915074850432574
0.009909196187509224
0.00991871258825995
0.009938216048758476
0.009945346396416426
0.009939576757606119
0.009932804752606899
0.009917194759473204
0.009889805604470893
0.00986530795111321
0.009842625411693007
0.009815200676675885
0.009795438202563672
0.009781111420597881
0.009758464543847368
0.00974985771928914
0.00977598097291775
0.009811188203748315
0.009827928895829246
0.009826680475380272
0.009825880946591497
0.009821686390787364
0.009805301176384092
0.009792087397072465
0.009794546680059284
0.009790358763420954
0.009760517817921937
0.009735126029700041
0.009757348188431934
0.009815669524250552
0.009851583008421585
0.009835960125783458
0.009798880835296587
0.009778797500766814
0.009777867936063557
0.009772222017636523
0.009755254151532427
0.009752810972277075
0.009778305821819232
0.00980962382396683
0.00982954286970198
0.009844314260408282
0.009863193535711617
0.009886262251529842
0.009904076164821163
0.009914583681384101
0.00992601681733504
0.009936160937650129
0.009943811480188742
0.009955568526638672
0.00995722071849741
0.009928238515276461
0.0098849751369562
0.009859282977413387
0.009855816818308084
0.009858448785962537
0.009846816179342568
0.00981621383340098
0.009791121658636256
0.009789443394402042
0.009800373252946883
0.00981306066387333
0.00982760012964718
0.009840954939136282
0.009849118059501052
0.009860171715263277
0.009888530552852898
0.009920074136462063
0.009906261241994799
0.009839715947164223
0.009786587402923033
0.009784537371015176
0.009792065556393937
0.009775424221297726
0.009757858734810726
0.009766051797196269
0.009791517643025145
0.009809305480448529
0.009814746852498502
0.0098303269862663
0.009860840897308662
0.00987670099013485
0.009863762878812849
0.009844613878522068
0.009842020358191803
0.009856417948612943
0.00987506949924864
0.009884192541940139
0.009886353834299371
0.009898852017940954
0.0099128572572954
0.00990159070235677
0.009879176100948826
0.009877107525244355
0.009890115833841265
0.0099063567945268
0.009929630617843941
0.009949316724669189
0.009948184144450352
0.00992648871964775
0.009893882563337683
0.009869152950122952
0.009870050771860405
0.009873521066037939
0.009837418681709096
0.009776811318006366
0.009748025954468175
0.009762048759730533
0.009777698141988367
0.009766511777415872
0.009745734292082489
0.009745235393056646
0.009765425454825163
0.009792208444559946
0.00982152582728304
0.009842392356367781
0.009840198896126822
0.009827186310430988
0.009826783511089161
0.0098333869734779
0.00983037106692791
0.00983476456720382
0.009864352676086128
0.009883616110309959
0.009862671514274552
0.00984270241460763
0.009861321236239746
0.00988471635733731
0.009876511462498455
0.009862082223407924
0.009875413692789152
0.009898900294210762
0.009903977131471038
0.0099035284970887
0.009921760995639487
0.009955146885477006
0.009986923869000748
0.010000832050573082
0.00998158035799861
0.009939959233161062
0.009921866428339855
0.009952432916034013
0.009991891484241932
0.0099905494437553
0.00996251524775289
0.009960582095663995
0.009997219293145463
0.010033105413895101
0.010035303013864905
0.010018739266088232
0.010019369914662093
0.01002778577967547
0.010007351477397605
0.009975783911067992
0.009966933386167512
0.00995611113961786
0.009923153986455872
0.009906916446052492
0.009930340175051242
0.009956530518829823
0.00995933434809558
0.009968552779173478
0.010012340155662968
0.01006692366558127
0.0100972959282808
0.010102518751518802
0.010094274453585968
0.01008477395400405
0.010090896565234288
0.01009801471256651
0.010076262343209236
0.010042214501881972
0.010025147454580292
0.010012106872163713
0.0099842250905931
0.009961413667770102
0.009963252695742995
0.00996915977797471
0.009970744935562834
0.009993758379714564
0.010035645635798573
0.010063421576051041
0.010074353604577481
0.010093607197050006
0.010122196903685108
0.0101326095929835
0.010109521737322212
0.010069566783495248
0.010037116638850421
0.010021733400644734
0.010027826195582748
0.010052875482942909
0.010081618038238958
0.010103990805801004
0.01011794522521086
0.010122195590520277
0.010121125038713217
0.010119378808885813
0.010116345012793317
0.010117602850077673
0.010129258609376848
0.010140383146936074
0.010138949117390439
0.010130258719436824
0.010127643381711095
0.010138014469994232
0.010147236334159971
0.010132136691827326
0.010098113048588857
0.010077214628690854
0.010088010512990877
0.010115898876683786
0.01014106566668488
0.010172973552253098
0.01022431465331465
0.010275102810701355
0.010307365037733688
0.010330717994365841
0.010341492684092372
0.010319977547042072
0.010279434741241857
0.010259434945182874
0.010267154659377411
0.010264252052875235
0.0102272337093018
0.01018971708137542
0.010196058275178076
0.01023450547363609
0.010252088776323944
0.010228422267828137
0.010193079273449257
0.010179178073303773
0.010196663516107946
0.010232666453812272
0.010259992949431761
0.010262756852898746
0.010253977489192038
0.010250179149443284
0.010241729314438999
0.010217000055126846
0.01019076134893112
0.010182776860892773
0.010194137265207246
0.01020952885854058
0.010204396570334211
0.01016254179063253
0.010107447191840037
0.010082790853921324
0.010103579784044995
0.010149637154536323
0.010193905368214472
0.0102081541006919
0.010182089791633188
0.010148044381057843
0.010140566219342872
0.010144120268523692
0.01014000186813064
0.010144675433402882
0.010157494395971299
0.010151417426532134
0.010124615192180499
0.01011104027274996
0.010135972239077091
0.010174991531530396
0.010182409192202613
0.010148789305239915
0.010094017912633717
0.010042190162930637
0.010029618653934449
0.010071361216250806
0.01011738769360818
0.010116347172297537
0.010091647122753783
0.01008967896224931
0.010111347851343454
0.010144190303981305
0.010181889904197305
0.01020371614373289
0.010193611374124884
0.010156416286481545
0.010116569481324405
0.01010912074940279
0.010134364143013955
0.010149718791944906
0.010132636136841029
0.010100341470679269
0.010066985612502322
0.01003821705467999
0.01002563841524534
0.010030280274804682
0.010049326057778672
0.010082561105955392
0.01010094714234583
0.010072682434692979
0.010024181335465983
0.0100013457541354
0.010000326470471919
0.009995945791015402
0.009987614512210712
0.009984667613171041
0.00998575625475496
0.00997945184004493
0.009964858397142961
0.009971974155632779
0.010019878186285495
0.010066769613185898
0.010064292633906007
0.010025011386023835
0.009994250156451017
0.009997176881879568
0.010017724172212184
0.01002536000800319
0.01001824323204346
0.010006331453332677
0.00999237012816593
0.009991649730363861
0.010008167097112164
0.010007904841331764
0.009969194622244685
0.009923132967669517
0.009903382523916662
0.009891615705564618
0.009864785148529336
0.009857231267960741
0.009897095644846558
0.009935763877583667
0.009919168070191518
0.00987189842038788
0.009856835515238345
0.00988551244372502
0.0099170984281227
0.009929906415054575
0.009938342702807858
0.009947973465314135
0.00993984334403649
0.009905666867271066
0.009869878640165553
0.00986157096689567
0.009877881760476158
0.00988963830168359
0.009878331596264616
0.009854110251180827
0.009846052103675902
0.009873560703126713
0.009911270157899707
0.009911817780230195
0.009869682545540855
0.00982495073811151
0.00981890806928277
0.009846822280669585
0.009857280814321712
0.009832765092141926
0.009811506361002103
0.009813092410331592
0.009823433354031295
0.009835333133814857
0.009848406022647395
0.00985558926127851
0.0098636130313389
0.009886068637715652
0.009897924679098651
0.00986582241137512
0.009811899611959234
0.009779697285266594
0.009775770715204999
0.009785010463092476
0.009797521984437481
0.00979283077060245
0.009755386073375122
0.009724650488933548
0.009740050492109732
0.00977051030495204
0.009788351581664755
0.00981016638339497
0.00983413671841845
0.009844857085263357
0.009849919113330543
0.009857869903789833
0.00986240939470008
0.009849827410653234
0.009816549292299897
0.009795112285064533
0.009814189247554167
0.009835479710018262
0.009807582198409364
0.009759069952415302
0.009760556609835476
0.009815101311542094
0.009861576457042246
0.009865275187185035
0.009832569462014362
0.009806512795621529
0.009744458071654662
0.009697393863461912
0.009678881813306362
0.009686405706452206
0.009693983419565485
0.009684432011563332
0.009673395740101114
0.009668221276951954
0.009652413685107603
0.009630012087291107
0.009622408439172432
0.009632711296435446
0.009648212966276333
0.009650825997814536
0.009640758433379233
0.009647948235506193
0.009681462644366548
0.009703753684880212
0.009689519953681155
0.00966618436621502
0.009661482465453446
0.00966177175170742
0.009654733164934442
0.009650126094929873
0.009641511471709236
0.009616574120009318
0.009604292182484642
0.009636151805752889
0.009682456977898254
0.009698202344588935
0.009687158677261323
0.009681247308617458
0.009705419805832206
0.009755512857809663
0.009788038997212424
0.009776761281536893
0.00975694122724235
0.009768803651677444
0.00980690384400077
0.00983864144072868
0.009839320316677913
0.009820862564956769
0.009820404089987278
0.009844221571693196
0.009856135493610054
0.00983442515367642
0.009805512209422886
0.009802516902564094
0.009815736940363423
0.009815201396122575
0.009799858247861266
0.009790165240410716
0.0097994717664551
0.009830611333018168
0.0098684182879515
0.009889862218406051
0.009884390278020874
0.009865649330895393
0.00986222039326094
0.0098875462426804
0.009919592014048248
0.009932028024923056
0.009924349087523297
0.009911646128166467
0.009900815883884206
0.009894849109696225
0.009903989759040997
0.009922415658365935
0.009926820937544108
0.009913600186118856
0.009895233939168975
0.009869296888355165
0.009839030244620517
0.009830437406199053
0.009845737201394512
0.009859036391135305
0.009865831137867645
0.009878826312487946
0.00990036983275786
0.00991943116649054
0.009917539035668596
0.00989230876788497
0.009860505192773417
0.009824905417626723
0.009783393436810001
0.009758201857330277
0.009771086414111778
0.009812520381528885
0.009845585509901866
0.009836132277268917
0.009794350614538417
0.009764733229530975
0.009767754485365003
0.009791452375939116
0.009821117405081167
0.00983743712422438
0.009822297843638807
0.00977874436415732
0.009726321677444503
0.009693446051096543
0.009701110793976113
0.009741850611753762
0.009795363716548308
0.00984523800900206
0.009871433381922543
0.009867941746488213
0.009862962854094803
0.009882727835793048
0.00991093618911691
0.009920251281000674
0.009918070026906207
0.009921633896883577
0.00993365510716103
0.009961721143918112
0.01000470835599117
0.010039985665353015
0.010054468634771184
0.010051382414530963
0.010040752335917204
0.010042393573094159
0.010067044938914478
0.01009788366034627
0.010107811647467315
0.010091452480992302
0.010073213577270508
0.010073312754975632
0.010082072361838073
0.010089633211027831
0.010106509958859533
0.010128955043619499
0.010128636606968939
0.010099499678472058
0.010070400054100901
0.010058973166160286
0.010062863802304492
0.010079715669853613
0.010091605508932844
0.010080798796843737
0.010064745334675535
0.01006707810680382
0.010085954803507775
0.01011131908511743
0.010135541377821937
0.010140813094330951
0.010117074931040406
0.010084653088124469
0.010065951647702605
0.010066192138474435
0.01008321164175868
0.010101416314719246
0.010094684441573918
0.010057150955544785
0.010017822793452069
0.010008499545510858
0.01003780101891607
0.010093093001050874
0.010133603066205978
0.010128152271499857
0.010106873145559803
0.010115263141924515
0.010152531279018148
0.010183218400925398
0.010179675004910677
0.0101542851224076
0.010144740163814276
0.01016132400254719
0.0101718935999088
0.010155483511043712
0.010137551984516904
0.010139947677962481
0.010146848550066352
0.01014689788920805
0.010150342176202684
0.010158574240049347
0.010163817070424557
0.010171215735608712
0.010188281341688707
0.010202344207791612
0.010197357696015388
0.010177212549606338
0.010153883571038023
0.0101446908316575
0.01016105828108266
0.01017116857226938
0.0101429958071094
0.010104208536213265
0.010082518045092002
0.010068046586820856
0.010060357121983544
0.01005749765317887
0.010039336825720967
0.010018157652812078
0.010031350104836747
0.010067163730273023
0.010070537427673117
0.010029221521690487
0.00998910428956151
0.009983522678958252
0.010017679064767436
0.010063899466767907
0.010150286408606917
0.01018572595785372
0.010168167332885787
0.01015334703726694
0.010161068236920983
0.010167151392670349
0.010179212808143347
0.010226772850146518
0.01028399856062606
0.010293569244677201
0.010260478615527972
0.010220133219845592
0.010196429206989705
0.010178919408936053
0.010170670897932723
0.010176974378991873
0.01018402480869554
0.010189376946073025
0.010212363692699001
0.010247673543635755
0.010257783150300383
0.010224384125322103
0.010165189853869378
0.010106626121560111
0.010074162997771054
0.010083443558542057
0.0101153857819736
0.010132195068290457
0.010123169044964015
0.010109049801249057
0.010114045022055507
0.01014130747062154
0.010157133247703313
0.010124769120011479
0.01007149923592806
0.010062848039669916
0.010100258854217828
0.010117747109616175
0.01008320076391101
0.010037377902772277
0.010025616406928749
0.010036437417147681
0.010033033000072465
0.010020017174538225
0.01002935457858257
0.010055998822208494
0.01006562849972397
0.010053632401395588
0.010047484880778938
0.010059937870828435
0.01007354055531323
0.01006918930215761
0.010050630355253816
0.010031659438973294
0.010016153091564775
0.010005269387038425
0.010005846719723195
0.010012081599561497
0.010000698931980878
0.009978220966877416
0.009981083931634202
0.010005059376126155
0.010017578459810465
0.010019349347567185
0.010025036769220605
0.010021537186112255
0.009989151926711203
0.009947763400850818
0.009930104828672483
0.009919616781407967
0.00989282617578283
0.00988895226502791
0.009938483396545052
0.009992390603292734
0.010011639473959803
0.010017796808388085
0.010019791478989647
0.010005642677424476
0.009981800846289843
0.009965114563237875
0.009973118787165731
0.01000344893662259
0.010020912390900775
0.01000793524668552
0.009994964686920866
0.010008377109188586
0.01002176690264605
0.009998063546372577
0.00996149200713262
0.00996429713210091
0.010005454792408273
0.010046554656000808
0.010066650025546551
0.010069745704531669
0.010075692681130021
0.010094371029408649
0.01011061571072787
0.010118699774611741
0.010128182286862283
0.010137426019646227
0.010141120793996379
0.010130329661769792
0.010083192249294371
0.010004648629110307
0.009950190040981396
0.009957507888320833
0.009992002551443875
0.010004471554420889
0.009998170577455312
0.010000871232477948
0.010013756438856944
0.0100199539528694
0.010007318563293666
0.009974805489182472
0.00993827796424739
0.009916285243816674
0.009915474193403497
0.009939007490174845
0.009972220114432275
0.00996744587435387
0.00990709675475955
0.009861410354496912
0.009898296421160921
0.009969750775489956
0.009991428551729768
0.009976595533080399
0.009978626933880151
0.009983160698320717
0.009953214664710686
0.009908955916762352
0.00990184047492221
0.009937642494915053
0.00996981633710675
0.00997374668251723
0.009967821737518534
0.00996322834631428
0.009957510262029245
0.009953646749490872
0.009954454872058704
0.009957541179610417
0.009955495545873418
0.009948222966631875
0.009947551048826426
0.009954806497553363
0.009957073915284127
0.009951886174967513
0.009951700456440449
0.009955743524478748
0.009947516329120845
0.009932482651202008
0.00993251772597432
0.009943113171029836
0.009951666102278978
0.009966778053203597
0.009984003689605742
0.009981773615581915
0.009963707831921055
0.009952284846222029
0.009952694125240668
0.009944937559776008
0.009911703886464238
0.00986957264598459
0.009850301711121574
0.009861402311362327
0.009885896798223257
0.00990602037170902
0.009917855634121224
0.009927994717145339
0.00994513540994376
0.009973089705454186
0.010001224523875862
0.010012391642667352
0.010006343654822558
0.009997537382878363
0.009990876024821772
0.009986310369567946
0.00999184585059993
0.010007801728788764
0.010031443705083803
0.010068996483460069
0.010105524983955547
0.010108914031879976
0.010084875612519681
0.010069160555722191
0.010072159222327173
0.010080579918576405
0.010093869068659842
0.010115175371756777
0.010128877524985001
0.010130952370818704
0.010138783000875264
0.010147256875643506
0.010128139896551147
0.010078194714151324
0.010053176350193099
0.01003454604651779
0.010031688471790402
0.010039213626878336
0.010047613509232178
0.010022315833484754
0.009969902550801634
0.009948178072227165
0.009964653045171872
0.009968155556125567
0.009947136659175158
0.009930314138764516
0.009908159733749927
0.00985413812333718
0.009803921250859276
0.009814654868096113
0.009864153824746608
0.0099072560435161
0.009930495708249509
0.009957703225081787
0.009983580112457275
0.009985478692688048
0.00997279611765407
0.009971252641407772
0.009973060452612117
0.009953086470486596
0.009924161898670718
0.009923648480325937
0.009956832173047587
0.010006312924670056
0.010051596513949334
0.010054034751374275
0.01000407117069699
0.009957668628776445
0.009955712382216007
0.00997283356729895
0.009977375369053333
0.009970796334091574
0.009963366528972983
0.00996774665429257
0.00999561406322755
0.010023498240625485
0.010019504799274728
0.010004556190688163
0.010014884797856212
0.01004318630322814
0.010064642721554265
0.010072457053465768
0.01006504223914817
0.01003300429903902
0.009982406540075317
0.009952077374327928
0.009973725111922249
0.010019990012515335
0.010035762594779953
0.010012916877167299
0.009988171519944444
0.00998699916759506
0.0100067700620275
0.01004413994611241
0.010098214593017473
0.010141639991197736
0.010142289019422606
0.010113255508476868
0.010092295681824908
0.010085558416321874
0.01007118540816009
0.010040083674248308
0.010001891909632831
0.009974220691947266
0.009972923228051513
0.009995382385095581
0.010025215313071385
0.01005006147432141
0.010072243601316587
0.01010124188149348
0.010128794360207393
0.010138355833478272
0.010136966739082709
0.010138498354936019
0.010130650211358443
0.01010544250253588
0.010089514720020816
0.010100229870295152
0.010131215280853211
0.010180392720503733
0.010227156925247982
0.010235828128643334
0.010216679110890255
0.010217350746970624
0.010243735335534439
0.010251548220403493
0.010229679576586931
0.010221024113707244
0.010242010203655809
0.010255073885200545
0.010235837410436942
0.010209309958154335
0.010201352409785614
0.010195658622542396
0.01016912710154429
0.01013473400962539
0.010115969140315428
0.010113615070004016
0.010114482516655698
0.010104638788616284
0.01008416889468208
0.010074027179507538
0.010082206903025508
0.010087602504063398
0.010073326276615262
0.010039080284768716
0.009996436203364283
0.009974649741780013
0.009991934333229438
0.010023282105103136
0.010033195036230609
0.0100230955646839
0.01001368833007291
0.010005988469347358
0.009993525529280305
0.009975981380557641
0.009946270941291004
0.009900546529097482
0.00985156862065196
0.00982548494823277
0.009839848803821952
0.00986120502697304
0.00983721338561736
0.009785265751415863
0.009760980939026921
0.009765985433477908
0.009776567752705887
0.009795340982964262
0.009827524501597509
0.009872855121502653
0.009917553892591968
0.00993009288329631
0.009916629439685494
0.00991665166337043
0.009935527363559231
0.00995281342533417
0.009953546929173171
0.00992569042602554
0.009879446572158486
0.009848734948318451
0.009843758831266314
0.009838190414011478
0.009814466058742255
0.009801066417712717
0.009835680812830105
0.009891155807999895
0.00990612210240215
0.009881660992978141
0.009866463447688148
0.009871419409755618
0.009868776993826031
0.009856315053766593
0.009855016153305769
0.009854584692511707
0.009828297819476575
0.009791645742952824
0.009788120136363432
0.009810402834555134
0.009803582294844092
0.009765910637797788
0.009752373808296397
0.009778128061443568
0.009811132865725086
0.009826269054319709
0.009809126592008397
0.009759899011114612
0.009710586378350854
0.009689684474142268
0.009684054902754724
0.009670416209846735
0.009657445584889502
0.009667085484834389
0.009690517379203812
0.009699299044441431
0.009693720859941095
0.009688945373054593
0.00967194145778194
0.009632593392161652
0.009594854154856875
0.009576310096308589
0.009575070763239636
0.009584685275331139
0.009589106747880579
0.009586646943353117
0.00959082494257018
0.009593945315573364
0.009585098042152821
0.009580416470998897
0.009593997889896854
0.00960646267514676
0.00959891983657144
0.009583981642499566
0.009581062331562862
0.009599008753430099
0.009611720135435462
0.009643400214845315
0.009660382822621614
0.009659754722379147
0.00965132812038064
0.009650036719394848
0.009651897212024778
0.009641145913628862
0.009623052722308784
0.009626490897499024
0.009669282450340688
0.00972911529126577
0.0097670883173123
0.00977165724732913
0.009750574581557885
0.00971338154282421
0.00968299614964053
0.009678201072383673
0.009689781022025272
0.009700766056776047
0.009710772146936506
0.009731703760335221
0.009763335454044864
0.009788469253107905
0.009799510739976541
0.009803809955483302
0.009807553542777896
0.009813712068134918
0.009820375246927143
0.00981498026754707
0.00979567339643836
0.009796265673357993
0.009846549325156956
0.009912636937806384
0.009930324458982795
0.009893823260208592
0.009858493255451321
0.009862768491730093
0.009897046119440346
0.009934165412560106
0.009948458679718896
0.00992911566980183
0.009894646336324513
0.009871422339929268
0.009867951101623475
0.009875719087431208
0.009883989996742457
0.009896114530274645
0.009917643060907722
0.009942625000840054
0.009970045371446759
0.009998452957952396
0.010004796462599188
0.009976960560306907
0.009945301467087119
0.009932568984804675
0.009923974010162056
0.009917623245855793
0.00992221740889363
0.009910893278429285
0.009871773421764374
0.009853684031404554
0.009884715179214253
0.009927485067164525
0.009950402148533613
0.009964509368874132
0.009985776827670633
0.010013555290643126
0.010044080838561058
0.010066703172633425
0.010062677161768079
0.010037159136263653
0.010021703412057832
0.010031651861499995
0.01004168157815002
0.010027609734097496
0.010010383279295638
0.010005716606974602
0.00998832606128417
0.00995753975934349
0.00994891615351662
0.009964724959572777
0.009980283034965396
0.00999163561151363
0.009992958686780185
0.009963355376385152
0.009918657359667122
0.00991251642233692
0.009952022825600579
0.009981880763079971
0.009981801484245807
0.009989209285704419
0.010012040623696521
0.010016800282755867
0.009997196701588109
0.009985809430945665
0.010000761562259868
0.010017970687476918
0.01001735936384648
0.010019426445942371
0.010036230267724022
0.010047226891620084
0.010054616909474134
0.010084902979433536
0.010130322659388185
0.010155486585572361
0.010152684514177963
0.010146949632326142
0.010153701747767627
0.010158356324536726
0.010150108170928434
0.010156832240754738
0.010196782414568588
0.010225499200168997
0.010204559097765013
0.01017239861190319
0.01017839958309196
0.01020147037343122
0.010195490234764293
0.010166362492600455
0.010147685109404846
0.010150418905541301
0.010167437626514585
0.010189049855107442
0.010215905349468812
0.010250832928577439
0.01027670973329805
0.010281976668629796
0.010279379594139755
0.01028045006445609
0.010287740754429252
0.010298789420630783
0.010305685916682706
0.010307665328728035
0.0103034422674682
0.010279289293102921
0.010245521951001138
0.010230346439639106
0.01022415613522753
0.010212733669904992
0.010216470867162571
0.010235159079311416
0.010241831300081685
0.010241494220681489
0.01025242792791687
0.010265419443603605
0.010271482781972737
0.010276036103023216
0.010279699877137317
0.010280094962799921
0.010272036627866328
0.010246150926686824
0.010209618590306491
0.010186929237097502
0.010187785177258775
0.01020087071461603
0.010220415726071224
0.010250812700251117
0.010282971127890051
0.010302493441849947
0.010323276445269584
0.010358425974845886
0.010382952827494591
0.010386830068891868
0.010399853823473677
0.010423657132778317
0.010426354297669605
0.010406986016314478
0.010389766886364669
0.01038292329874821
0.010392312476178632
0.010430959900841117
0.010477992859669029
0.010487657363992185
0.010457742756698281
0.01042416321579367
0.010404603695496917
0.010393877737224102
0.010388541034189984
0.010392906641354784
0.010407198641914875
0.010422954608220607
0.010434587799245491
0.010443476549116894
0.01045014189905487
0.010450588077073917
0.010439667492173612
0.010427018905756995
0.01043269547400996
0.01044823751435615
0.01045167246949859
0.010451812945539131
0.010460516997845844
0.010468663178617135
0.010473793166456745
0.010479833373101427
0.010481203879462555
0.01048195713199675
0.010496677035698667
0.010515234526246786
0.010515873820986598
0.01050112321623601
0.010481857747072354
0.010463158662896604
0.010451228086603806
0.010449559804983436
0.010461785909719766
0.01048641157685779
0.010500803318573162
0.010478297246154398
0.010422927523031832
0.010372303081676365
0.01035538494004868
0.01036236977786757
0.010378132375190035
0.010404084238689392
0.010431068891193718
0.010440728667890652
0.010431459511164577
0.010414909817045554
0.010400837208144366
0.010386371478671209
0.010353101048385724
0.010291299179662018
0.010225032413145527
0.0101943500735797
0.010204625193728134
0.010216161767020822
0.010203806784702465
0.010189276607707142
0.010197055019671098
0.010211901458678768
0.010194229948101565
0.010143384686671197
0.01011796530452557
0.010149198046419769
0.010182871473953128
0.010152979170670732
0.010073287308914587
0.010020091774640605
0.010031226851278916
0.01006835254607722
0.010088938304688782
0.010098690115846694
0.010116383142303675
0.010134429663885385
0.010133870020508766
0.010116134155541658
0.010108307444024831
0.01012562498333864
0.010140629707602784
0.010124675099505112
0.010097656667931006
0.010096038068877534
0.010117656707298011
0.010142346012871712
0.010165633639553561
0.01016791713074781
0.010129339947598055
0.010085821914253756
0.010075622471049428
0.010075248794164509
0.010055002834415063
0.010031971274875104
0.01003001598524861
0.010034851374803111
0.010025562047958373
0.010012797833187505
0.01001075811102055
0.010016421333421021
0.010028124605305493
0.010045713186264038
0.010061752966139466
0.010074382449965924
0.010096050909487531
0.010132254923228175
0.010163226766744629
0.010165867481846362
0.010141900574089958
0.010107946172356606
0.010078928318107501
0.010070265867980197
0.010077142753871157
0.01006560523295775
0.010030175289139152
0.010014879211084918
0.010036520012654364
0.01005054043722339
0.010029265489429236
0.010000906711211429
0.00998279660474509
0.009960393094224855
0.009939343403093517
0.00993595929001458
0.009939149006968365
0.009934094446944073
0.009926682112272829
0.009928149972110986
0.009936566840624437
0.009942897486034781
0.00995270260144025
0.009975732939783483
0.009995706737972796
0.009986364586511627
0.009951366737950593
0.009920282454695553
0.009916509906761349
0.009939067619852722
0.009965988647891208
0.009986462170490994
0.010012247824342922
0.010034897273872048
0.010029089392628521
0.01000551126897335
0.009994090590626002
0.009995731258532032
0.009992821092018857
0.009984025079756976
0.00998644806095399
0.010008178147254512
0.010037809362402186
0.010060434604529291
0.0100674571050331
0.010062728943303227
0.01005340540315956
0.010031913835555316
0.00999829823966138
0.009975499612046405
0.009976225530263037
0.009984754467150197
0.009987204633653164
0.009994849474169313
0.010010797049617395
0.010016966463299469
0.010016241123666987
0.010021642692154274
0.010025019528111443
0.010031730553600937
0.010055596831953152
0.010071753425290809
0.010052889937069267
0.010016105138929561
0.009994975959416478
0.010000357438111679
0.010013161621754989
0.01001349774422124
0.010009590166155248
0.010018548759398982
0.010035922877723352
0.010040262268157676
0.01002308539696969
0.010008044895948842
0.010023991705384105
0.010065585101256148
0.010099561086390168
0.010100642195902764
0.01007425345829688
0.010045126837212592
0.010031336677493528
0.010035880223149433
0.010049164694501088
0.010062261756975204
0.010077400759328156
0.010089626959525049
0.010084396952297538
0.010069448803551494
0.010072608790360392
0.010099257628899067
0.010121889803558588
0.010120324925519526
0.010112425141269341
0.010124336981680243
0.01014823879348114
0.010161272338591517
0.010159538183361292
0.01015074809663929
0.010137440374819562
0.010123339528217912
0.010114943808875978
0.010119122316827997
0.010126721929991618
0.010110507734352722
0.010058753446210177
0.010017958787502721
0.009998916366603225
0.010030467000324278
0.010085519342683256
0.010119145481148735
0.010117102430667728
0.010117724043084309
0.010150121714686974
0.01018697397550568
0.010188848853576928
0.010153797753155232
0.010111233558272942
0.010090719888685271
0.010103029175661504
0.010133692855015397
0.010155505316797644
0.010161395099712535
0.01016228952095844
0.010165966051863507
0.010181847769999877
0.010209165723063051
0.010228463225066662
0.01022797060199082
0.010213359688641503
0.010204603077145293
0.010217225009109826
0.01022995914099738
0.010222351532429457
0.010215011262334883
0.01022178434766829
0.010230226079002022
0.010238855627831072
0.010255103204399348
0.010269819681998343
0.010265066525898875
0.010239311553305016
0.01021018867380917
0.010195090641500428
0.010199524402851238
0.010225350088439882
0.01027042901259847
0.010317232001107186
0.010344306251499801
0.010345516270026564
0.01033337073517032
0.010324927421752363
0.010318487653275952
0.010298481148201971
0.010268852829467505
0.010258097754558548
0.010274092090548947
0.01028333185124211
0.010264573852764443
0.010244045642903075
0.010256697903387249
0.010300143933854998
0.010333142508752644
0.010325380010763184
0.010303149765823036
0.010309662886429578
0.010328937589656561
0.01030982433934696
0.01025906131719239
0.010231991320615634
0.01023519177106209
0.010222289459779859
0.010182073515607045
0.010157335232943297
0.010172567500267177
0.010195064764702692
0.01018943231436424
0.010166341592557727
0.010148539126385003
0.010139423770597204
0.010144657986238599
0.010174793137703092
0.010218388611683622
0.010246244213776663
0.010243938434869052
0.010228406004607678
0.010218182012904435
0.010201532060746104
0.010171487568877638
0.010152246950892731
0.010159577985759824
0.010181013972032815
0.010201377269113436
0.01021985759609379
0.010236721221590415
0.010237036690814421
0.010206082036020234
0.01015329941525124
0.01010119337704964
0.010062836119905114
0.010048159920843317
0.010067057576961816
0.010109769609989598
0.010144646799890324
0.010143171673407779
0.010113478027051315
0.010097108790650964
0.010107490521622822
0.01010903178830631
0.010083797592669726
0.010062558189965785
0.010069456557976081
0.010092506596120075
0.010112963754218073
0.010121977457311004
0.010120994811877608
0.010123563735978678
0.010138121149502695
0.010153930035885423
0.010163953946903347
0.010175694097997621
0.010186730216955766
0.010184649855364113
0.010170295037096367
0.01015886322944425
0.010157394768903032
0.010155197434360162
0.010149245834909379
0.01015169293154031
0.010160294183297083
0.010162204909138382
0.010163857176667079
0.010174002138664946
0.010179494710173457
0.010172822113381698
0.010165154068963601
0.010163448598468676
0.010168325334088877
0.010175751817878336
0.01017124358098954
0.010145773267140612
0.010116486330516636
0.010108557568164542
0.01011822106083855
0.010122871202183888
0.010117378387367353
0.010112942906562238
0.01011234340374358
0.010112876007333398
0.010124416403705254
0.010152251631952823
0.010177298646885902
0.010183989588404075
0.010176605504238979
0.010156539683230222
0.010130047386046498
0.010116924693575129
0.01011832604301162
0.010114605837734415
0.010092561084311455
0.010058184714289382
0.010033737036865205
0.010032271556556225
0.010050410650437698
0.010078788487007842
0.010088215083815157
0.010061432606307789
0.010034586992114783
0.010036500213900582
0.010047860274789855
0.010051201964961365
0.010052993561839686
0.010060095493681729
0.010067409749608488
0.010074304857989774
0.01009106702869758
0.010110990848625078
0.010110863611334935
0.010087640511337669
0.010066700739553198
0.010071975765749813
0.010093137940857559
0.010093535908963532
0.01006630874471739
0.010043664528056979
0.01003083114977926
0.010005076287779958
0.009979225926799699
0.009988877032883465
0.010028144991956651
0.01004977901931852
0.01003280904260464
0.010006062177708372
0.009984350792365149
0.009945446125930174
0.009893373827217146
0.009865089227678253
0.009873709174571558
0.009899106463417412
0.009918530764989554
0.009925434653414413
0.009929494219832122
0.009933025557547808
0.009934444834943861
0.009946847733808682
0.009990896343952045
0.010039778653299436
0.010071470162365585
0.01003361219423823
0.009969531343085692
0.009949973442126066
0.009972250630380586
0.009975547045469284
0.009940007709665223
0.009905395839596168
0.009907881807303056
0.00994027072796598
0.009973394724074752
0.009983826531097292
0.009953945407178253
0.009892870540497825
0.009847963822539895
0.009849547592457384
0.009871888435445725
0.00987541492213495
0.009862846611067653
0.009864377754274756
0.009879475170746445
0.009887611118610948
0.009896869212388993
0.009910810269648209
0.009906155945500358
0.00989161986624822
0.00989204156328924
0.009887845161138102
0.00986087964149192
0.009835055134026334
0.009820225941948592
0.009795155572937801
0.009763082321733237
0.009757345854304732
0.009789601815864444
0.00983161004842259
0.009847529825055972
0.009832820043666288
0.009819902062881738
0.009834351950557903
0.009854033404262736
0.009847593812737613
0.009835185327101498
0.009847155733732507
0.009862988520180806
0.009860731877852231
0.009861644274787978
0.00988466398557648
0.00991022755857557
0.009908768688328564
0.009888712863903493
0.009883700776845217
0.009894405696541072
0.00989332007127814
0.009873197207925842
0.009851537641370669
0.009841855671256781
0.009831932071829214
0.009803229869576172
0.00977333918097429
0.009780642356490716
0.009824403940001503
0.009857985004782677
0.009854207099415362
0.00984249462839216
0.009852112925145776
0.009861191003583372
0.009842011673608795
0.009814798248698934
0.009810401902068406
0.009822204579832032
0.00983372370712459
0.00984531376627274
0.009860132627654821
0.009872678322717548
0.009868311799364165
0.009842332482803614
0.009815779249183833
0.009806725603993982
0.009811658485559746
0.009829622725956142
0.009858292863937095
0.00988095962908119
0.009890128262341022
0.00988735947292298
0.00986896745976992
0.009840967366471887
0.009821437252685427
0.009825344596756623
0.009855013162596151
0.00989000646281056
0.00990004527848214
0.009885940522653982
0.00987751258420758
0.009878917636815459
0.009868593523278832
0.009854842164786532
0.009868823854485526
0.009904390934389084
0.009919346898095682
0.009905166941462085
0.009902235936606303
0.009926602073246613
0.009943949012085795
0.009932142768520861
0.009902380362618715
0.009871028361376375
0.009859990410041064
0.009878637784859166
0.009901024177670479
0.009903412918793037
0.009892198333982378
0.00987859690678306
0.009862758867675438
0.009844659150112421
0.009825363003183157
0.009805923062376678
0.009788433491485194
0.00976491291075945
0.009726274273125455
0.009686425296822563
0.009674165269825608
0.009692711904644966
0.009705530354985968
0.00969459691666998
0.009689156799577176
0.009702412997139618
0.00971387341618538
0.009722809888189658
0.009741336721926928
0.00975328018073924
0.009749171003932133
0.009761922189500182
0.009810572849819437
0.00985563155845739
0.009856913830153644
0.009833006716798992
0.009824701908510178
0.009841521448688582
0.009866428861860186
0.009888539389939978
0.009917360193794593
0.00994704378535971
0.00994085025624372
0.00989473682246171
0.009855050180340186
0.009850258461665363
0.009868095676647499
0.009883906483883037
0.009877979413140565
0.009854897881159558
0.009842364637879655
0.009849071943899617
0.009849316448671742
0.009830553871579469
0.009812870221212506
0.00979936981573701
0.009782004816224798
0.009787468444555998
0.0098199572134763
0.00983184464275837
0.009818422076059506
0.00982194511569105
0.009839755380526186
0.009835496409796179
0.009806377027416602
0.009779848632169887
0.009770583638455718
0.009766780937789009
0.009755424776813015
0.009743223511613906
0.009743828211212531
0.009755707033909856
0.00976155879558064
0.009755371058126912
0.009757484685396776
0.009769368879497052
0.00975443070405163
0.009716416116571053
0.009708271108102053
0.009735627369955181
0.009754668703535571
0.00974889522884041
0.009743253148626537
0.0097602044895757
0.009784890989540145
0.009794484332669526
0.00979710566229187
0.009800016527296975
0.009790612501092255
0.009769903268897906
0.009760452165501192
0.00977411909843795
0.009784871259471402
0.00976161009282805
0.009716841077897697
0.009689124824944884
0.0096956255834084
0.009712865916080773
0.0097104445239529
0.009694860676536337
0.00968646525638178
0.009679047170793638
0.009655818559695035
0.009623306929133832
0.009609578172676264
0.00962775846826844
0.009656416922807694
0.009674772408325226
0.00969119863002561
0.00971689419588074
0.009745722247753292
0.009766697194427252
0.00977136252564378
0.009760059410473332
0.009745729969581588
0.009741918387589976
0.009754792224848643
0.009769124154699967
0.009754972346127034
0.009720257292501628
0.009703407611232251
0.009703548175748438
0.00969250001013279
0.009679636671207845
0.009693091686349362
0.009724914669059217
0.009751177513971926
0.00976788692176342
0.009775644748006017
0.0097750972956419
0.00977544260909781
0.009773183146025986
0.009753111503086984
0.009723458841908722
0.009711022721603513
0.009724667044356466
0.009753007285762578
0.009773837614338844
0.009762185793370008
0.00972561348695308
0.009697716254740953
0.009682814055122436
0.009674673147965223
0.009693136471323669
0.009730675430037082
0.009742336974013596
0.00972034724196419
0.009701626491732895
0.009714412444736809
0.009749904207419604
0.009772271043621003
0.009762170198373497
0.009738829729612916
0.009729330856353045
0.009735286289360373
0.009744965385179967
0.009761316636577248
0.009781563016586005
0.009784229211509227
0.009765455455053598
0.009740700176917017
0.009722029399126768
0.009718831698410212
0.009727700392249971
0.009733632102143019
0.009736136391293258
0.009740087385289371
0.009737312062643468
0.009728034699801356
0.009732014329638333
0.009756807421799749
0.009773978837765753
0.009755989348050206
0.009723370543215424
0.009713492849841713
0.009722609978634864
0.009723419498186558
0.009715407281182706
0.009715890630614012
0.009727058154530822
0.009738361239433288
0.009740523763466626
0.009734131873119622
0.009730429130140692
0.009735644762404263
0.009738979311659932
0.009729546627495438
0.009710950078442693
0.00968767720507458
0.009666355466470123
0.009662283514626325
0.009674350004643202
0.009682958878111094
0.009685508061666041
0.009694420290179551
0.009705953798256815
0.009702081389259548
0.009683280850294977
0.009682403604965657
0.009716673390939831
0.009748308833222837
0.009740977226756512
0.009720889560412616
0.009730596956796945
0.00976361165754497
0.009791069338098169
0.009802969896700233
0.009798123647924513
0.009784072157926857
0.009783202460967004
0.009800022055860608
0.009808301734738052
0.009798548277467489
0.009798787871841342
0.009828770856838673
0.009871969011146575
0.00990068365354091
0.00991003036033362
0.00992275612661615
0.009953143133316189
0.009977566748857499
0.009968842000234871
0.00994084486272186
0.009920896769035608
0.009911332684569061
0.009900128573644907
0.009874148920644074
0.009835510000120848
0.009811222804710269
0.009825150042306632
0.0098642034875229
0.009875531902071088
0.009828931554220616
0.009776849856134504
0.009786009290255606
0.009833070719614624
0.009847167739644646
0.009818923871498554
0.009788698670454322
0.009771584465634078
0.009746727563906462
0.009698772218544037
0.009656088133342565
0.009660170604474843
0.009699082022998483
0.009721382756251841
0.0097099763690494
0.009704736571293324
0.009742200935725122
0.009798321875277906
0.009824505345895886
0.009817058991175145
0.009812617306597531
0.009837193675339221
0.00988560234196484
0.00993846814148128
0.009971825664397329
0.009954243588726968
0.009895341387018562
0.009859252944588661
0.009862836278043687
0.009858574608806521
0.009831516779959202
0.009809247432276607
0.009812909485772252
0.009843920299317688
0.009882198036648334
0.009904689777176828
0.009912856307346373
0.009920636198949069
0.009928725119680166
0.00992471121251583
0.009898850228637457
0.009861704234499485
0.009840630253311246
0.009852964708115905
0.009889021466951817
0.009913507993333041
0.009907347513362766
0.009898637926671654
0.00990219800034538
0.00989154854323715
0.009862165439408273
0.009840601165778935
0.009843258000910283
0.009865145999938249
0.009885412636213004
0.009894501108210534
0.009909472342114896
0.009940157535020262
0.009961445501539856
0.009946912024170161
0.009925193795934319
0.009947036190424115
0.00999954269034788
0.010021558129228652
0.009993115304969252
0.009962129590567201
0.009971960498951375
0.010002749860286713
0.010020756183657796
0.010028628066647798
0.010037817677948624
0.010043770023621619
0.010036116347182543
0.010015370701439678
0.009994401531293988
0.009974173936061561
0.009936167413834483
0.009872729687485845
0.009810556964948773
0.009786113863810897
0.009799353897105902
0.009820973677560687
0.009833043396938593
0.009829679518006743
0.00980466786539182
0.009768605274148285
0.009753972229082137
0.009773310406599194
0.009792364845052361
0.009779462439473719
0.009758966588415206
0.009771951129660011
0.009809645302593708
0.009832897526212036
0.009831784344278276
0.009826667516026646
0.009832773238886148
0.009847165730316193
0.00986144494265318
0.009880128325894475
0.009913674844428897
0.009952704177703709
0.00997223143465817
0.009960973425768316
0.009927600731607526
0.00988855681149289
0.009862992879934609
0.009859789260663093
0.009868563171476125
0.009875976149924099
0.009875252554193139
0.009860391223337501
0.009833065720740705
0.00980826849117875
0.009792963685467839
0.009778086678124964
0.009763811363372952
0.009763590467628092
0.009783325952012091
0.009815807631239295
0.009848858939949422
0.009868365540169179
0.009867727474775165
0.009860078957863151
0.009857575963251293
0.009856183077208697
0.009853696185164153
0.009852865522261708
0.009854312043171377
0.009858922134153545
0.009864813208114356
0.0098658502032049
0.009862244557589293
0.00986196762882173
0.00987181558739394
0.0098910818900913
0.009905043793842196
0.009900375485885888
0.009891379296313972
0.009907777470070869
0.009946450556162745
0.009967615422792732
0.009963940344750882
0.009972066537011414
0.010001722604501993
0.01002595448633656
0.010030792832840234
0.010022507747635245
0.010002452211920173
0.009968979933764785
0.009947014863137156
0.009971923583652825
0.01002038347767666
0.010033259375486523
0.010013623202685267
0.010006515285931527
0.010012344734277576
0.010004250758793205
0.009988917394075543
0.00998743240488693
0.009993057888932526
0.009992201179265976
0.009990330983418972
0.009996872562915086
0.010015019229613245
0.01003548505017534
0.010032724626362323
0.009998836149461567
0.009963364389259368
0.009948477956932038
0.009938530155923218
0.009921418949961663
0.009912033956497908
0.009912331050727516
0.009908486609347164
0.009909123992547392
0.009924020536709576
0.009933002688921989
0.009926893094088882
0.00992462211754173
0.00992212020792067
0.00989806154742837
0.009861849031876773
0.009827391996514051
0.009796360237523914
0.009794684834778309
0.009833193626254797
0.009864180458243936
0.009857831485569478
0.009847209136933089
0.009864549580961467
0.00990611435379833
0.009948520665057003
0.009969476168043912
0.009974284800700844
0.009979453256819397
0.009979117538314312
0.009963401926215738
0.009934104529675096
0.009904308652039617
0.009895255151204764
0.00990006442181766
0.009884995417669415
0.009856225282419473
0.009862239477224649
0.009910430100280792
0.0099518961366266
0.009957534107379616
0.009947943773586303
0.0099519029003568
0.009970640339888632
0.009981717285700142
0.009969935740809888
0.009948600188363344
0.009935006266459823
0.00991539899725467
0.00987474128138274
0.00983709973283112
0.009831954282708466
0.009854957610368729
0.00987395274452865
0.009855326402466745
0.009800480548292398
0.009740125194657594
0.00970314563717693
0.009716917211189866
0.009772893807385117
0.009812373749446124
0.009814024532679468
0.00981322213774547
0.009823619739618152
0.009833643408492208
0.00984577798517421
0.009864239976741374
0.009877593778073788
0.009865495301783085
0.009820975889451801
0.009767931147944182
0.009737521044444293
0.009739900880958885
0.009769680525641889
0.009805517566855998
0.00981160363415256
0.009776083624456079
0.009732241418678313
0.009722976619377733
0.009747003095690161
0.009760444827843457
0.009746384811587632
0.00973711877129972
0.009758188514970243
0.009791130665689707
0.009797278391197324
0.00977395185502246
0.009752477502916008
0.00973667441867292
0.00970991694368422
0.00968264534138143
0.009674756817985327
0.009679456001613289
0.009672464183531702
0.009644828075543045
0.009619928493630142
0.009631609576754272
0.009670751600060612
0.009688050497788935
0.009674006053246557
0.0096655930345878
0.009668615008704364
0.009654962660279124
0.009631160262506456
0.00963948344811797
0.009684606662485749
0.009721110516693443
0.009723435710184277
0.009716651702765375
0.0097274761646986
0.00974743221886456
0.009759704524185508
0.00976307716453448
0.009762264739256352
0.009760425593703985
0.009764452239032835
0.009780705261509865
0.009798093934077769
0.009802137797232718
0.009798331153579056
0.009795205250848085
0.00979726571124047
0.009816611637361347
0.009849517135880887
0.009861646331846713
0.009834882854484021
0.009803074705414474
0.009803369021974505
0.009822496911510825
0.009826683583669364
0.00980950027704239
0.009786051497794688
0.009764064000919462
0.009733130654785782
0.009684860655106604
0.009641180913895368
0.009631405731197447
0.00964249029988423
0.009647428740281612
0.009656693246215582
0.009680825963150709
0.00970518114976585
0.009728446174412965
0.0097505436046049
0.009753228649497032
0.009744124538265168
0.009755454736296087
0.00978744068648666
0.009808364445343614
0.009799563917331397
0.00976696410216391
0.009729874767363072
0.009716281336732208
0.00972991788526997
0.009739682250656188
0.009739125007763505
0.009751849821768702
0.009777589801233262
0.00980219103395939
0.009828897328116
0.009856900610029697
0.009866935568861663
0.009855408333241939
0.009846738858614116
0.009854361868929119
0.00986859115306288
0.009887164377141744
0.0099084532703273
0.009908910121303051
0.009878905112855137
0.009843343535903841
0.009820855944417417
0.009810332492925226
0.009810904408805072
0.0098189184255898
0.009822596167214214
0.009818000460509211
0.009816338382661343
0.009828931663651019
0.009850002923049033
0.009856220411602407
0.009835392371751368
0.009820224789436907
0.009789543044753372
0.009752427665516735
0.009723942312411964
0.009728498395998032
0.009754045908339322
0.009782844900619238
0.009816579702310264
0.00983582804678008
0.00981969855260104
0.009791313577443362
0.00978333045495674
0.00980384091148153
0.009839553034398705
0.009857518565841019
0.009835054541472345
0.009801695432979613
0.009800333566963672
0.00981776803964749
0.009819334498606622
0.009820144469849766
0.009852359043434263
0.009889751183800399
0.009885671981610358
0.00986364476615563
0.009873763015493751
0.00989932138239965
0.009901571776717901
0.00989091039635241
0.009887799927964807
0.009891328853555023
0.009907828161958605
0.009939543246291578
0.009962590136565268
0.009964283462613821
0.009954770153854042
0.009934082916006446
0.009905519050080329
0.009888222550507635
0.00987990790978074
0.009861661547329276
0.009838307658210397
0.009813704669941217
0.009772456320933997
0.009733461844734847
0.009736969224177302
0.009771206900477409
0.00979392476612702
0.009794635178986938
0.009791755776386708
0.009802267723716795
0.009827178411651403
0.009851331014651805
0.009858036662917584
0.009852605562191457
0.00985331034520641
0.009863936870824546
0.009880113636609168
0.009893664836417883
0.009893530178815127
0.009884862143080682
0.009882052845787257
0.009890934426803142
0.009905893492978067
0.009914046172052621
0.00991870320169255
0.009940523428376764
0.009976575553882866
0.010000984370708465
0.010010434305295348
0.010020171173382551
0.010033213328570127
0.010047154752537608
0.010059885918162764
0.010063861631788313
0.010053946373518556
0.010034642568789422
0.01001911956584081
0.010015447039622814
0.01001313880784437
0.009997813983354718
0.00997539535863325
0.009961509509012104
0.009952490557916463
0.009929781018290668
0.00988799668615684
0.00985894771059975
0.009889727788977325
0.009967843813356012
0.010018901925068349
0.01000579256331548
0.009966090908274055
0.009941638314630836
0.009937004710081965
0.009950819197110833
0.00998648141976446
0.010021819639950991
0.01002498357789591
0.010007407227531075
0.010004931408911944
0.010015081716701388
0.010000894565600903
0.009956717158202082
0.009924622753169387
0.009923241918440908
0.009931486994028092
0.009952116953209043
0.009993482381105423
0.010025474557187409
0.010038052790332586
0.010059156406205147
0.01007944555254653
0.010070648011751473
0.010052478967700153
0.010047172482591122
0.010047621675767004
0.01005849099252373
0.010079504346940667
0.01009106005076319
0.010094758640043437
0.010101769182365388
0.010100643299520016
0.010075646212790161
0.010035744216293097
0.010017628960777075
0.01004153013927862
0.010075736676808446
0.010087532699108124
0.010089461340103299
0.010098768514581025
0.010107987152878195
0.010112615493126214
0.010114524851087481
0.010101343691349029
0.010068725002929569
0.010043102113995702
0.010046230955049395
0.01006670824950561
0.01007914807414636
0.010070345301646738
0.010055248911958187
0.010055694698821753
0.010061358644161373
0.010052518686279655
0.010029258199501782
0.009994572489522397
0.009966818536631762
0.0099758281535469
0.010010679510887712
0.010037760147824884
0.010054554040543735
0.01007510744733736
0.01009870315901935
0.010111242572311312
0.010107212141156197
0.01010839190101251
0.010129226993303746
0.010148717893753201
0.01016255194088444
0.010184379578568041
0.010191107077989727
0.010163367451168597
0.01012964358786121
0.010120386313647032
0.010135535756126047
0.010158087958116084
0.010172255777288228
0.010174131712410599
0.010173401618376375
0.01018174686236307
0.010198041524272412
0.010215357346460223
0.010224720910191536
0.010212049100082367
0.010183484281878919
0.01016338013112545
0.01014551697531715
0.010105140411760659
0.010063096100930124
0.010059382766485214
0.01007714545354247
0.010071538935881108
0.01004366097273305
0.01002092899288982
0.009998058734927326
0.009964718183036894
0.009952696450054645
0.009984059687703849
0.01002784469164908
0.010049663323443384
0.010045348212588578
0.01002717942232266
0.010014163558371364
0.010020674443803728
0.010046593025326728
0.01007845122832805
0.010090662485454231
0.010072284874040634
0.010059366626664996
0.010090507725253701
0.010128274497110396
0.010153691994491964
0.010130030016880483
0.010079807131551205
0.010046730765607208
0.010044139719102532
0.010032798773609101
0.009995632080826908
0.009984599817544222
0.010027577863074838
0.010075724467169494
0.010088470235932618
0.010074987183324993
0.010052667986601592
0.010041186830494552
0.010064396590460092
0.010106911833863705
0.010127612955402583
0.010131055270321668
0.010149913823697716
0.010171084818430244
0.010155163551680745
0.010113674458116293
0.01009017362492159
0.010081460960209369
0.010053498370107264
0.01000915510347113
0.009976894925348461
0.00996815669350326
0.0099791576131247
0.009989984445273875
0.009975023618899286
0.009947489004116506
0.009945744897704572
0.009974450864829123
0.010007362561300397
0.010024410246405751
0.010024094257969409
0.010020159806590528
0.010025289717596024
0.010040606358088552
0.010060015057679266
0.010076851551420987
0.010091495898086578
0.010107704079709947
0.010119688156992197
0.010107925566844643
0.010068251613993197
0.01003644805867225
0.010039804477710277
0.01005889285588637
0.010069045058917253
0.010073946912307293
0.010084300527814775
0.010084356896113604
0.010051187439821661
0.01000358453951776
0.009982969174161553
0.009997848980128765
0.010020427645649761
0.010025393266696483
0.010015982519835234
0.010009152905549854
0.010010703057050705
0.010015200600028038
0.010014963378198445
0.010007230441551655
0.010001120634842663
0.01000577181810513
0.010011903673876077
0.010004067216068507
0.009980626557953655
0.009950442886911333
0.00993224661797285
0.009949643050786107
0.009999658775050192
0.01004918152000755
0.010077206904534251
0.010090908061247319
0.010102670460473745
0.010118452324531972
0.010141044775955378
0.010163781552109867
0.010167562302667648
0.01014725340763107
0.010131629661191254
0.01014230132335797
0.010149309828411788
0.010121493053156882
0.01008837038418278
0.010086613204330207
0.010100356177426875
0.010103678139857948
0.010098824019078165
0.01008936389349401
0.010068901837803424
0.010048429341986775
0.010048386440612376
0.010059173638001084
0.010058204303495586
0.01005300269694999
0.010058780112303793
0.010066344828810542
0.010065202473197133
0.01005986449541524
0.010054594222456217
0.010045302775688469
0.010030174613930284
0.010013973051682114
0.009994404762983322
0.009973555926699192
0.009976830726955085
0.010013691657222807
0.010044205123558641
0.010032112714834512
0.009995057948399335
0.00996940845157951
0.009966145518701524
0.009975386641453952
0.009986841066274793
0.010000720566604287
0.010019400562159718
0.01004037391860038
0.010053170081228018
0.010033348540309817
0.009983592727221548
0.009953766430262476
0.00996420815354213
0.009979577292688191
0.009980326450895518
0.009979476172011345
0.009978446266613901
0.0099713020818308
0.009971956002991646
0.009992443185765296
0.010019854956772179
0.010033330833539366
0.01001835077535361
0.009983871495351196
0.0099698017234914
0.009978288374841214
0.009950918736867606
0.00988807637942955
0.00987263940507546
0.009927838305011392
0.009980887155979872
0.009970978694036603
0.009919172839727253
0.009895533833187073
0.009921438512392342
0.009939010262023658
0.009910596632398665
0.00987507528392598
0.009867203913163394
0.009862869859207422
0.009837936258409173
0.009817635111976414
0.009824880335945635
0.009828353768680244
0.009802237080875784
0.009776086746715009
0.009780941216740757
0.009812371169682593
0.009840964316390454
0.009838742313440889
0.009824189925566315
0.009832796899136156
0.00984803727362305
0.009843244676012546
0.009836621882859617
0.009842227906920015
0.009844014511909336
0.00984112780308351
0.00985058982623741
0.00986524549080059
0.009858245651703328
0.00983526706462726
0.009835239255335183
0.009860407025553287
0.009872782453894615
0.00986321430420503
0.009854520151857287
0.009860031730495393
0.009869726216420531
0.009872194258496165
0.009880487294867634
0.009895611528772861
0.009889419067185372
0.00986124311108142
0.009839132805354893
0.009826931855641305
0.009806153853423894
0.009779075258411467
0.009765028066467493
0.009753006885293871
0.009718646374531091
0.009678594686556607
0.00966217886423692
0.009663080719765276
0.009665503294672816
0.009678563007619233
0.009711622577160597
0.00974921286571771
0.009779348296578973
0.00980434383964166
0.009812476153019816
0.009798580096103252
0.009793153468053787
0.009808716904371977
0.009812334037851542
0.009795133913867176
0.009785739376675338
0.009783112916629762
0.009762096425984055
0.009722339054569602
0.009680171725340187
0.009654243453405797
0.009654700809624045
0.009658773806877434
0.009642627099528909
0.00962401538854465
0.00961606462020427
0.009602559967897833
0.009593433942645788
0.009612342757172883
0.009644712440203875
0.009665893504861743
0.009676600634120404
0.00968358752783388
0.009682307729963213
0.009677974509540945
0.00968947675311938
0.009709905453491955
0.009711531274951994
0.009694837308488786
0.009683811021968722
0.009694526956882327
0.00972789871506393
0.00976809043204412
0.009794677959289401
0.009793854348827154
0.009762376546859741
0.009726815850008279
0.009722071394789963
0.009732515278737992
0.009725598634686321
0.009727602037601172
0.009762124523986131
0.009781982530839742
0.009758106321096421
0.009726134492084385
0.009715509351808578
0.00972265787422657
0.009729921957477928
0.009727341278921813
0.009726541058626026
0.009731200945097954
0.00971901960670948
0.009685463125351816
0.009669046907220036
0.009699617794249207
0.009747063990216702
0.009758070900570601
0.00973433370469138
0.009724248691927641
0.009744119141250849
0.009762738831341267
0.009752896358259022
0.009723775202874095
0.009701954040210695
0.009697123023215681
0.009703266769647598
0.009718620229978114
0.009738826155662537
0.009741043909452856
0.009708373523317278
0.00965944031951949
0.009618948106653988
0.009584748863708227
0.009552563657052815
0.009535421587061136
0.009541421341709792
0.009564841310493647
0.009596242376137525
0.009629537102300674
0.009663059909362346
0.009682411190588026
0.009675408829934895
0.009671003674156964
0.009703506662044675
0.009758014858234673
0.009793441991787404
0.009790533634368331
0.009760813668835909
0.009724949905648827
0.009692692337557674
0.009664662242867052
0.009644348958972841
0.009634365327656269
0.009625594858080148
0.009609994469210506
0.009604533449746669
0.009627174299675972
0.00965548345586285
0.009663903780747204
0.00966785870725289
0.009684081422165036
0.009702256615273654
0.00971518131205812
0.009727060701698065
0.00973458810709417
0.009732792442664505
0.009726856013294309
0.009725801663007587
0.009736644614022225
0.00975938794668764
0.009775138187687844
0.009764576044399292
0.009747312269173563
0.009752309669274838
0.009767255724873393
0.009771470157429575
0.009769692195113748
0.009770550855901092
0.009780105866957456
0.009796291335951536
0.009799220161512493
0.00978702786611393
0.009783221278339624
0.009787422874942421
0.009784346083179116
0.009788590401876717
0.009813076939899475
0.009825387522578239
0.009796697024721652
0.009755019766744226
0.009739179599564522
0.009751433145720512
0.009772531371563673
0.009771678226534276
0.009741419276688248
0.009727173154242336
0.009748892134521157
0.009758062853943556
0.00973586579784751
0.009736384050920605
0.009790914370678366
0.009861452381592244
0.009905015062540769
0.009912022694479675
0.00989806069759652
0.009895061645656823
0.009919054845813662
0.009948111462872476
0.009956013150513173
0.009945938396267593
0.009926454240921884
0.009892842106055469
0.009860403877682984
0.00985562996705994
0.009871124960482121
0.00988304680911824
0.009886712753213941
0.009895384204573929
0.00991478151641786
0.00992269957670942
0.009907663913909346
0.009907003212720155
0.00994180902140215
0.009964928519912064
0.009936621834058315
0.009888654195237904
0.009875439924653619
0.00989204742014408
0.009884028302039952
0.0098509193607606
0.009849970755167305
0.009886871671769768
0.009909953253809363
0.009902763171121478
0.009901087791658937
0.009924994301982223
0.009950200009625406
0.009950717997271567
0.00993019551737234
0.00990796452620998
0.009904918922111393
0.009926921355072409
0.009947873807977885
0.00995282013202086
0.009968693328555673
0.010009411191567778
0.010041054431349039
0.010030429714825005
0.010006788098253309
0.010023571872152389
0.01006488703424111
0.010074308754410595
0.01004890022566542
0.010028790635988116
0.01002412746893242
0.010011760874185711
0.00999334045452997
0.009992592746857553
0.010008691013790667
0.010031828521750868
0.010067349984310567
0.010109999189153314
0.010142941290978343
0.010155502040870488
0.01013510413467884
0.010087958252988756
0.010053533872123807
0.01005619348026812
0.010079560515005142
0.010093490208964795
0.010080775471869856
0.010053589381277562
0.010042395440395922
0.010050852780696005
0.010051346074324102
0.010046287656296045
0.0100691931322217
0.010109219804871828
0.010122954873368143
0.010109754845034331
0.010098681652452797
0.010096607005689293
0.010091520037967712
0.010076520738657564
0.010057137936819345
0.010044911433942616
0.010049673770554364
0.01007146498421207
0.01009201287291944
0.010093703828752042
0.010083289793692529
0.01007407482014969
0.010066999939735978
0.010063130427151918
0.010073163930792361
0.010100547142792493
0.010122091628145426
0.010118036612402648
0.010105174321215599
0.01009613789850846
0.010080882112961263
0.01006690670736134
0.010062915650196373
0.010057116423267872
0.010056669192854315
0.010073110430967062
0.01008272822247818
0.010076886285096407
0.010090531702153384
0.010131700865458696
0.010157591961324215
0.01015075899194926
0.01014134414261207
0.010140169302467257
0.010133505004923792
0.010127205108292401
0.010134396804496647
0.010158018413931132
0.010188592181075365
0.010198843500111252
0.010181747688911856
0.01016893410589546
0.010175818006973713
0.010182683316525071
0.010182852975558489
0.010199444759637117
0.010237990380264819
0.01026047530816868
0.010240904360543937
0.010205550831742585
0.010188485900871456
0.01019436214119196
0.010213189134374261
0.010232009405735881
0.010240628395695239
0.010245346596930176
0.010256734760478139
0.010267696350347251
0.01026436940068379
0.010248779424000532
0.010238809236325324
0.010242066169157625
0.01024245096137747
0.010230836342088878
0.010214748582802713
0.010188872565049679
0.010162238094490022
0.010183025016449392
0.010256908312439918
0.010314756555017084
0.010317420370411128
0.010297020983416586
0.010286455664318055
0.010293374229222536
0.010310769795905799
0.010314715630374848
0.010298731019720436
0.010290869511663914
0.010299196876585483
0.010297378618270158
0.010276941512711347
0.010251839554402977
0.010227475112769753
0.0102099446230568
0.010209268403705209
0.010215274060610681
0.010211787649895996
0.01020099997986108
0.010185065071564168
0.010161225947085769
0.010144675732590258
0.010146143480669707
0.01013759961584583
0.010103789954446257
0.010083906862419098
0.010093915592879057
0.010091645382344723
0.01006091030780226
0.010034099584445358
0.010034137947950512
0.010054458663798869
0.010071835306007415
0.01007140326546505
0.010066138107795268
0.010071005902718753
0.0100748370308429
0.010064879390411079
0.010063463712576777
0.010100634198170155
0.010157805474009365
0.010187670078594238
0.010175880282185973
0.01015485572628677
0.010157747766934335
0.010167568686883897
0.010162186261732131
0.010168654944282025
0.010201522433198988
0.01023467061109841
0.010253895507194102
0.010258499565534294
0.010242814600933342
0.010211926235351712
0.010191967466380448
0.01019822140224278
0.010193595560267568
0.010139869807753712
0.01008287840988487
0.010094766071997583
0.010159999532625079
0.01021131412126124
0.010228601302951574
0.010229493137449025
0.010217762410175055
0.010184811947401612
0.010140675222501158
0.010112268617376685
0.01010067467810586
0.010085775288753212
0.010068814114201814
0.010062337857671083
0.010059159605298192
0.010044526206329465
0.010027936289552598
0.010031405698973685
0.010045418611261993
0.010031793161761015
0.009989834330044687
0.009978516942355782
0.010025907282251865
0.010071541825309395
0.010056225655134768
0.010010614194907248
0.009992689595092087
0.009995677650440484
0.009988260567188262
0.00997813743306324
0.009990416809450835
0.010038440921343863
0.010102785541675985
0.010127275637350976
0.010093461112119258
0.010060196223203094
0.010063097653910518
0.010068211411125958
0.01005822888109833
0.010050344015471637
0.010048903818242251
0.010039207581430674
0.010003836657851935
0.009956819959916175
0.009934977260418237
0.009935858745593577
0.009925533859059215
0.009901136213447898
0.009889658545143903
0.009896606157999486
0.009898451869376004
0.00988409563433379
0.009863411290571094
0.009831608587410301
0.009774669255129993
0.009712093842681497
0.00968740503769368
0.009716180041432381
0.009768162339460104
0.00980618039611727
0.009825733995530755
0.009846023870632053
0.00987785726552829
0.0099010763107799
0.009888184620067478
0.009855499817058444
0.009842619125265628
0.00985180891584605
0.00985399801051244
0.009834530588705093
0.009813739366363735
0.009821993617806583
0.009856062475591898
0.009882492816541345
0.009883042515721172
0.009878037858288734
0.009893635935150087
0.009914984696079045
0.009907358204945921
0.009871937059797347
0.009838101493660361
0.009823724017478526
0.009829934786539525
0.009842395931482315
0.009837644246872515
0.00980697809252888
0.009764286731369793
0.009734915148001164
0.009731831091921777
0.009741023262031377
0.00973968414356932
0.009723987423349172
0.009710144470445811
0.009707117874640972
0.00972173123853281
0.009769162773154675
0.009827039442025126
0.009844437302090227
0.009821739220060409
0.009805844684597104
0.009815398228820413
0.009820544878020882
0.009795941803604364
0.009770973455160856
0.009786636449862272
0.009822681541554629
0.00983399813529104
0.0098146807635203
0.0097822049818933
0.009754444621503353
0.009736546848434955
0.00971564196050167
0.009693890220951289
0.009688515015877783
0.009692588436882943
0.009681727774441241
0.009652430098503828
0.009627316154073924
0.009619347366970033
0.009611528331879527
0.009596756582614035
0.009604167561046779
0.009647146712522954
0.009696135434787721
0.009728979957289994
0.009746875094715507
0.009750285607296974
0.009742194269783795
0.00972523091826588
0.00969795377459377
0.009669326914008706
0.009644739560317249
0.009612777673173695
0.00957838681526482
0.00956347214989364
0.00956368851941079
0.009559874807018786
0.009561278368346393
0.00959465274354443
0.009639478642493487
0.009626597946044058
0.00955776874674484
0.009530736485030502
0.009585533214267344
0.009655748163349926
0.00968892233679071
0.009691051600966602
0.009677050590980799
0.009659436906222254
0.009651957466267048
0.00965578825911507
0.009656305850949138
0.009635168039239942
0.009600880320649595
0.009591600059065968
0.009619246905203908
0.009646269641816616
0.009640533453784883
0.009620764513965697
0.0096219422807917
0.009641955201514065
0.009660669423174112
0.009676434001885354
0.009689072144683451
0.009687254214659333
0.009668959670234472
0.009649482497479767
0.009646924510598183
0.009664864898659288
0.009690322373062372
0.009710924816317856
0.009721192945726216
0.009709832316730171
0.00966760999755934
0.009611811991780995
0.00957206035964191
0.009553029155358671
0.00954012828413397
0.009532995151821523
0.009547465918585659
0.009587209222372621
0.009629531160462647
0.009644199823960663
0.009630995630286633
0.009619877715595066
0.009619526471942664
0.009625209791120143
0.009659247873350978
0.009714128586929292
0.009736354483757169
0.009718087064102291
0.00968827299773693
0.009648563025984913
0.009607882893178613
0.009591171755455435
0.009588908893056214
0.00957285741576925
0.009545949979219585
0.009542426387779414
0.009581268241163343
0.009630984542891383
0.00964070912450552
0.00960166718577966
0.009554687722120434
0.009533131227362901
0.00953196980059147
0.00954143459443003
0.009562485034111888
0.009589678603224456
0.009618962390813977
0.009651125653181224
0.009673618483357132
0.009670909568667412
0.009644350027665496
0.009608151947613806
0.009579711069818586
0.00956539993872866
0.00955869367113337
0.009563694496173412
0.009593893999699503
0.009640263172332197
0.009668746928218752
0.009659822380635888
0.009639141322113574
0.009642694084905088
0.00966367538785562
0.009676970271393658
0.009685270404443145
0.009696247556712478
0.009699698565527796
0.009693988324142993
0.00967611650004983
0.009630789589136839
0.009587986280675977
0.00959948800969869
0.009642104704398661
0.009659434540662915
0.00965356687316671
0.009652401115745305
0.00966079465346411
0.009677239169832319
0.009705163061153144
0.009742925704922528
0.009777446032967419
0.009793683246243745
0.009794798616785555
0.009798947041854262
0.009813845565076917
0.009831406024750322
0.00984584986930713
0.009854865071829408
0.009848748969379812
0.00982748603913933
0.009818518690299243
0.009846255513839424
0.009892057233955712
0.009911585827358066
0.009889884006697684
0.009861329684499652
0.009865559414029121
0.009896141935605555
0.009911288120783866
0.009892368409782647
0.009875153750181198
0.009895994861144572
0.009929355224594474
0.00993478627409786
0.00992568195797503
0.009935893698129803
0.009959657851140946
0.009965010974556208
0.00994571290910244
0.009928554960060865
0.009934279776643962
0.009953631781972944
0.009958888161927462
0.00993780981283635
0.009920478018466383
0.00994063265621662
0.009974896132480354
0.009980322171468287
0.009964517399203033
0.009957963011693209
0.009961142742540688
0.00995570758357644
0.009941008510068058
0.009937413865700365
0.009949141629040242
0.009958971638698131
0.009972482321318239
0.010007835880387575
0.010041935180779546
0.010039457958191634
0.010008780399803073
0.009968081943225116
0.009918139136862009
0.009884087541140616
0.009897971581667662
0.00992977193556726
0.009927072713617235
0.009899756098166108
0.009886691272258758
0.009894177329260855
0.0099042259901762
0.009900677730329335
0.009896380691789091
0.009913221679162233
0.009930214653722942
0.009926754557527602
0.009933493055868894
0.009970671951305122
0.010006217332556844
0.010006145620718599
0.009978952663950623
0.009962398204952478
0.009978999095037579
0.010009362001437695
0.010018955424893648
0.010002543930895627
0.00997738485923037
0.009948897659778595
0.009917927763890475
0.009900874621234835
0.009902704304549844
0.009896908409427852
0.009877347138244659
0.009878691150806845
0.009906298676505686
0.009918391942046583
0.009898405561689288
0.009879160863347352
0.009886960119474679
0.00991281221387908
0.009939361445140094
0.00996101391967386
0.009979430246166885
0.00998919439734891
0.009974965674337
0.009934597501996904
0.009901278938632458
0.00990939978742972
0.00993139495840296
0.00991697505582124
0.009886580419261009
0.009891534631606191
0.009919363236986101
0.009926326510030775
0.009914777553640307
0.009914498443249613
0.009928859623614698
0.0099430550634861
0.009957094879355281
0.009979933821596206
0.010006342937704176
0.010023643223103135
0.010034460176248103
0.010047156806103885
0.01005938959075138
0.010072094772476703
0.010087712693493813
0.010094205511268228
0.010078196439426392
0.010046318846289069
0.010023874535690994
0.010034283355344087
0.010078899499494582
0.010123421321623027
0.010119659460615367
0.010066771148703992
0.01001405666116625
0.009994091624394059
0.010003884171601385
0.010039018131792546
0.010100676072761416
0.010181913438718765
0.010265535225626081
0.010329005834646523
0.010358482780866325
0.010355341150425374
0.010325883803889156
0.010279883854091168
0.010231291961390524
0.010193452907260507
0.01017338247038424
0.010167345413938165
0.010169806492049247
0.010172527786344289
0.010159022556617856
0.010128035771194845
0.01009388079866767
0.010064534884877503
0.010056943073868752
0.010087755555287004
0.01013277494814247
0.010151273114606738
0.010139511013403536
0.010128674248699098
0.010147776915691792
0.01018991663120687
0.010216720080934464
0.010216018829960377
0.01022334635956213
0.010258488934487104
0.01029302873648703
0.010307958931662142
0.010317682507447898
0.010327572782989592
0.010333423605188727
0.010332451404538005
0.010307971085421742
0.010259777943138032
0.010224228221923114
0.010231947358697653
0.010280148424208164
0.01033576029818505
0.010361410030163824
0.010353663573041558
0.010334832191001625
0.010320841551292688
0.01031884529395029
0.010322533098515123
0.010313989098649471
0.010296326787211001
0.010288646435365081
0.010294310606550425
0.010307963276281952
0.010321965033654124
0.01032065760344267
0.010295634868089109
0.010256088827736676
0.010219254514668137
0.010204870169982314
0.010217400633264333
0.010224118006881326
0.010197284170426429
0.010161294238641858
0.010145715966355056
0.010139059738721699
0.010127523948904127
0.010121442298404872
0.010124276441056282
0.010123949951957912
0.010113469497300685
0.010096997334621848
0.010089585129171609
0.010101684746332466
0.010114740603603423
0.010105062525253743
0.010084423623047768
0.010078383123036473
0.010086300431285054
0.010094370117876679
0.010101617919281125
0.010107621501665562
0.010102456579916179
0.010088814673945307
0.010089041758328676
0.010114177889190614
0.01013686855789274
0.01012108194641769
0.010079436220694333
0.010058926660567522
0.01006874924292788
0.010070695239119232
0.010048684652429075
0.010037117730826139
0.01005916515365243
0.010086450863163919
0.01008494027191773
0.010063803752418608
0.010050653058569878
0.01004400488222018
0.01002437828341499
0.00999388681491837
0.0099747364083305
0.009976548026315868
0.009986039381474257
0.009980291130486875
0.009952973956242204
0.009934554530773312
0.00994248757371679
0.009945894367992878
0.0099322480103001
0.00992711829021573
0.009941465482115745
0.00997257059905678
0.010016110469587147
0.01005019960924983
0.010051391213200986
0.01002191451145336
0.009989727723877876
0.009989072203170508
0.010024259448982775
0.010065883726347237
0.010100389141589403
0.010139355475548655
0.010164414094761013
0.010141384222079068
0.01010136647382751
0.010094682225026191
0.01009868977824226
0.010087279467843473
0.010091748943086714
0.010123155256733298
0.010143526296596974
0.010131084101740271
0.010109765415545553
0.010111364219337702
0.010124982290435583
0.010104820113629103
0.01004093328723684
0.009986248607747257
0.009986112189944834
0.010014405732508749
0.010018123027402908
0.009999515512026847
0.010001907926052808
0.0100327859679237
0.010062824124470354
0.010088745898101478
0.010131059219129384
0.010181324176955968
0.01021063469350338
0.010212862687185407
0.010205440109129995
0.010205335223581642
0.010213116286322474
0.010215083258226515
0.010205160512123257
0.01019606509944424
0.010196920530870558
0.010202650076244026
0.010209166668355465
0.010205131256952882
0.010175905649084598
0.010134021930862219
0.010100915087386966
0.010083020278252662
0.010088210727553814
0.010112092269118876
0.010129041224718093
0.010135000920854509
0.010138963633216917
0.010118311478290707
0.010062905626837164
0.010019610677845776
0.010025626490823924
0.010053698339033872
0.010062716898974032
0.010053769547957926
0.010047477849293501
0.010046374236699194
0.010044416112359613
0.0100370779260993
0.010018703083042056
0.009996249454561621
0.009987612653058022
0.009997724769636989
0.010008846742566675
0.009993915080558509
0.009954123897477985
0.009926795547362416
0.009926474837120622
0.00992796765640378
0.009913989023771138
0.009887317523825913
0.00986336677800864
0.009868438597768545
0.009910306367091835
0.009960047251079232
0.009992561414837836
0.010014977662358433
0.010027395391371102
0.01001094004837796
0.009968883607070893
0.009923975919373334
0.009883103254251182
0.00984059701906517
0.009805202602874487
0.00979089354397729
0.009786961702629923
0.009783845918718725
0.009801839804276824
0.009841638067737222
0.009867690126411617
0.009873660998418927
0.009891475623007864
0.009929640120826661
0.009963002973236143
0.009983085521962493
0.010000641441438347
0.010001697302795947
0.00996853036340326
0.009922361152712255
0.00989351317519322
0.00988264538347721
0.009867665264755488
0.009832449816167354
0.00979649696033448
0.009794705447275192
0.00981397667201236
0.009801093335263432
0.00974253447726369
0.009682535640895367
0.009656738594640047
0.009653574477415532
0.009653020955156535
0.009663880355656147
0.00969669742975384
0.009733313182368874
0.009755831188522279
0.009767748734448104
0.009765960306394846
0.00974349580705166
0.009717248929664492
0.00970587630290538
0.009704849026165903
0.009699723715893924
0.009678619559854268
0.009646059421356767
0.00962487863143906
0.009623676685150713
0.009623191000428051
0.009609110038727522
0.0095909717772156
0.009577557255979627
0.009563938446808607
0.009552480862475931
0.009566365501377731
0.009622472659684718
0.009686102506238968
0.009697773435618728
0.009667616756632923
0.009668745703529567
0.009712993388529868
0.009736974728293718
0.00972842846531421
0.009735472395550459
0.00975219004554674
0.009738762991037219
0.009719168157316745
0.009737918977625668
0.009781880271621048
0.00981618867488578
0.009835744760930538
0.009849863220006227
0.009859159775078296
0.009857508153654635
0.009844829745125025
0.009838505131192506
0.00985284633236006
0.009870287240482866
0.00987123284721747
0.009869168463628739
0.009871531615499408
0.009854231814388185
0.00980980546446517
0.009769835877232253
0.00975880750687793
0.009759049392305314
0.009748359629884362
0.009740829279180616
0.009752481568139047
0.009772275427822023
0.00978317964822054
0.009772870598826557
0.009745017532259226
0.009730972801335155
0.009753744527697563
0.009789959299378098
0.009809255595318972
0.009818294781725854
0.009829348486382514
0.009838945255614817
0.009838949313852936
0.009820141426753254
0.009793076468631624
0.009788307102862746
0.009807396128308029
0.009817046388052404
0.009811064132954926
0.009811971716117114
0.00981462883297354
0.00980423211818561
0.009789223766420036
0.009770870523061604
0.009741666642948985
0.009718155064620078
0.009722324889153242
0.009740235586650669
0.009740272748749702
0.00972351889591664
0.009716873078141362
0.009726909971795976
0.009729942055419088
0.00970837554661557
0.009688590753357857
0.009703348046168686
0.009727479084394872
0.009728973533492535
0.009731354024261236
0.009753123139962554
0.009767083115875722
0.00975148890633136
0.009723265953361988
0.009711952961515636
0.009718434989918024
0.009721631621941925
0.009722676975652576
0.009738296335563064
0.009765365582425148
0.00978849880164489
0.009799620807170869
0.009805576836224645
0.009817214654758573
0.009819238928612322
0.00979118751361966
0.009755572730209678
0.009741198520641774
0.009732055619824678
0.009706429624930023
0.00967376962536946
0.0096492383396253
0.009635322368703783
0.00962633481947705
0.009609063810203225
0.009573780859354883
0.009542100213002414
0.009556884954217821
0.009621519912034273
0.0096929765609093
0.009732467546127737
0.009724878377746791
0.009693618651945145
0.00968877230770886
0.009717493811622261
0.009736892071086913
0.009720821836963297
0.009688211299944668
0.009676148232538253
0.0096992882527411
0.009734870251268148
0.009752454434055835
0.00975191788515076
0.009754849197342992
0.009764101365581155
0.009765017894096673
0.009759905789978802
0.009763021557591855
0.009769865123089402
0.00976552946260199
0.009756264758761972
0.009756904882378877
0.00976734064752236
0.009787460674997419
0.00981096520787105
0.009812468518503011
0.009783796893898397
0.009754121005535125
0.009754163555335253
0.009776173376012593
0.00979477665387094
0.009817031933926046
0.009852952829096467
0.009877192392013966
0.00988355273148045
0.009903697343543173
0.009932844075374305
0.009919296856969595
0.009849513163790107
0.009805905488319696
0.009766265971120448
0.00975267261499539
0.009736768486909568
0.009718683091923594
0.009707078279461712
0.009695223474409431
0.009684479641728104
0.009694006585050374
0.009728184372652321
0.009760159882716835
0.009767140317708254
0.009755962661001831
0.00974802319193259
0.009756046370603145
0.009764969318639486
0.00975158869056031
0.009727458572015166
0.00971824570093304
0.009713409801479429
0.009689565179869533
0.009661383228376508
0.00965922643430531
0.00968445519451052
0.009718720072414725
0.0097479692613706
0.00976859655464068
0.009782330971211195
0.009786626771092415
0.009781279258895666
0.009774716370739043
0.00977603909559548
0.009791653640568256
0.009816080615855753
0.009832827323116362
0.009835864992346614
0.009829397501889617
0.009812285050284118
0.009783619670197368
0.009756623746361583
0.009743685310240835
0.009738460457883775
0.009736137723084539
0.009744492669124156
0.009769660288002342
0.00981033521471545
0.009851324104238302
0.009879814614541828
0.009906694125384093
0.009935720656067133
0.009951247272547335
0.009946620885748415
0.009932715592440218
0.009935253597795964
0.009965209423098713
0.009995732924435287
0.01001604997785762
0.010043742295820265
0.010046765627339482
0.009983223539311439
0.009912161512766034
0.009917310955934226
0.009973190750461072
0.009994371018838138
0.009963624263182282
0.00993475865572691
0.00992807662114501
0.009915760543663055
0.009904386389534921
0.009916986485477538
0.009927510756533593
0.009905074485577642
0.00986811167327687
0.009849219664465636
0.009847211972810329
0.00984076778870076
0.009826880930922925
0.009816944918129593
0.009808390522375704
0.009788648083340377
0.009762641659472137
0.009749836339615285
0.009754331351723522
0.009765734903048724
0.00978494849987328
0.00981758639216423
0.009853812158107758
0.009875705214217306
0.00987619930645451
0.00987084090244025
0.009874318987131118
0.00987123834900558
0.009852364948019386
0.00984385269228369
0.009867118084803223
0.009905936233699321
0.009922280807513744
0.009898373631294817
0.009857968629803508
0.009835039512254298
0.009826430776156485
0.009804539910983295
0.00976768156280741
0.009736185988876968
0.009728461601771415
0.009747432968579233
0.009769801548682153
0.009782713393215091
0.009801031746901572
0.009825038698036224
0.009838656957726925
0.009837316151242703
0.009824770574923605
0.009812771519646048
0.009820302261505275
0.00984729491174221
0.009868055682163685
0.009866920288186521
0.009856589352712036
0.00984944066265598
0.009840564641635866
0.0098291294160299
0.009824903539847583
0.009825732565950603
0.009821129615884274
0.009812336866743862
0.00979749575490132
0.009770284472033382
0.009746574924793094
0.009744512781035155
0.009747141788247973
0.009725411187391729
0.009690885376185178
0.00968673212453723
0.00971708600409329
0.009737675830256193
0.00972992368740961
0.009716528975404799
0.00970424155704677
0.009684749559964985
0.009670483840163797
0.009675028175115586
0.00969012203393504
0.009703173998277635
0.00971154378959909
0.009721552028786391
0.009745948158670217
0.009780938073527068
0.00979788093827665
0.009788781625684351
0.009779788644518703
0.00978436323814094
0.009787562426645309
0.00978260405594483
0.009786712874192744
0.009806949556805193
0.009830760839395224
0.009849297287873924
0.009856552216224373
0.00984611798543483
0.009811846087686718
0.00976311751641333
0.009744706170167775
0.009779181187041104
0.009818611051887274
0.009819782606791705
0.009813491655513644
0.009848610863555223
0.009904512872453778
0.009918262970168144
0.009877770992461591
0.00982400881825015
0.009793146394658834
0.009791196454316378
0.009796869391575456
0.009795340260025114
0.009798119640909136
0.009810463904868812
0.009817121813539416
0.009811054784804582
0.009808066978584974
0.009821277093142271
0.009843751185107975
0.009859490876551717
0.009852244195062667
0.009830663225147872
0.009831333484034985
0.009855033627245576
0.009855784582905472
0.009827599262353033
0.009817717203404755
0.009828122672624886
0.009807250695303082
0.009760551322251558
0.009751777253113688
0.009777177788782865
0.009767852642107755
0.009724238906055688
0.009724076960701496
0.009801362478174269
0.009864242980256677
0.009901254493743182
0.009885459446813911
0.009883303330279886
0.009913771501742304
0.009945937655866146
0.009974054268095642
0.010007763085886835
0.010017462752293795
0.009981390351895244
0.00995014948071912
0.009967021401971579
0.00999748014844954
0.010003187831025571
0.009995171295013278
0.009989129034802318
0.009975886789616197
0.009953307418618352
0.009945215820334852
0.009969454426318407
0.010018282830715179
0.010072368697728961
0.010104346089065075
0.010089430194348097
0.010043561265338213
0.010021742095705121
0.010056519194040447
0.010119863739237189
0.01015778969740495
0.01014835873618722
0.010114099383354187
0.010091655207797885
0.01010409754468128
0.010145748401992023
0.010181291380431503
0.010185776425059885
0.01017283731373027
0.010160623393021524
0.010157218673266471
0.010170625241007656
0.01019245476461947
0.010203968682326377
0.010200429114047439
0.010185633283108474
0.010161196838598698
0.010140132531523705
0.010143404162954539
0.010156938901636749
0.010139766768552362
0.010093106781132519
0.01006335609126836
0.010080905477516354
0.010121565773151814
0.010125031024217605
0.010077541852369904
0.010031286205630749
0.010001774122938513
0.00996061161160469
0.009939171872101724
0.009983689056243748
0.010046554086729885
0.01005636514397338
0.010027883681468666
0.01002326731570065
0.010055645289830863
0.010085784150287509
0.01009357998613268
0.010093338759616018
0.01009647203143686
0.01010358577594161
0.010109439063817262
0.010115409335121513
0.01013243998400867
0.010147143639624118
0.010132293289061636
0.010096225221641362
0.010071672257035971
0.010077254655770957
0.010107725840061903
0.01013701149262488
0.010148798692971467
0.0101559112011455
0.010156026855111123
0.010130866200197488
0.010094395307824015
0.010068540808279068
0.010052093360573054
0.010038711694069207
0.01002069452079013
0.00999855035217479
0.009990964983589947
0.010002247227821498
0.010016524423845112
0.01002878136234358
0.010035284368786961
0.010029888388235122
0.010030839121900498
0.010056691071949899
0.010087114940397442
0.01009040890261531
0.010073489579372107
0.010073092146776617
0.010100674964487553
0.010126126268878578
0.010123174036853016
0.010107102203182877
0.010106927622109652
0.010117432754486799
0.01011030822293833
0.010076766777783632
0.010039222044870257
0.010032233665697277
0.010063560798298567
0.010095748454332351
0.010094571255613118
0.01007500991690904
0.010063279515597968
0.010049321888945997
0.010019644740968942
0.009993076496757567
0.009985348409973085
0.009983877541963011
0.009974745949730277
0.009963550337124616
0.009961370124947279
0.009966592628043145
0.009979214719496667
0.010006308662705124
0.010040029094088822
0.010065566638950259
0.010085248495452106
0.01010572302620858
0.010114217759110034
0.010103922416456045
0.010097094795200974
0.01010457222815603
0.01010849269805476
0.010102655766531824
0.01010421235114336
0.010115938170347363
0.01011481782887131
0.010093566947616636
0.010074837394058704
0.01007044837810099
0.010065760486759246
0.010053363160695881
0.010041047299746425
0.01003512843279168
0.010048908472526819
0.010080047734081745
0.010086559203919022
0.010057232361286878
0.01004083445062861
0.010054513313807547
0.010064299856312573
0.01005991006270051
0.010052549066022038
0.010034474129788577
0.010002971463836729
0.009977789642289282
0.009978425896260888
0.010004657504614442
0.010028108754195273
0.01002256895415485
0.010002668439410627
0.009991361952852457
0.009973366223275661
0.009933379516005515
