0.009600711682578549
0.009604485268937424
0.009597708737710492
0.009561303408117965
0.00952856158139184
0.009541755004320293
0.00959165528183803
0.009631815472384914
0.009631132048089058
0.00959777703275904
0.009551276721758768
0.009507732623023912
0.009490265881177039
0.009501368228811771
0.009517539733788
0.009536507505690678
0.00957251165760681
0.009608932106057183
0.00961732945055701
0.009610674561699853
0.009617877274286002
0.009629888953641056
0.009626644358504563
0.009614338142564521
0.009601754056056962
0.009590618158690632
0.00959284435841255
0.009614840022986754
0.009646981812547892
0.009689042526297272
0.009741282692411915
0.00977876270073466
0.009780252885539084
0.009761605932144448
0.00974696895456873
0.009733106580097229
0.009725224958965556
0.00974824485485442
0.009782595536671579
0.009786307440372184
0.009772672662511467
0.009778123185969888
0.009800091894576327
0.009811455741291865
0.009806893164059147
0.009811742472229525
0.009836762878112495
0.009856736705405638
0.009852273298893124
0.009837977922288701
0.00983419801457785
0.009837933542439715
0.009836757342563942
0.009825793785275892
0.009804905470227823
0.009778658804716543
0.009760213353438303
0.009764773268252612
0.009790537517983467
0.009816841183928773
0.009827498089289293
0.009824914744822309
0.009823807125212625
0.009831186545779929
0.009837364106206224
0.009838866643840448
0.009839165214216336
0.009826179492520168
0.009802915930049495
0.009797586750937625
0.0098064931971021
0.009806436115177349
0.009806384809780865
0.009817195571959019
0.009817730153445154
0.009796118394006044
0.009784661654848606
0.009802279826253653
0.009811359756859019
0.009790278867585584
0.009775061629479751
0.00979505761177279
0.009836732638068496
0.009874376468360424
0.009894928568974138
0.009900911258300766
0.009896929090609774
0.009875329640926793
0.009837961698649452
0.009812095644883811
0.009813838879344984
0.009825431902427226
0.009833363472716882
0.009849306464893744
0.009870296879671513
0.009871839246479795
0.009857442696811632
0.009853019681759178
0.009853240327211098
0.009832827446516604
0.009798392684897407
0.009782059830613435
0.00979091160930693
0.009801784601295367
0.009801366658648477
0.009800079703563825
0.009811666421592235
0.009831322372192516
0.009843536547850817
0.009845710691297426
0.009846105616306887
0.009853897509165108
0.009870614701649174
0.009879837920889258
0.009867414415348321
0.00984868396189995
0.009850231590680778
0.009875078860204667
0.009904023052658886
0.00992503057117574
0.009938532375963404
0.009936397740384564
0.009916165153263136
0.00989687762223184
0.009885680080624298
0.009874574568821117
0.009868014456005767
0.009866415482247249
0.00986234066891484
0.009862883149180561
0.009865401269635185
0.00985413335962221
0.009844398675486445
0.00985836077365093
0.009880215192679316
0.009892639032332227
0.009899047302315011
0.00989569804398343
0.009884569834684952
0.009888768206583336
0.00991170664317906
0.009920915639959275
0.009902939620660618
0.009891041513765231
0.009908506378997118
0.009931349008111283
0.009933364526368678
0.009921830537496134
0.009913383161183446
0.009913442947436124
0.009918421278707684
0.009919854769250377
0.009912897871108725
0.009901843749685214
0.009893846514169127
0.009880411591148004
0.009849428510060534
0.009818096193484963
0.009800928648328409
0.009780270271003247
0.00975482356385328
0.009750056812772528
0.009764459560392425
0.009768246213207021
0.009759723379975185
0.009771531714359299
0.00980189121910371
0.009809959628619254
0.009803528328193352
0.00983227374148555
0.009886270412243903
0.009903688209597021
0.009878679978428409
0.009866675747325644
0.009886188700329512
0.009902755295624956
0.009892101617297158
0.009866723691811786
0.009857498911442235
0.009878551189322024
0.009913603788008913
0.00993158870958723
0.009913790479768068
0.009880790860624983
0.00986720780027099
0.009870500927791
0.009867148990742862
0.009859910595696419
0.009861489031463862
0.009859800692647696
0.009849539157003165
0.009847736872034147
0.009857369014061987
0.00987751122098416
0.009916422942187636
0.009962409114232287
0.009990469247568398
0.009997764558065683
0.010004856352461502
0.010026095176581293
0.010049169128760695
0.01004882256849669
0.01003091611666605
0.010032895277254284
0.01005121369031258
0.010038809825200588
0.009995014956220984
0.009968293069396167
0.009973663920536637
0.009986626353347674
0.010004742385353893
0.010035967760486528
0.010051268119132145
0.010039472406497225
0.010043361943680794
0.010067991414107382
0.010061987206572667
0.01002244086819701
0.010000646386761219
0.010003591631539166
0.009994832879165187
0.009971857771743088
0.009959484443534165
0.009960431655636058
0.009957290270831436
0.00993536381283775
0.009896955811418593
0.009866218664683402
0.009860760518349707
0.009849670887924732
0.009788814386120066
0.009713266248581931
0.009694183028768748
0.009742292166920378
0.009791209995746612
0.009806917515816168
0.009802267875056715
0.009793872018344701
0.009799574428470806
0.00981755699031055
0.00981492202496156
0.009780405687633902
0.009742490976350382
0.009726938479579984
0.009730185023508966
0.009727200930938125
0.009708717933390289
0.009698533930350094
0.009708785553229973
0.009717051137704403
0.00971195955760777
0.009714520772686228
0.009741111535113305
0.009779852045467123
0.009806582212913782
0.009812248247908429
0.009810310035245493
0.009807719724485651
0.00978891615755856
0.009752858494175598
0.009724175785668194
0.009710320183075964
0.00970022049616091
0.009700069645186887
0.009720345088280737
0.009738913219189271
0.009732391438446938
0.00972781069111079
0.009753302462631836
0.009779472504742443
0.00977558569982648
0.009766476893564685
0.009784736280562357
0.009814179930835963
0.00982955847401172
0.009839597374666482
0.009839934601914138
0.009807011244120076
0.009759043828817085
0.009738599403062835
0.009753798315068707
0.009770723766414448
0.009749534679576755
0.009704498554347083
0.009692789776017889
0.009719129381701351
0.00974228563834913
0.009757131948135793
0.00976940565975383
0.009763380194781348
0.009738607555627823
0.009712264989502728
0.009697363347513602
0.009693325352855027
0.009692764099454507
0.009696580125018955
0.009700480168685317
0.009693369469605386
0.009685772522352636
0.009700531219132245
0.00973522889893502
0.009756815822329372
0.009741002726368606
0.009712162803625688
0.009711938039399683
0.009732902493560687
0.009741872512968257
0.009743883193004876
0.009754536054097117
0.009766962953144685
0.009782699650386348
0.009809189881198109
0.009838132646400481
0.009856522234622389
0.009861335929017515
0.00986390350619331
0.00986934449407272
0.009866467157844455
0.009860025177476927
0.009868566858349368
0.009888131977058947
0.009904236261500046
0.009912536357296631
0.009908923326293007
0.009896271271863953
0.009888492897152901
0.009891508730361239
0.009902727322187275
0.009921580862719565
0.009939989310223609
0.009944668136304244
0.009941433330532164
0.009936144285602496
0.009912595675559714
0.0098726599116344
0.009844028514344245
0.009837890400085599
0.009844306488521398
0.009848184122238307
0.009842393358703704
0.009838390925433487
0.009841552420984953
0.009838930706027895
0.009830949914176016
0.009830136155942455
0.009831654775189236
0.009817665230948479
0.009784368922701105
0.009754266531672329
0.00974883878370747
0.009757645612116903
0.009760780056240037
0.009763105603633448
0.009779391401680186
0.009807037526043132
0.009836573908105493
0.009864944294095039
0.009887390164658427
0.009906441314378754
0.009933884256752208
0.009960376938106492
0.009962908405577764
0.00995225672610104
0.009958070291904732
0.00996786510455422
0.009954957468435168
0.009942749555921181
0.009957783981226384
0.00997328179422766
0.009959433233598247
0.009937344691716135
0.009949296350823715
0.00998679364216514
0.009997275582281872
0.009976448412053286
0.009968597510596738
0.00998535416321829
0.01000329857110046
0.010003164308145643
0.009980516547802836
0.009948086680378766
0.009927303954027593
0.009927810577210039
0.009935805645072833
0.00993350658332929
0.009928142182761803
0.009933202342363074
0.00993925116606988
0.00993780915159732
0.00993403150467202
0.009924329981440678
0.009911285658599809
0.00990762744913809
0.009899063792545348
0.009867323508951814
0.009830337077146397
0.00981126832542941
0.009811056132894009
0.00981654781033285
0.009808307883795352
0.009783225925639271
0.009768346948549151
0.00977976540569216
0.009786048835376277
0.009760383161483333
0.009737498366739601
0.009748678237665445
0.0097610096889548
0.009751064822776243
0.009745786630082876
0.009749853593530134
0.009739302424713969
0.009726664128247648
0.009728350702207535
0.009718802315182984
0.00969562339480035
0.009698526618303732
0.009729787718970328
0.009751313618617133
0.009755982195492834
0.009766367604024708
0.00978695490048267
0.009803612359100954
0.00980692738899961
0.009802559912204743
0.00980785556952469
0.009830095797078685
0.00985089992871508
0.009854927650885657
0.009872826671926304
0.00994462012196891
0.010026989417383447
0.010049961508484558
0.010015771533362567
0.009988489117240533
0.009989372265990823
0.00999834924703464
0.009990399958333
0.009956026590662076
0.00991259187576361
0.009883915857644752
0.009882439833600074
0.009906104704132303
0.009929813323542475
0.009926049618516118
0.009905725528951734
0.009900621834676713
0.009910286801168695
0.009917250234866514
0.00993114653043449
0.009957042563473805
0.009963804873405025
0.009940139987738803
0.009917894086102023
0.009911513755796478
0.009903509217547252
0.009882607886102051
0.009861377279739826
0.009867399119539186
0.009903872975846752
0.009935310265282169
0.009937731239479036
0.009929627144010737
0.009934680496808141
0.009941661603515967
0.009930898171151057
0.009910223163897171
0.009894454481545835
0.009891227658372373
0.009907377860508859
0.009930947403190657
0.009933486835798248
0.009920596586307511
0.00993136603035964
0.009958475758321584
0.00995367564377375
0.00992685545119457
0.009929999159649015
0.00996263487264514
0.009984466003952547
0.009979982980294153
0.009966349217575044
0.009965526865562424
0.009973279463592917
0.009964412314584479
0.009940066295675933
0.009924816967686639
0.00992462812224403
0.009936058098683134
0.009958884593797847
0.009984327148413286
0.010003129885299132
0.010017047025030479
0.010028804446337745
0.010034691382898017
0.010040415194816887
0.010056400356115774
0.010073000876000151
0.010075555221410468
0.010065011157421396
0.010045375706395134
0.010023656918201595
0.010010836807778105
0.00999574462766759
0.009963660610374063
0.009938848624005913
0.009936982811195776
0.009926289989380166
0.009894716995768249
0.009864659970626235
0.009835715524386614
0.009799353363923728
0.009774550588335842
0.009778814574237913
0.009794410614995286
0.009791965736076236
0.009770846798783168
0.009750509359873831
0.009747028957353904
0.009769178521819412
0.009806891462067141
0.009828512707026676
0.009811323784524574
0.009783947729738429
0.00975733673083596
0.009758562995120883
0.009763885838910937
0.009747617385582998
0.009714859306113795
0.00968444385798648
0.009660775882657617
0.009635998735902832
0.009618467033142224
0.009636131266597658
0.009688574008177965
0.009733305462868885
0.009736228849506005
0.009708310054847971
0.009689144316362218
0.009698861009674146
0.009720250925747678
0.009731784040341154
0.009728865401120857
0.009720274142455309
0.009726010652957483
0.009751531830988824
0.009773751519387587
0.009785026705358177
0.009800410277675838
0.009815109447808936
0.009816765631549061
0.009805147880688309
0.009779076552949845
0.009748548185452819
0.009735426590777934
0.00974240452516824
0.009745657361345366
0.009727369869360701
0.009701827241806314
0.009688873518025503
0.00968812367413193
0.009694980429485441
0.009703361954307184
0.009707349701784551
0.00971749573131092
0.009731418207520619
0.009719949987484142
0.009678158623864874
0.009629948881920427
0.009590804593171924
0.009564980320865288
0.009545904175611212
0.00952604041318409
0.009512226714286953
0.009503973023965955
0.00949732718290761
0.009508556195069105
0.009539831849979237
0.009560492858290671
0.009553697098745033
0.009542177593102679
0.009555908511392772
0.009594871386652812
0.009636594873154537
0.009661921059014277
0.009657340601552277
0.009622754745651036
0.009576203926699237
0.009533114577643574
0.00950759313069284
0.009507138410117476
0.009510794841917232
0.009505480510415509
0.00950698837521486
0.009513900747988373
0.009510283172130585
0.00950340684154071
0.009503425194416194
0.009500380409881472
0.009490907174767926
0.009489067319082096
0.009501177357742563
0.009523318839492277
0.009550606647972018
0.00957092161057517
0.009573350803693757
0.009568823797162623
0.009578173506306485
0.009595667230896651
0.009597602047724649
0.00958480014349334
0.009574785479344428
0.009569598303642124
0.009567971241194755
0.00957587590208277
0.009588147519389167
0.0095930644008331
0.00959186140098609
0.009588365079835057
0.00957643762230873
0.00956224263412878
0.009561089155031368
0.009564413976622745
0.009563969919690862
0.009578311449149623
0.009609062487725169
0.009628449570154771
0.009632039169082418
0.009639891100814566
0.00964447267819196
0.009620228915009648
0.009583557684672997
0.009578713693190365
0.009603383472422138
0.009614793696673587
0.009600158710964025
0.00958958598668687
0.009605803501326591
0.009627920599887147
0.009627744605531917
0.00961752716335468
0.009617978683672845
0.00962338389013894
0.009628841831581667
0.009637712022522464
0.009638729637954384
0.009619860817911103
0.009600723446346819
0.009608333605574443
0.009626666107214988
0.009636092034634202
0.00965551901841536
0.009677067402517423
0.009668034604983404
0.009654278048546985
0.009680916547076777
0.009733731539454312
0.009771886923117564
0.00978094915742986
0.009774500449420884
0.009773895521648228
0.009782768683508039
0.00978120462386869
0.009755563224898652
0.009726709041278809
0.009733905482571572
0.00979326073313132
0.009870431615272537
0.009901242734631523
0.00987226097495295
0.009846482772845775
0.00985933986841701
0.009856773258652538
0.009797269239788875
0.009739087667549029
0.00974852264393121
0.009792485628277064
0.00980340841691941
0.009778861489612609
0.00975332702160813
0.009739789279410615
0.009738002707017586
0.009743351144716144
0.009744520595995709
0.009748593887779862
0.009767289387527854
0.009785549737280234
0.009790957937948406
0.009786819801665842
0.00976831232663244
0.009739799917442725
0.009719610643805936
0.009697858438594267
0.009654951413394883
0.009603910968871787
0.00956174852559343
0.009532756455009804
0.009518893137574196
0.009513375853421166
0.009517327804351225
0.009543262342922389
0.009579892652109265
0.009606305708875879
0.009636975929606707
0.009687875064555556
0.009733546564821154
0.009755765481386333
0.00976422628154978
0.009756243590964005
0.009738579747499898
0.009745424235006794
0.009780399790033699
0.009799624929437414
0.009777574249310418
0.009747376902960242
0.009747730228118598
0.009772108524339273
0.009796864757081494
0.009797796852653846
0.00975091959349811
0.00967845652368851
0.009646009287098422
0.009685136964544655
0.00975087251747027
0.00982215567608364
0.009864877598593011
0.009879133236827329
0.009875496908789501
0.009871076513081788
0.009877927930792793
0.00989886052091606
0.009926566974027082
0.009946962133981288
0.009956866670399904
0.009965047459118068
0.009966978305019438
0.00995299760485068
0.009944055993109942
0.009960260201478378
0.00997469132533297
0.009963243866804987
0.009955482665682212
0.009982859971933067
0.010018113327678293
0.010014145221794024
0.009983807840617373
0.00998016748111695
0.01000088028376922
0.01000033993506804
0.009980730646057055
0.009974977753590792
0.00998482977738604
0.009993490113411099
0.00999370977981016
0.009989614586811513
0.009989583296701313
0.0100036838313099
0.01003359566675499
0.010060210754163563
0.010068474182626233
0.010061638012994081
0.010041099968366324
0.010017712344415486
0.010013014141004533
0.010022265575826169
0.010025892485864461
0.01002885639318265
0.01005091667524539
0.010095874040853232
0.010142903521191328
0.010161556551465764
0.010142710303189233
0.010113168172538281
0.010103724797954784
0.010113982844632118
0.010122541681630537
0.010112146363826468
0.0100873548083473
0.010077131345169618
0.010092979378532619
0.010101288905134424
0.010075137668754905
0.010034153115702793
0.01001071795471944
0.010018747174181044
0.010055874929530546
0.010108740659197792
0.01016037281951867
0.010197890501003712
0.010214670069981367
0.010219519124366343
0.01023092785384506
0.01024491006275639
0.010240743107860908
0.010221376535482704
0.010205485444748775
0.010192342858063056
0.010172665264690295
0.01015735586755909
0.01016109464224428
0.010172516219317912
0.010170712319668382
0.01015452184365131
0.010144162251381204
0.010157372020184994
0.010177326099947094
0.010178250814788044
0.010178637279896065
0.010204113650834188
0.010232560414588079
0.01024075052817352
0.01024721282417886
0.010261482596397399
0.01025981805054471
0.010238911485066638
0.010222411603899672
0.010216383003862574
0.010214415852678939
0.010215129975695163
0.010213911624159664
0.010212773790117353
0.01022144997608848
0.010238084325101227
0.01025406178436242
0.010255976823391393
0.010233451678650453
0.010209925894159824
0.010207313244463875
0.01019488725461997
0.010152062515262515
0.010121234733378514
0.010131736440816894
0.010150947514921427
0.010146000946406275
0.010124451246811076
0.010107774359639735
0.010103536440292374
0.010104197651380674
0.01010862093535252
0.010126993559533731
0.010154541586525739
0.010167685546912253
0.01014929242315702
0.010113795223878697
0.01010843640891835
0.01015616855234839
0.01021473305649124
0.010231005838140845
0.010200335957342758
0.010163892743876204
0.01015484353294596
0.01015287908143364
0.01013702154974453
0.010134217872982845
0.010157536304323003
0.010170631215441973
0.010150073249824344
0.010123609739821404
0.010121158226393163
0.010128317273920402
0.010119359152158723
0.010101696630008518
0.01009679505135864
0.010111841965699569
0.0101456819253508
0.010182720951270312
0.010188346097711473
0.010154669290641323
0.010118539475370199
0.010102859556209296
0.010093736855778843
0.010088773940224201
0.01010931775555946
0.010154098164057358
0.01018473642761819
0.010172662541735917
0.010137165751075372
0.010121885930420831
0.010139250312931836
0.010159675190225243
0.010161633628886193
0.010155851729214191
0.010160872313426807
0.010182515712222085
0.010203112458111719
0.010201588999480008
0.01019118320546113
0.010196939463494346
0.010211462636943907
0.01021566270967014
0.010209877376910299
0.010207011011661962
0.010222966691944748
0.010257444315357134
0.010290238391608
0.010308572689536959
0.010312265281099827
0.010312690577702597
0.01032418354647234
0.010335231566568837
0.0103260649938602
0.010305894024204463
0.01029001151677221
0.010275479638949037
0.010264839722076431
0.01025806640391238
0.010235313363373279
0.010206632663030178
0.010214236113242806
0.010251449767965824
0.01026710559031926
0.010248520625755191
0.010224183588288725
0.010214464105665684
0.010222525667631998
0.01023830700898543
0.01024528699927032
0.01023932799929753
0.010234785819193348
0.010244182751048356
0.010257190819829702
0.010257907246705144
0.010241240753093734
0.010203188287559896
0.010145539456279948
0.01008585037663579
0.010050035942113027
0.010045137490378693
0.01004558669636026
0.010028535022865982
0.010006100740283727
0.010005473016062751
0.010029145365115255
0.010046161942882463
0.010025702841812745
0.009987467115279288
0.009986789687536657
0.010023791013518349
0.01004047088092193
0.010016872943378986
0.009988892020191997
0.009980884267715737
0.009981771737802774
0.009976046939846129
0.009955231915228069
0.00992248961585574
0.009903535430785268
0.009920096839778125
0.009952823385829106
0.00995949519565329
0.009937789564719423
0.009932359596714378
0.009964167833095417
0.009997945842333138
0.009997978813480586
0.009979270760668442
0.009974478537915275
0.009984615911962464
0.00999009149032645
0.009989783598575741
0.010015168057288975
0.010081102806143463
0.010138517786981539
0.010133432794827969
0.010086284999269992
0.01005976204876788
0.01007263435400091
0.010085963788442313
0.010070779866073281
0.010050079644424842
0.010054608072387054
0.010083435230189935
0.010116917301202193
0.010131822079420089
0.010120961244683712
0.010101008405908942
0.01008789959945716
0.010078294103732333
0.010063922839472071
0.010058011956280097
0.010074969343841077
0.010098597505129875
0.010109268430387602
0.010100774629972876
0.010069489394081756
0.010030623177299277
0.010004914647433907
0.009984654766740278
0.009965135009260849
0.009966873076045886
0.009984283857047558
0.009982548271073028
0.00995963513618335
0.009947285662638023
0.009960929244989529
0.00998104528640397
0.009985630236333237
0.00998553535551764
0.009997680337401107
0.01001119681634009
0.010014752645511181
0.010014107304159551
0.010007186732254923
0.009979854169068858
0.009930384118342772
0.009882801348576322
0.00986320641823113
0.00986867592902854
0.009877666648244486
0.009879696624120698
0.009884055647999048
0.009904013228369877
0.00993485183804296
0.00995447089895606
0.009950620277086273
0.0099405845743604
0.009948008001083508
0.009966146405786276
0.00997666763025336
0.00997870422899723
0.009963758621597662
0.009930239955428988
0.009914740496315062
0.009929544922197237
0.009942221285309643
0.009939766259631142
0.009927730474155396
0.009911205454263836
0.009910446129506454
0.009932663093786686
0.009955666067544371
0.009974581950809807
0.010002293223515153
0.010028896797448396
0.010041392181301489
0.010045356644550339
0.01003827081178315
0.010013427683152259
0.00998601523693651
0.009971655540866778
0.009961054899031296
0.009948338691610843
0.009953782253433019
0.00998207509983331
0.00999631304293871
0.009973825048655271
0.009942536373855546
0.009932071382645518
0.009932937823468818
0.009914414575323462
0.009866433007409796
0.009828862758586182
0.009841736619127914
0.009873446287820116
0.009875740638235583
0.009865509069059045
0.009877933743409813
0.009903206517919897
0.009917869183700532
0.009927523439982907
0.009946870236890391
0.009967407209333033
0.009971365599194542
0.009959086071467027
0.009940225997706876
0.009916608711937442
0.00988793424097821
0.009856071491958574
0.009830196012044325
0.009826696802629159
0.009839592562057077
0.00984240255318582
0.00983236396103166
0.009828435799572616
0.009837134847184643
0.00985412102425471
0.009878879856551066
0.009901746605755761
0.009897819933248684
0.009862687613349408
0.009827711487887428
0.009817862263880671
0.009821116857929156
0.009815531091298908
0.009800897835521027
0.009781804059166462
0.009750609558541328
0.009709878276335076
0.009686575069790706
0.009700223783729598
0.009727309838635846
0.009733572717523202
0.009729216976556926
0.009742980346782133
0.009763357248157262
0.009765192535705864
0.009762108599534258
0.00976983277942054
0.009771567161660642
0.00975681135430932
0.009737034839345142
0.009727938403375446
0.009740317071555182
0.009761877272976562
0.009762611165642738
0.009740486657246947
0.00972719466779381
0.00973693602019921
0.009747581026749686
0.009743027254007757
0.00973248301190324
0.009722818607697263
0.009722142429091037
0.009738815698074176
0.0097518664796371
0.009745975319528952
0.009741226778132842
0.009750598398968578
0.0097696727886796
0.009798975453013553
0.00982764650019817
0.009833658563438803
0.009830953573109582
0.009852699803886936
0.009892514627426862
0.009931008759886027
0.009968083937419579
0.009997768831672147
0.010016580526717007
0.010035103637492285
0.010048035001382231
0.01004238154971972
0.010029415239114315
0.010030657874885947
0.010055340476101264
0.01009301770478487
0.010111805555643514
0.010090262237936258
0.010055567062227055
0.010053802056936546
0.010080488559324294
0.01008626603288576
0.010050299480790273
0.010010772540699691
0.01001691930461675
0.010052253083558753
0.010050489188870415
0.010000249544391408
0.00995242369826883
0.009936174046015368
0.00993740656762384
0.009932680410565808
0.009915201605763287
0.009895577654242515
0.009877098386641591
0.009850653698667883
0.009820052676368506
0.009802011726424097
0.009803756580222398
0.00981026170658879
0.00978750933194533
0.00972224451834336
0.009653014860814437
0.009631105785956606
0.009662949634948745
0.00970562115078792
0.009715855669928714
0.009702341655502095
0.009703925265930592
0.009711614404805004
0.00968628987437114
0.009644489622442052
0.009633246454177425
0.009653081780998036
0.00967204493121244
0.009678020692663268
0.009678950442466885
0.009677533347858116
0.00966581004904583
0.0096374097536318
0.009608663611579686
0.009606690376531333
0.009627556047635153
0.009653409065213054
0.009687948190839962
0.009725951518630609
0.00974645965732634
0.009755735180806368
0.009768138723447919
0.009772574849193916
0.009770989007083699
0.009780999675858765
0.009791374440537766
0.009786998954368756
0.009783337160479277
0.009796632977668196
0.009820830238750205
0.009843074949458241
0.009858987088082359
0.009870295090368018
0.00987654078635387
0.00987811574479565
0.009882770293625071
0.009903214642545208
0.009944958542473615
0.009990024252329022
0.010008209112565964
0.009989076784113421
0.009952899251366033
0.009929624057840557
0.009918605805141851
0.00989554735715501
0.009867009439039976
0.009859179861377925
0.009865458135027438
0.00986169136245735
0.009848535156343131
0.009840085140895098
0.009833157602697611
0.009823763569584117
0.009826201146934182
0.009844259937526658
0.0098657855251804
0.00988414115854539
0.009886330547742546
0.00986403901129961
0.009838600627845154
0.009820702994475142
0.00979046181193553
0.009746754908701406
0.009713074024766684
0.009693656757008284
0.009673676064703613
0.009656665206421167
0.009665116141550243
0.009699842729605734
0.009730912540107965
0.009742048969492316
0.009746726866578683
0.009753979553934186
0.009766412038588896
0.009788357967045158
0.009803509277990088
0.009799569654278457
0.009799125102581456
0.009811963667161763
0.009812147540505975
0.009794475329108536
0.009793690555961803
0.009827861745143308
0.009865581569029018
0.009863640243420378
0.009822173335123807
0.00978745477157645
0.009787391400896012
0.009799707405036315
0.009797048481414095
0.00977530813892372
0.009743396346457302
0.00970846030395478
0.009672804878791795
0.009649111658800393
0.009647507378831506
0.00965329361264594
0.00965391337289475
0.009655275323893875
0.009658120198873804
0.00966197633300908
0.009675431745126844
0.009695027648704127
0.00971340929507278
0.009736788152949885
0.009759898417396471
0.009765207902528345
0.009751952670048922
0.00973274303949438
0.009713018173351884
0.009692832715809346
0.009684104081243277
0.00969784525455907
0.00972493915585801
0.009755442591849715
0.009785125518683345
0.00980396882048808
0.009808218308025972
0.00981042109313421
0.009827426868723706
0.009855626814533025
0.00986089589772746
0.00982196293771267
0.009778209277428687
0.009775963185820729
0.009786584357498214
0.009762871785787865
0.00973191519617103
0.009745676203165203
0.00979557620943524
0.009835993294836953
0.009844873338006438
0.009833173918304966
0.009822825215524062
0.00982012962573208
0.009813221399672329
0.009802406867966056
0.009806186341447755
0.009833109523169696
0.009873418658971787
0.00991055536433123
0.009928299335297198
0.009920305613195523
0.009900445850798861
0.009890910520916806
0.009891734507400543
0.009885704012122005
0.009870095869991928
0.009857707696501166
0.009862004657043144
0.009875289038755
0.009863630711333827
0.009819527763174846
0.009786087218672038
0.009788088424829765
0.009791477817343549
0.00976710947463289
0.009734437287552283
0.009712264910340308
0.009683792162686587
0.00964075980358757
0.009608641638187691
0.009605347353499383
0.009620742538245394
0.009635036018444225
0.009636985041433946
0.009625804187962786
0.00959404617547989
0.009539454742334783
0.009495600825175643
0.009500779762165621
0.00953744545695372
0.009551195226376876
0.009524801695952191
0.009490767043316736
0.009484291360713541
0.009504581269575284
0.009519718090305105
0.009516085812356323
0.00951539745554328
0.009537008855259045
0.00958350079250522
0.009649672295199706
0.009719233370851725
0.009764712501782924
0.009766338382614776
0.009744076089700683
0.009740212429314853
0.009754857594380155
0.009760194275295363
0.00976577861700207
0.009795167157426477
0.009833122993586584
0.009858422225806861
0.009884731483180077
0.009926592613337561
0.009970654378412292
0.009996678807074205
0.00999197961995378
0.009964273332152516
0.009943915476324037
0.00994008481502533
0.009937670385697856
0.009938914438243955
0.009945507931988687
0.009945500746835024
0.009942382115405053
0.009940703341271728
0.009934828402474522
0.009926100841257722
0.009915997287025675
0.00991405086359009
0.009942148884292693
0.00999194811214693
0.01001494718482718
0.009981331243179738
0.009944826549617574
0.009891629603225737
0.009860666571184992
0.009844563311198727
0.009848945017438382
0.00987157686962746
0.00988686791388318
0.009879757527960465
0.00986777534824796
0.00987710012239404
0.00989854039507918
0.009899689622689039
0.009882737454026937
0.009864521205890923
0.0098284524329938
0.009770023591117933
0.009715136463055387
0.009693204121431336
0.009690920853754505
0.00969266494968906
0.009699434518115595
0.009701415443560108
0.009680747435195371
0.009649153389036656
0.009635556754656136
0.009645305393496529
0.009667595567880199
0.009693897779798136
0.009707741609308868
0.009693943171296269
0.009673937584739178
0.009687683788361028
0.009723784452071414
0.009728887780802324
0.009701026405673474
0.00969364886987023
0.009718733971239998
0.009735064819687977
0.009724140904145315
0.0097000837395899
0.009678656533360482
0.009682875227881596
0.009731436233269051
0.009804971828125418
0.009859183932421729
0.009879604770103469
0.009904585623880848
0.009955711925867946
0.009980798844480887
0.009947554138489068
0.009910230921814218
0.009916086223674937
0.009956578926648944
0.010003720694221556
0.01000993090798147
0.010020540785044432
0.01002444868441671
0.010011150720529258
0.010012570754624903
0.010017873396864161
0.010055294578196481
0.01009810798568651
0.010108986938139424
0.010120998938800767
0.010162067315541208
0.010192850914318114
0.010184596262406557
0.010153887170599774
0.010126138468040153
0.010128199835307897
0.01015952578629367
0.01018621311057359
0.010195332041475921
0.010192637200234458
0.010171165970386937
0.010167011744342744
0.010169426477514208
0.010141440662555396
0.010092884238110856
0.010051910099573434
0.010036363312974573
0.010036807637661696
0.01007300839293748
0.010172337361145764
0.010284520228160544
0.010324192971456796
0.010297131807310506
0.01026943174772896
0.010252401790348814
0.010227935018483549
0.010219149847980589
0.010243385963840411
0.01026653932291083
0.010265946440631524
0.010277281035669147
0.010337761064292864
0.010431259870529175
0.010511904266895727
0.010549398579169065
0.010548306064447389
0.010532425162382423
0.010520049937767909
0.010520042167045177
0.01052884365664795
0.010542437197873369
0.010568079099757597
0.010587159401038661
0.010562573096249252
0.010520355968037621
0.010479896153556182
0.010512249919120222
0.010576724894344807
0.01060414623003453
0.010580924928653986
0.010539188496768475
0.010510177985997871
0.010525602203560993
0.01060401177732274
0.010703903554240241
0.010751576230395585
0.010728066429728643
0.010670181507011876
0.01059744211146608
0.010531155585777014
0.010479409649269656
0.010424452947918326
0.010404487532796339
0.010395214214222506
0.010376629491802306
0.01035700139706023
0.01033769386005588
0.01035085080540739
0.010356671316549182
0.010302512104390189
0.010230446092318744
0.010188409280963241
0.01018842773279175
0.010169752964284271
0.010118076374055818
0.010098218495259062
0.010091606752248482
0.010108565607806668
0.010212446869118139
0.010306124676717446
0.010312122029718011
0.010297012773808092
0.01032759279711172
0.010353459113975987
0.010317073055775837
0.01026343332254328
0.010227200344670563
0.010226711278082803
0.010232468253234402
0.010254570782417432
0.010318439475959167
0.010418886182596907
0.010542328055016696
0.010675249032210558
0.010790130854584277
0.010862199905095621
0.010892645713174715
0.010897661850322038
0.010877182992408052
0.01082547081867233
0.010792182510485873
0.010743273156695068
0.010660564713180064
0.010571416245074943
0.010572438724339009
0.010663886514957994
0.01077227472094819
0.010855755176162347
0.010908456988399848
0.010917995729250833
0.010880917012691498
0.010814759456552565
0.010745254891226068
0.010675831941189245
0.010645708409138024
0.01064187980024144
0.010623706090264022
0.010571650450583548
0.010534247938776388
0.010613205807749182
0.010720708989538252
0.010761056061601266
0.010760533296270296
0.01075570888002403
0.010728133820230142
0.010699733354849741
0.010728817250346766
0.010808863051934167
0.01088393479352817
0.010940295603359119
0.01098631167318672
0.010977011459181086
0.010999696759972722
0.010914110825397075
0.010908753394614905
0.010981185476994141
0.011034150753403082
0.011085879921447486
0.011112202681833877
0.011144405340310186
0.011194092999212445
0.01127350507536903
0.011393743802327662
0.01148248068522662
0.0114499234885443
0.011461448146728798
0.01143368394812569
0.011503552802605555
0.011640442997450009
0.011725130932172761
0.011712485232856125
0.011741279404377565
0.011759654581546784
0.011786236024927349
0.011796462623169645
0.011824498692294582
0.011865939184790477
0.011894859162857756
0.011947124081198126
0.012055303785018623
0.012157703806878998
0.012146734178531914
0.012192181922728196
0.01221053154557012
0.012177223347825929
0.01230592084932141
0.012467655023792759
0.01248949696077034
0.012469189938856288
0.012459102981956675
0.012424956059549004
0.012392044233856724
0.012404792220331728
0.012478620830224827
0.012539046307792887
0.012515713402535766
0.012612642124295234
0.01266572040389292
0.012588731918949634
0.012557868849253282
0.012513464756775648
0.01253537412150763
0.012629553888691589
0.012645071003353223
0.01256489210180007
0.012549122120253742
0.012601218372583389
0.012629567347466945
0.01257088776328601
0.012488198600476608
0.012472271142760291
0.012467798300785943
0.012488606858532876
0.012557298792526126
0.012601375469239428
0.012577945261728018
0.012549181007780135
0.012497765034204349
0.012484751612646505
0.012591549981152639
0.012717302793171258
0.012747307129902765
0.01272697105887346
0.01270939248497598
0.012825156463077293
0.012962792238686233
0.012996570442337542
0.012957134358584881
0.012899629754247143
0.012886785778682679
0.013031912519363687
0.013092866237275302
0.013203029684955254
0.013375492685008794
0.01339771543047391
0.013541661305353045
0.013772633199114353
0.013945454192580656
0.013869588192319498
0.013843670008936897
0.013851374679943547
0.013887672121636569
0.013969213727395981
0.014062013680813834
0.014142752422485501
0.014186158747179434
0.014173821198055521
0.014200184801593423
0.01416841515689157
0.014191825797315687
0.014295567522058263
0.014299785296898335
0.014289065402699634
0.014381622080691159
0.014371866441797465
0.014400175878545269
0.014578499618219212
0.014782477546250448
0.014927648573648184
0.014957874587271363
0.014953184047481045
0.015067585388896987
0.015280395447043703
0.015553169024642557
0.015758025395916773
0.01581280673155561
0.01586170471389778
0.016072617328027262
0.01644312792806886
0.01683230661903508
0.01698025245917961
0.017102521411143243
0.017323641682742162
0.017405405200552195
0.01745988046634011
0.017632930510444567
0.017808450155425818
0.01783430231269449
0.01813885921961628
0.018694044714793565
0.019391330593498422
0.020123376975534485
0.020675349701195955
0.020925221196375788
0.02103949712240137
0.02127225706120953
0.021553781148977578
0.021592586470069362
0.021629217346198857
0.02167848237673752
0.021690781234065072
0.021760792869608848
0.021897652534535156
0.022113711840938778
0.02231836534338072
0.022405860695289447
0.02243842345662415
0.02245920932269655
0.02239107808796689
0.022275459648808463
0.022337048542685808
0.022560556762618943
0.022865279534598812
0.02325929467449896
0.02369172889040783
0.023981586168520152
0.023978993062628434
0.024326426264597103
0.025070938081480563
0.025794403079198672
0.02587781604612246
0.026085922605125232
0.026194641202455387
0.02621457608998753
0.02642139538191259
0.026514761477010325
0.02655328143504448
0.026656871032901108
0.026661708713509143
0.02698187944595702
0.027564382244599984
0.0281062733347062
0.028414596829097718
0.028499708058079706
0.0284731981321238
0.02857665751944296
0.028701148233376442
0.028596391379833223
0.028594930712133645
0.028792909155599775
0.029429827488493175
0.029844073246931658
0.030041136061772705
0.030445177755318582
0.030428686138475314
0.0307843030418735
0.031273969401372594
0.0316570808168035
0.0316549315105658
0.031874594510300086
0.032164199915714564
0.03250277045997791
0.033075345274992285
0.03381265120464377
0.03431241767364554
0.034358242566231635
0.03480706327245571
0.035454197087092326
0.036334561004769055
0.03735043600201607
0.0380875252163969
0.038328567462740465
0.03829684806289151
0.03859159293235279
0.03889071575715206
0.03882750970777124
0.03916925926925614
0.03945297340629622
0.03953727369429544
0.039507276744116096
0.039538884276989844
0.0397187290887814
0.039790097345830874
0.03973639525356702
0.03974664354231208
0.039703748943284156
0.039838516045128926
0.04003402364905924
0.04024232682073489
0.04060253294301219
0.04131636755191721
0.04216488187783398
0.0427558758284431
0.042710247923387214
0.043132765687769276
0.04385551791870967
0.04482564972830005
0.04582753193215467
0.046383909108117224
0.04640583904343657
0.04634963961318135
0.04652575433137827
0.04656633509788662
0.04659006398287602
0.0468825707922224
0.04704965538345277
0.04693630483001471
0.04705664784181863
0.047090842737816274
0.04733989537111483
0.04786014241515659
0.048394790777238086
0.04881608637748286
0.04887902359943837
0.04916864872095175
0.04995211089961231
0.050461280659073966
0.05063901785411872
0.05078235444729216
0.0509309349837713
0.05120558242080733
0.05143831819994375
0.05138543314882554
0.05153593391412869
0.052055799388326704
0.052718813988612966
0.053449954650131984
0.05431947911391035
0.055304367616772654
0.05600706250173971
0.056212822092929854
0.05792205781675875
0.06061185383587144
0.06280542997526936
0.06361440291861072
0.06362925141700543
0.06379242381546646
0.0638682941312436
0.06396927589317784
0.06409765167045407
0.06437169874552637
0.06496247873059474
0.06567011632374488
0.06605250634835101
0.0661199586186558
0.06675131917116232
0.06778885053121485
0.0686755371640902
0.0687457313213963
0.07006584905087948
0.0715569159667939
0.07234734812867828
0.0723308882676065
0.072349747675471
0.07289591727894731
0.07358891438576393
0.07401854845695198
0.07417279509478249
0.07431361163617112
0.07427889845799655
0.074540533273248
0.07493963351123967
0.07522400642745197
0.07530574014061131
0.07522586742066778
0.07516104071983136
0.07528842950705439
0.07548933402984404
0.07564592003473081
0.07572151878615842
0.07620419302722439
0.07721722827642225
0.0784639563318342
0.07936088331160135
0.07958123846561647
0.08000253360602073
0.08060755520360545
0.08099489890970289
0.08111907678190619
0.08114111593458802
0.08172037228359841
0.08221301773446613
0.08209240924683399
0.08199614408891648
0.08177853882894852
0.08177201427868568
0.08170510214054957
0.0817446072108578
0.08240573088289238
0.08304616364766844
0.08285694122430869
0.08354330106638372
0.08385430015274324
0.0837300128559582
0.08375783506897277
0.08370139997801744
0.08417226850404404
0.08478221766185015
0.0847755525924731
0.08434250474208965
0.083694237745367
0.08312586459214799
0.08286723519442603
0.08259289739886298
0.08291579539654777
0.08309830631013028
0.08282471086946316
0.08294776065740735
0.08320186965400353
0.0838091650546994
0.08446158681530505
0.0844364397856407
0.08462304044514894
0.08439584049396216
0.08463000885327347
0.0848808816995006
0.0848297160526272
0.08494059118209407
0.0850156989437528
0.08512171168578789
0.08504002972738817
0.08502472918480634
0.08476540364790708
0.08441554932971485
0.08400440543773584
0.08395052746287547
0.08406180955702439
0.08396184031618759
0.08350034056114965
0.08279268271871842
0.08260874046245589
0.08224732610513456
0.08217415129183792
0.08234528019558639
0.08213145766290836
0.08234936761669814
0.08305143967969343
0.08335948307299987
0.08389629858313129
0.08500906763365493
0.08585408735903911
0.08617808019276708
0.0862166524573695
0.08613557848962955
0.0863239092065487
0.08658617216162384
0.08688522812677547
0.08714018816594034
0.08719609718187712
0.08726135985110886
0.08668293514172547
0.08652296576299705
0.08653259448823519
0.08612897684797645
0.08622378333006055
0.0862491132284049
0.08621095361304469
0.08619128814898432
0.086480015887646
0.08626247031264939
0.08599644187488593
0.08591392603120766
0.08583880299818702
0.08581344994832761
0.08578724741586484
0.08583368177642114
0.08564366590697318
0.08498629064764827
0.08410333628766238
0.08319325125892646
0.08270502200000919
0.08294619573280215
0.08346403931849636
0.08348413421656005
0.08333015659009106
0.08401950686471536
0.08427553882007487
0.0840528489369899
0.08419841902446933
0.08433142842375674
0.0844377587980125
0.08473555395379663
0.08534945805207826
0.08619875576114282
0.08666763604152948
0.08714569302042946
0.08851461679907516
0.09032857366139069
0.0919645219692029
0.09264155569835567
0.09200762395863421
0.0916641958639957
0.09167389291571454
0.09208591407979838
0.0918763201800175
0.09144818941131234
0.09101257245638408
0.09076001137727871
0.09093495912267827
0.09125233781989664
0.09144305576803163
0.09243118011276237
0.09386284261592664
0.09476247507729568
0.09470808566664346
0.09442419000086374
0.09438838924397715
0.09426610624766908
0.0942893897194881
0.09406772695947438
0.0937652338296175
0.09377363115432673
0.09399932793341577
0.09431713376194238
0.09408556439098902
0.09330971237737685
0.09269374307128601
0.09242766706389376
0.09231598677462899
0.09215088933124208
0.09201325685018674
0.09197193041560241
0.09220156295341439
0.09234210737165995
0.09211769090732559
0.09158629241050222
0.09139256620197557
0.09107161517837085
0.09022412959951907
0.0900599408952985
0.09111282787867822
0.09050500074285082
0.08778595407609828
0.08623805686365812
0.08576647742069327
0.0858195983490441
0.08576648592366837
0.08570486973156222
0.08559611376025714
0.08543329248321242
0.08531314552295953
0.08501036567031406
0.08446053710766137
0.0842023264116142
0.08444596651359461
0.08428912622039206
0.08383348114322871
0.08338024207158014
0.08337136544520035
0.08232345002936199
0.08130358920432627
0.08101316974381917
0.08115734348306432
0.0813144313520752
0.081461886332836
0.08083546357229351
0.08111241167061962
0.08172328690532595
0.08209141526604072
0.08377271822537295
0.08481445606565102
0.08467937525478192
0.08449188537546433
0.08446364082163199
0.08468256294960157
0.08527176250703633
0.08581611040979624
0.08582244552555494
0.08586700062034652
0.08622030789265409
0.08591608650749549
0.08486614244175143
0.0837451215449255
0.08275241642841139
0.08263054808718152
0.0827918753051199
0.08308270332985558
0.08342322895536199
0.08342047146754339
0.0836874683003407
0.08395043258322403
0.08450342130963691
0.08560047268518246
0.08640319968224502
0.08719024472986348
0.08770871517364867
0.08776975157437845
0.087836966678733
0.08733642366249114
0.08691516393795609
0.08762448884663172
0.08730309592094272
0.08682379183359444
0.08707739222212695
0.08759925109567121
0.0881519272387959
0.08757798909558914
0.08798310643644072
0.08867368753766641
0.0885897579556331
0.08940706578781828
0.09042688453337178
0.09086590155842714
0.09095404330291786
0.09078518436406739
0.09068183068884536
0.09088695793645457
0.09086316408007405
0.09074759527808056
0.09023999266792089
0.08957721355604008
0.08954766199109145
0.08961552444496192
0.09052193837473169
0.09117390425642952
0.09137735831551254
0.09189829622860998
0.09297232340322807
0.09393735560122878
0.09477944161975756
0.0960666114767082
0.0971174730011262
0.09754287457559258
0.097424431219697
0.0975915448437445
0.09784971562214195
0.09843223316362128
0.0986699854559265
0.09849704068619758
0.09864485098747537
0.0990483588213101
0.09922725374111906
0.09942675331840292
0.09979090873152018
0.10001978292362765
0.09988516316516324
0.09948375775478781
0.09909665283747017
0.09875063649611547
0.09810255784308537
0.09728074794635176
0.0965798594779335
0.09664301104843616
0.09668154846178367
0.09679871237138286
0.09644896667916328
0.09603540854295715
0.09589756465284154
0.0957529588486068
0.09557263362687081
0.09593900174601004
0.09622023893054575
0.09638189305318519
0.0964801316615194
0.09662048670230433
0.09663378107361495
0.09640221506124362
0.09605660167755559
0.09590160394320264
0.09616115336772055
0.0962568798661232
0.09601802616612985
0.09566004920285195
0.09504267346812412
0.0949083897843957
0.09485046590445563
0.09514640544308349
0.09630573828006163
0.09749645026866346
0.09756107846042142
0.0984754773369059
0.09988188883056864
0.10068223271984607
0.10091457831673324
0.10081336123403162
0.10023032596101984
0.10011153150117025
0.10072354170959442
0.10064867608016356
0.10090566865401343
0.10100590745452792
0.10057349377777428
0.0997656149789691
0.09979953126749024
0.10057893744669855
0.10060277714161202
0.09940048761898651
0.09775381790241226
0.09610934592084959
0.09549822402186692
0.0962084496114403
0.09646250794176012
0.09624646282987669
0.09606021153042094
0.0965184714528732
0.09695341808022931
0.09693774113664404
0.09629299877677112
0.09573829215485602
0.09558324923738837
0.09535180259728804
0.0941717181680724
0.09279768904205411
0.09195442158263177
0.09174502939917147
0.09171849567443133
0.09192894365871325
0.09262953506782651
0.09339318167418241
0.093619800505694
0.09372669495409354
0.09361335739959031
0.09295484135858714
0.09284130597254261
0.09318622274091468
0.0934335279581137
0.09343402625061571
0.09370538883144036
0.09415984668768942
0.0947812511282973
0.09539442822802811
0.09573216470191255
0.09548981032334268
0.09599253182997927
0.09695809704717248
0.09758940640371293
0.09701343471184373
0.09660162805812433
0.09644075269112364
0.0959057226171717
0.09512485414277762
0.0947194290230982
0.09514070657081902
0.09455155349802226
0.09488045846577733
0.09572423942619934
0.09617880636127665
0.09633915404090658
0.09628094456391409
0.09631598106119782
0.09627791507169604
0.0961712385993451
0.09617995197651907
0.09627684336155654
0.09609623724594712
0.0954986604466103
0.09522235614480451
0.09540222798008471
0.09592990280361846
0.09607773061376065
0.09573326434474438
0.09515557761536911
0.09512676252285018
0.09510387185961008
0.09487646734109148
0.09529395256191492
0.09470598912332207
0.09399830983486027
0.09408505256054923
0.09266738863196224
0.09121005907654763
0.09087311081122607
0.09078702865168452
0.09083383670309558
0.09087944000493735
0.09073701598215848
0.09064277718076483
0.09071618876885623
0.09077273685950786
0.09112440418452024
0.09163068494992331
0.0919616341055371
0.09194106091978028
0.09235863809473813
0.0924948864383623
0.09183430835837499
0.09081545455846936
0.08991712889401242
0.08974834148772061
0.08948304142802954
0.08871460947673768
0.08789760661078617
0.08718649119604378
0.08648490635911003
0.08578191436594353
0.08526190775912255
0.08538976676529274
0.08514372994890436
0.08486030866391957
0.08481313098687679
0.08459249453153461
0.08428373187081889
0.08435724602546543
0.08468172653811053
0.08478781020734459
0.08460095992544665
0.08454019118333235
0.08404454458039254
0.08392069144174456
0.08441481625428424
0.08386957985349
0.08378704428905621
0.08420061036013067
0.08476948914583772
0.08456458314787596
0.08448636978399009
0.08457743005827069
0.0846680251462385
0.08462795740924775
0.08454405326629058
0.0846149571170099
0.08477154067019001
0.08446321872295812
0.0837980751786381
0.08319667545612902
0.08290786549681797
0.08251222190447152
0.08155079256510361
0.08059980077901856
0.07973632026230916
0.07866867732256651
0.07761056944495066
0.07719170361058786
0.07756342425011098
0.07775535678956658
0.07767335765529423
0.07739684605039657
0.07712689247680828
0.07704923307057471
0.07707988289184868
0.07685540174832567
0.07667882598470896
0.07639439186779783
0.07569892136612907
0.07550232797861099
0.07532019350212067
0.07521840827539564
0.07567580230301246
0.07566845586290583
0.07518950153607876
0.07499102510279045
0.0748240162874572
0.07482485785381869
0.07513553268508985
0.07491477499948815
0.07533435443416238
0.07562719484092667
0.07558528896886856
0.07565393905388192
0.07576113208895549
0.07543288806686178
0.07536153260618449
0.07610936101991683
0.07719226865563542
0.07744373478461057
0.07719562066486105
0.07731673624832183
0.07757727980380878
0.07768452664604411
0.0775860123638995
0.07755522444844246
0.07762339860666544
0.0776341027347371
0.07750495616113767
0.07779965540394188
0.07876180346822366
0.07854491247795523
0.07760386982467025
0.07646175692323595
0.07662749021779745
0.07594504930311814
0.07425593610620126
0.07292618811130523
0.07239860364468768
0.07228265854064375
0.07243861932773143
0.07251125341979786
0.07233339593745768
0.07227914306567981
0.0719942607707344
0.07190320189576596
0.07184798910282553
0.07185629321262241
0.07108130221953615
0.07002485666424035
0.06958255426725372
0.06952389100566507
0.06949265013448894
0.0692819153680466
0.06880807351088152
0.06814685507910326
0.06795396887464449
0.0681976775219664
0.06815487432060763
0.06767834736267105
0.06719097441760823
0.0667391622113064
0.06664027974940837
0.06647733507677912
0.06636332507245242
0.06677030877908692
0.06735588243929669
0.0673552900319919
0.06791957994224504
0.0691216154419817
0.06993089246796444
0.06986822853330522
0.06921646047616377
0.0685873036342673
0.06830020318040625
0.06819463341031223
0.0678325789514929
0.06792242779629305
0.06760502171469852
0.06717363222735002
0.06699954122537748
0.06701299122069031
0.0668101733434014
0.06656068966025487
0.06630184720037505
0.06604686879087239
0.06596436625113711
0.06610250127734617
0.0655349261010997
0.0650514653325081
0.06523562856949866
0.06596801726147533
0.0659304699767381
0.06610456311609596
0.06614166687242687
0.06565656296210363
0.0652776863402687
0.06562855130527169
0.06625871726777405
0.06570664145052434
0.06541192027973011
0.06600293189287186
0.06666598942363634
0.06672722211806104
0.06687101923394949
0.06666547670261934
0.06649782641790808
0.06644009037874639
0.06667454302310943
0.06702332251239568
0.06738009127089754
0.06730707927606999
0.06775724072707817
0.06837071701185778
0.0685160977090709
0.06826338181737811
0.06850720495916902
0.06840239157434552
0.06815693275770172
0.06788527229102329
0.06765010932460427
0.06793153199367225
0.06856149289989844
0.06872962201479822
0.06854507601587102
0.06914744316134602
0.07028696583583952
0.07122590132290497
0.07133894425351173
0.07104005543515086
0.07101059850072489
0.07105010891798884
0.07081782914465293
0.07087047179229558
0.07031019877409563
0.06951608013361693
0.06917039811844006
0.06908710911870003
0.06862293463898822
0.06832958901068195
0.06831401596777141
0.06837691862368957
0.06850498674437404
0.06847082620952279
0.06886309839552268
0.06928658151999116
0.06909561723005027
0.06875623697414994
0.06876969742123037
0.06888623367995024
0.06890086314175278
0.06872506676940247
0.06877252430189401
0.06867838272359222
0.06815902528585865
0.06772783138090745
0.06774996739113703
0.06796780175529421
0.06787040650844574
0.06755113609135151
0.06715819326695055
0.06750707538099959
0.06786019723862409
0.06826343388762325
0.06888392614899203
0.06892904123989865
0.06824119442142546
0.06752673701383173
0.06689203217858448
0.06681483686203137
0.06702853974886239
0.06742334143491462
0.06760105088353158
0.06750863089691847
0.06748324305750429
0.06773174432571977
0.06815157333156094
0.06861296926159412
0.06845489960862323
0.06877053022850305
0.07013190527446568
0.07174989825114608
0.07268788141664118
0.07312894328730181
0.07305504926014691
0.07355329017620534
0.07444644590141251
0.07519547895062714
0.07523820666363462
0.07505197820719331
0.07468503093114123
0.07456865991232917
0.07484212780138477
0.07526853814953938
0.07562284205807374
0.07625730659812689
0.0768968944111839
0.07685073823900894
0.07711240971460938
0.07725444169482217
0.07762882239650935
0.07804746313253418
0.07801437296671793
0.07806197338504717
0.07861012460431084
0.07875986237078905
0.07900607876712457
0.07918439333792776
0.07911311272764579
0.07915033671073615
0.07896820172667503
0.07887711269315333
0.07881500303046778
0.0789159050444141
0.07873479828936979
0.07900919558247552
0.07879620179533958
0.07798075093189255
0.07755318302894011
0.07793406969169155
0.07878523280844092
0.07947269268566742
0.07959116128738969
0.07967456453246996
0.07980683906702325
0.07970100061735139
0.07965811683097854
0.07968786873156204
0.07981407172977924
0.07918264631647616
0.07821612961357459
0.07801955121569336
0.07814705127384514
0.07846380443079397
0.07809006911003963
0.0780844110250473
0.07876770033268259
0.07934742373647169
0.07935401705559343
0.07977910998510197
0.07988006696803496
0.07935432048980147
0.07909989087842405
0.07923711426090449
0.07927502637729049
0.07950874772155657
0.07948930610204115
0.07974839894101024
0.0798606030945666
0.07976479597156867
0.0798993235337548
0.08012525458121672
0.08018309646518901
0.08020591928856448
0.08014886311721056
0.08021758442977443
0.07993571468396113
0.07928734864108264
0.07949300325009973
0.0797985712857917
0.0801883232477121
0.08109068035148084
0.08217117520747706
0.0825251038488932
0.08328688147710636
0.08508755349554122
0.08654932054923847
0.08691417753696441
0.08665169071638956
0.08562248287023977
0.0849768467945978
0.08487635618541389
0.08493050378747284
0.08490100389812141
0.08501841973047704
0.08487984710605816
0.08482398401480168
0.08477278175065293
0.08480785540305077
0.08475531231611967
0.08482659462606534
0.08486782340332866
0.08481683441670612
0.08467554704518988
0.08463991204509512
0.08439692912856117
0.0840568842831999
0.08436505662510171
0.08459805941442028
0.08424057199386879
0.08353051219601185
0.08289275780785829
0.08275217534508555
0.08259117095731199
0.08274417811771854
0.08307344863889739
0.08296328986529261
0.08225497210631147
0.08183336205780506
0.08201633598655463
0.08163190890103579
0.0804773385100998
0.08000554958591238
0.08099837483372539
0.08207630313932895
0.08281689536990598
0.08318675962043925
0.08460488450247794
0.08573255425551907
0.08597660946426913
0.08576779277296737
0.08560269617242738
0.08501427627634257
0.08463702429784462
0.08465774522861466
0.0847324965428561
0.08545682016992942
0.08684579347725957
0.08800869706319644
0.08801321340026334
0.08806936221895739
0.08772050717147067
0.08696613750420511
0.08651620589895175
0.0866386659629643
0.0860312523576431
0.08487165594939143
0.08411355157615617
0.08416412742109969
0.0843116550357081
0.08388528757262975
0.08333548933733255
0.08348100889241322
0.08353683592518792
0.08358071388443931
0.08365817345445975
0.08450379864079878
0.08556936953216791
0.08615608091233298
0.0861395366746001
0.0863402867410332
0.0863560740929097
0.08640214645769446
0.08652097743703052
0.08603302153525874
0.08574788228608668
0.08594513037009165
0.08607193782925605
0.0859085534675978
0.08666218301048502
0.08822469034697861
0.08938520808471367
0.0894393568718806
0.09075188380898908
0.09223196272971108
0.09284783097915351
0.09287699074484408
0.09334773592185229
0.09399627096951008
0.0939414036902599
0.09412645326927305
0.09431593392742797
0.09391591186402365
0.09318654684117064
0.09261237626895308
0.09269231781829149
0.09239631170406938
0.09231306000147015
0.09302274171961472
0.0936334043298848
0.09329377608839423
0.09279346053954214
0.09249125159112737
0.09239220484159887
0.09234611494233831
0.09212684732628987
0.09172821335028856
0.09121626015054062
0.09135795647511259
0.09085856436751782
0.08935836142860352
0.08761195571394637
0.08645739347673953
0.08598983745789156
0.08615661607123912
0.0857145973900333
0.08503396220039576
0.08458975667366758
0.08436955514596775
0.08418360103387386
0.08431318116607145
0.08427070652833209
0.08398868553573266
0.08474417534191162
0.08603643550304696
0.08658019469352439
0.08601898891851306
0.0865522166970186
0.08658940681256354
0.0863436560286209
0.08595643002539873
0.08527487217448652
0.08488674575695768
0.08478908815653995
0.08419562347466127
0.0839354585739784
0.0839138910220936
0.08336249819258228
0.0832163794292137
0.08325623420532793
0.08295726089272648
0.08270291977096349
0.08271382095525041
0.08274928629864008
0.08303277736529707
0.08282289813505486
0.08264761744067073
0.08247891134815291
0.08185067561687902
0.08121835641097278
0.08055534211918712
0.07970055149169639
0.07949093358591199
0.07966410776600241
0.07995080860098824
0.08058773832628503
0.08077849613735452
0.08104358008829876
0.08179350268794223
0.0822731715766713
0.0825241758604534
0.08330002320464701
0.08399498841259628
0.08411594234872609
0.08413765460252762
0.08378652680665255
0.08299222291912883
0.08248688929248602
0.08266681922832504
0.08262291721068322
0.08258199728792533
0.082838600280229
0.08277590377489105
0.08258483169833199
0.08272883106721565
0.08248679931275546
0.08246084969025105
0.08218739601084962
0.08194946982664987
0.08188628753414377
0.0816988739790395
0.08125251232879237
0.08094274932984263
0.0810837332205847
0.08125285781221464
0.08122803494567052
0.0813465289096348
0.08171480293385684
0.08153436395572498
0.08107960022520273
0.08043119319947437
0.07958293087547645
0.07847120895748957
0.07830233733635396
0.07780827101552859
0.07588429032824934
0.07393602199153974
0.07343418470816687
0.07296416095923633
0.07292945711407811
0.0732056759786792
0.07369675568304956
0.07384906874038279
0.07375900828046725
0.07385228416183963
0.07389964167494327
0.0743758068792522
0.07461297700647265
0.07489955183584243
0.07589281709864736
0.07656787056941539
0.07671369398478418
0.07683265749830753
0.07734367589233443
0.07762820512056351
0.07752738285809756
0.07743040561676025
0.07694729805458338
0.07640804342692718
0.07620432034134865
0.07622231396380812
0.07626790939597412
0.07632616141345352
0.07641409425297752
0.07634129021782428
0.07609396448126063
0.0758686710591428
0.07594724734546617
0.07581576741533354
0.07555232617771253
0.07533702533459291
0.07542261301074177
0.07524130392819643
0.07431944658281281
0.07298460420453921
0.07239452391630039
0.07225837474921719
0.07100105115910992
0.06962520327651874
0.0689257454383187
0.06874848814681173
0.06883588315919041
0.06873521797591821
0.06829636442707851
0.06790023876121268
0.06782763495575636
0.0671087035886012
0.06566285770386457
0.0645776092982851
0.06444272434571757
0.06451727900188416
0.06443883928237483
0.06484978766646236
0.06537037931149825
0.0656326953973621
0.06586318997666239
0.06602090741740539
0.06594180298969149
0.0657110939314589
0.06562775254715233
0.0656228956161067
0.06563020865432918
0.06548386059701443
0.0652199161797762
0.06504985383944586
0.06510040213121102
0.06434284541755915
0.06315416351659224
0.06272691898513585
0.06313315702602268
0.063341485906858
0.06343239129288122
0.06332666630158201
0.06311415118630975
0.0632452306849882
0.06329932107124478
0.06332438295241445
0.0635241145035252
0.06395642494782805
0.06358496493659914
0.06235286456998437
0.06120087806601077
0.061652280176058415
0.06132618784671649
0.060978617002256215
0.0609392648935318
0.06075219796039164
0.0600981741794385
0.05902869505109266
0.05884467177093029
0.058557570022530855
0.0581451533944346
0.057841484635137025
0.05755453248275444
0.05736123780719936
0.0572742247232236
0.057217447431758044
0.05718437707517296
0.056941382077056915
0.05653562682215124
0.05672528910683468
0.057058326264377686
0.05716795396292582
0.05730862891767174
0.057503314379137006
0.05746074982220307
0.05741098358761519
0.05773938577855006
0.05786768852267414
0.05771339005790651
0.057732286094687876
0.058078006603755054
0.05836498092161491
0.058359204821754246
0.058219224051572385
0.05804379421286285
0.05773711709771305
0.05743195520015434
0.05742339114192873
0.05775480067823082
0.05804688327014446
0.05814497360493988
0.05802603059681132
0.05687186497496441
0.055065712318755684
0.05372898038243875
0.05402965323301032
0.05437184390146285
0.054940871810540554
0.05515256978338584
0.055088707618415354
0.05526700429851189
0.055389587555546314
0.05522263687103987
0.05508286634692922
0.054906907058320936
0.054831159096211196
0.05495345329400152
0.05495208927895874
0.05491030704928562
0.05507745722075924
0.055278717326000336
0.0554495833045803
0.05524813734227792
0.05507231300231069
0.055126063344068825
0.05525023037102073
0.05537309711100533
0.055489653137046846
0.05532228213734925
0.055305614543613046
0.05522908860817552
0.055372777124866844
0.05537547768559307
0.05498499028151855
0.05437549758004025
0.054308753171935675
0.05404318354325369
0.05335301942192018
0.0533603757340461
0.05326059096027166
0.05267573405522853
0.05215253283968195
0.05185095887165517
0.05186908734729514
0.051795960834715514
0.05180812747916207
0.051752498797141014
0.05185253753326833
0.051936401701532305
0.05193933494621888
0.05182442807825282
0.05160409384174272
0.05185899521224201
0.05212396287126467
0.052408421654254196
0.05264849803643301
0.05272169343894348
0.052785826097242534
0.05318630889756605
0.053809434191789476
0.054206657770555465
0.05415516200708225
0.054435758299659937
0.0549520808365196
0.05528214113088325
0.055027256831526754
0.05476464494364336
0.054689358728937806
0.054618450021371244
0.05456496437778696
0.05436076355166733
0.054396642630454156
0.054273421585094184
0.05390844009583816
0.05363272852031514
0.05354322518222034
0.053533279581461105
0.05366897421656176
0.05363438031869009
0.053315090532414615
0.05286838747095317
0.052649859823286536
0.05253448407165706
0.052495954525657
0.052620022532064464
0.052155647608451546
0.05206865962129086
0.05181534058181569
0.05106039784383029
0.050783732468262316
0.05101012950530276
0.05101278302958235
0.050480011643376205
0.05000139226904139
0.04999164863955229
0.04999618636444211
0.05005389614030719
0.05015828417614102
0.05002116033574566
0.050163185836281626
0.0504883255274035
0.0506962273013778
0.050584910898469386
0.050789028531871734
0.05133424361702055
0.05185781524050981
0.05183875008951873
0.0517660621041432
0.05189739398658275
0.052098783433903006
0.05219009323045611
0.052121737101115284
0.05199930122354999
0.05207619552966207
0.05194537714356556
0.0517344344034791
0.0517697791592218
0.05211854409659281
0.052489513263572006
0.05268903608433902
0.052531024725176394
0.05227967323269695
0.0520410094736144
0.05198125931201503
0.052034287981223316
0.05181955368025228
0.05183353793108836
0.051820315124932674
0.05200666865566746
0.051662610555067656
0.05160948899574578
0.05153210353339091
0.05135174949420616
0.051570016571786254
0.05186467236606404
0.051981161353178325
0.05300100355874747
0.05437399019487202
0.05517582031432539
0.05521917731268331
0.05550948093412444
0.05554546292871237
0.05542038056766614
0.05527166706277058
0.05512812885921448
0.055067406406160445
0.0551398612302728
0.05517730549210682
0.055040581112261865
0.05486250319750979
0.054696461821440605
0.05486672138096765
0.05551016370765865
0.055857579438015816
0.055596030168235305
0.05532810335047543
0.05498725591925904
0.05454914355883375
0.05405089925508946
0.0536478113103658
0.053716633366420866
0.0531712850369513
0.05200715058017522
0.05076891096541658
0.05013339310185984
0.050082750942092386
0.04998528982978314
0.050033597273286434
0.04994524143170565
0.04996817560400814
0.05011215370846912
0.05067096159094944
0.05126180470455438
0.05143873328110203
0.05130019991425797
0.051287084827199576
0.051184428797569126
0.050876436126418415
0.05072104708757252
0.050535739762708545
0.050281226560473444
0.050238006277941165
0.05015706902835518
0.05020027956459671
0.050323303365148606
0.05020657728193328
0.05003681699745357
0.0499014884699136
0.04989051414420828
0.049880447953473774
0.04978156480472535
0.049665041072294115
0.04953563209157437
0.049771231121849266
0.050050486330874264
0.0502646278985776
0.05051277668913826
0.05077236145036295
0.05073640834772959
0.05036816457519308
0.05003665446303785
0.049993749854620545
0.049962951187044385
0.049882826022803785
0.049959893072955314
0.049920918298885224
0.04964914764976129
0.049585653154645117
0.04987105063628405
0.05005183868808672
0.0511530800187029
0.05286570989061147
0.05397829039255157
0.05422345032915473
0.05489618883933872
0.05503215253120288
0.05489744891179726
0.05485091029200703
0.054701293390244245
0.05474350266391412
0.05476020535221324
0.0546274751261808
0.05467281257035211
0.05450027589919046
0.05428812543861568
0.05415496786590666
0.0540168892336078
0.053892446102108804
0.05395128068746999
0.053737670278642326
0.053661275992635635
0.05345377752557397
0.0532235091435723
0.05299069978296757
0.05326745738042518
0.05370033392915502
0.05379291148856282
0.05404475310817361
0.05452443077461794
0.055194872333668175
0.05515772537793964
0.054566250080242754
0.05429608011618257
0.054398278382141146
0.05456216923892498
0.05453020725166425
0.054722888530232015
0.05478650298668072
0.05473370193969458
0.0547903868323192
0.05479575745994225
0.05500451441621408
0.05541333170607686
0.05566562888212502
0.05547302437480539
0.05524515031836927
0.055276795483659956
0.0555679195956327
0.056089550484903154
0.056558131736237555
0.056593053103424606
0.05709391447016969
0.05805851703742519
0.058933182873297484
0.058985543143935504
0.05911004907218739
0.05925971013493836
0.05912755260942504
0.059299840820021925
0.059722309128846976
0.060004887189716104
0.05993217564420775
0.060029336530715224
0.060164241641759875
0.06029057448962703
0.06084696972975508
0.06113078712951392
0.061402722483035174
0.062074197239708154
0.06249925157753751
0.06239682231564075
0.0627145537803881
0.06308181340340525
0.06294605871662498
0.06293695262866095
0.0631864440231584
0.06298688402865082
0.06296186227817088
0.06276094843633473
0.06260400142287835
0.062598133306019
0.06259938919683919
0.06256766880862415
0.06244808668969199
0.06243978691753
0.06272315738489852
0.06300604278920219
0.06311241917777806
0.06314571337308734
0.06282077341340482
0.06247026347089559
0.062345388003159315
0.06237797863315791
0.0627511822571978
0.06335019806399941
0.06367224984103814
0.06360926931723952
0.06401483620284125
0.06417765612713992
0.06404340367298574
0.06407366264611483
0.06452332055894658
0.06505997711326927
0.06494057804578915
0.06522104575531557
0.06545753401005641
0.06522617424372584
0.06470302376663312
0.06426672874949872
0.06413576324703171
0.06407121270429343
0.06401336233131588
0.06390491192461922
0.06381482548080385
0.06394985757069663
0.0641108057461679
0.0640485872537829
0.06400228595361114
0.06391216325107962
0.06396025414578617
0.0640384012972936
0.06367367673898115
0.06309693266404792
0.06252259419998155
0.06222844425123185
0.0622893728245981
0.06152661569183692
0.06043639373965561
0.059918694258667526
0.06016718728933483
0.059930729849729684
0.05978217226453125
0.05978754714364186
0.05994047437561676
0.06027632069773972
0.06053606449393555
0.06054377352818847
0.060336513719521465
0.060116975591517983
0.05993724721251056
0.05988467202754691
0.059669678080826995
0.05919918213039636
0.05891732377931476
0.058984213510993866
0.058842844979371874
0.058735926349181684
0.058718323642387986
0.05881799166090786
0.05911290136165917
0.05932841524248943
0.05940565159311518
0.05939243103377521
0.059492901905905456
0.05969178430270403
0.05995055158622563
0.060167093940544876
0.06032787991920486
0.060417682072147726
0.06054274699417874
0.06041186773218214
0.05972165301674977
0.05895726336399093
0.05856054194737226
0.05860659805592149
0.05893147057853639
0.058785400099586695
0.05919358499348164
0.06027335207676515
0.06113593866350129
0.06105643053073436
0.06130056671099737
0.06172224606852979
0.06167659368831664
0.06158318977570161
0.061605519908480344
0.06151344800135121
0.06157243388937786
0.06153700907249004
0.06159051077440381
0.0614398783352226
0.06157096417853609
0.06210092920577154
0.06194696331396699
0.061852147791069
0.06189274171600118
0.061750461168121544
0.061407042213249954
0.06108958907425403
0.061030351768713444
0.061051904263440517
0.06117182380752638
0.06121629292378202
0.06133055035257712
0.06147992223035544
0.061516481961589306
0.061364635701756924
0.061018587318249044
0.060696082117501646
0.06055016799131408
0.05924465696793049
0.05733297641156241
0.05628756911261007
0.05595335454447195
0.055143334760796275
0.054932706176768986
0.055098700332455335
0.05518836663803086
0.05533042654162273
0.055261127804405986
0.05511278284946457
0.05514937083935365
0.05526124433847144
0.055329915743786845
0.05559421851532534
0.05570957119576633
0.055789651966188104
0.05645955897169188
0.057439433406107125
0.05798058876302093
0.058000592961907384
0.05815653427736834
0.05789653519168496
0.05804584353696555
0.05773047601105645
0.05705042892601341
0.056817495455034076
0.05651076932437718
0.05555066484259442
0.0547884338023141
0.05446557629853487
0.05443778574466705
0.05450724544702098
0.0544425872573629
0.05417998512741178
0.054312106382567435
0.0542577382363379
0.05391214325092733
0.05358641480095685
0.05331055527785793
0.05319064381765202
0.05311694487929344
0.05248889492359012
0.05173297909321264
0.051850888601038606
0.05211081460583955
0.05213422216940671
0.05225335270632058
0.051748690772801635
0.050874791028909384
0.050438466491177676
0.04991216748021543
0.048428215368185194
0.04684579380322248
0.046324896889273076
0.04608669459819794
0.04602062897756696
0.04616299011744559
0.04597850491758436
0.04577738565625623
0.0457093229633756
0.04568840602179989
0.04553061586571858
0.045395220466889444
0.045651222551241516
0.04548360160784796
0.045290874869097025
0.04496228088857606
0.044267498063854875
0.04372253567446023
0.04389849075814709
0.04364285188028589
0.04361508631845936
0.044316487384494396
0.04463048775214702
0.04436174872564152
0.04486529562156647
0.04545243339380249
0.04574407162843272
0.04532612258568406
0.04500707810744643
0.045232439124956725
0.04547555048717186
0.04550753140123561
0.04534947383450344
0.0451177464844659
0.04497626791941002
0.044878074727021156
0.04482146640541032
0.044899155595339836
0.04489463998703286
0.044773661952931434
0.044756567892618476
0.04411236512241885
0.04312100163660944
0.042634536928962914
0.042719512919429686
0.04226151536218822
0.04194338332628831
0.041855386702809486
0.041727734801825137
0.04137403868371621
0.041013615771662446
0.04102315238444135
0.04090860733529553
0.04093293243320659
0.04109381278278306
0.041176266372203826
0.04119760530535132
0.04113664611708373
0.04129973453236744
0.04138185401447117
0.041346288188360635
0.04130423351423815
0.04140849591000006
0.04177353785606101
0.04219641070347279
0.042120813662186264
0.04237379069207236
0.04294336599996314
0.04358443119097501
0.04410859410651028
0.044261659109033645
0.04413012269185856
0.04395751981297508
0.04380757193546742
0.043978036071639505
0.044328609709627924
0.04442786251427606
0.04421922103501856
0.04453135888325051
0.045062325652688744
0.0455951477936469
0.04597738537238911
0.04607074851170182
0.046030004769563676
0.04604151468258351
0.04608771358150989
0.04622726821806282
0.046270484374836086
0.046242395241279155
0.04622156822122633
0.046352888219989834
0.04656301971292123
0.046682460447773334
0.04676226048497483
0.04712868849746883
0.04751758903032169
0.04759705913485959
0.04732542927376926
0.047084598196670414
0.04686053422279656
0.046820547238457945
0.04675605804659426
0.0466083567449823
0.0463450233428739
0.04606359306490049
0.04586841969517991
0.04575475476216525
0.0456023603444919
0.04545989669626579
0.045508625144138934
0.04575767046771943
0.04583971545100212
0.04564889050787315
0.045559786206576976
0.04559359285980463
0.04510330372722819
0.04418778896331787
0.04337316875578836
0.043257603542879226
0.04315899378387258
0.043013780170585963
0.04290300011634827
0.04293098399182781
0.04313482107128948
0.04323902526171878
0.04302542444551363
0.04301163164898753
0.04306472352240234
0.04315939595457166
0.04284394656307995
0.04256608808413148
0.042809704670216886
0.04284878326114267
0.04256336771184579
0.04285444485489279
0.043281779158860445
0.04353224732680246
0.0434932170715183
0.043566466469783335
0.04338482516817749
0.04378375160973519
0.044524560084100814
0.044999568951316175
0.044973293063230814
0.04447244780836627
0.04432902690721676
0.04455573313171044
0.044915105369873344
0.04522850269218907
0.04533815012779087
0.04537813931703567
0.04543848044006154
0.045655271073337646
0.04589308040216565
0.04577108975499868
0.046120060167741034
0.04643389989156276
0.04632429155521095
0.046239575042854995
0.046433770367875694
0.04656169389141723
0.04651625155238435
0.046412683443631975
0.04646815230837092
0.046460341203492135
0.04569406726863235
0.044731309677008536
0.044181343992240725
0.04410834002541378
0.043955401370767505
0.044177320203743875
0.04430763012962416
0.044422625829465684
0.04462770411511883
0.04505437663989142
0.04525299622444436
0.0452600028924644
0.04527499499730766
0.045689158737659455
0.04622542752418667
0.046401195551734414
0.04631993076531216
0.046593497237190605
0.04675315676489845
0.0468053067359142
0.04678878979058936
0.04681668116943911
0.046748517162632196
0.04680407476145774
0.046989878637250515
0.04697977584088221
0.047121085592079906
0.047237238481175156
0.04753578741569072
0.04773667028639465
0.047211781730875375
0.046766541916877034
0.04689584544859827
0.04742138802539557
0.04736627273960039
0.04804030816536397
0.04923477222211659
0.050221401231829076
0.050631869360804556
0.050726852854713796
0.05149533035466448
0.05267261898145079
0.0535834509623237
0.05405983686214313
0.05411288528703153
0.054226109958253804
0.05420542978914455
0.053892126870341596
0.054032868943177166
0.054732695138081905
0.05507040931843221
0.05539896338945255
0.05650459304451942
0.05726202385965735
0.05718689560191706
0.05733201724011451
0.05688621083972976
0.05650031292345375
0.05705929576884955
0.057300510609056804
0.056942737607751044
0.056924356571398674
0.05778541720705107
0.05853529198560864
0.058495639681350436
0.058375597642734645
0.05842211175011471
0.05849314074032009
0.05838864935329184
0.05842559049837291
0.058557020772714165
0.05850033965194598
0.05863166982075199
0.05888921538600698
0.05909501050598919
0.05917844892246649
0.059131837510503826
0.05894706044811755
0.05876818874152377
0.05867723269853741
0.058656235605012624
0.05864481509430334
0.05910945920739323
0.05933739264728501
0.05951433450216428
0.06029788782121614
0.0609570101252757
0.06070174813270569
0.06055118801770732
0.06032872872659936
0.06051410759333521
0.06070900064427406
0.06073175755096599
0.06090110707562417
0.06122939121443778
0.06146758480463177
0.061492537092417476
0.06125272723380476
0.06087843474932015
0.060734319754410536
0.06070669259876013
0.06078672589501366
0.06070875927107409
0.06032358244992793
0.059800448503810916
0.05976582432631403
0.06019137310096994
0.06081508826930076
0.0612332451553084
0.06082236459478736
0.06031622118316591
0.060429938486777246
0.06064616881078109
0.060572429832536724
0.060580127928406
0.06044322988484055
0.06151753577869386
0.0625333559815772
0.0623857512162067
0.06298901768866927
0.06330011752899736
0.06314359131036326
0.06321081849280745
0.06332292651291936
0.06331857406767086
0.06304521793499589
0.06275872589088977
0.062570767251309
0.06261740082409233
0.06233830391895026
0.06216023172484711
0.06272056692978367
0.06342996300198138
0.06344307921594008
0.06385864013340324
0.0646123980730772
0.06542189005762339
0.06588799963705241
0.06588415411300957
0.06609037151560188
0.0660468468721956
0.06610779856331646
0.06653010165784508
0.06681416971608996
0.06686369687085972
0.06698642515111715
0.0671205966337584
0.0671095656673424
0.06710190209560096
0.06743137723766267
0.06767716044560075
0.06760066502261906
0.06751216946868226
0.06759452137863263
0.0673958923527971
0.06708319439785555
0.06725428964477033
0.06760765831219033
0.06795908487867564
0.06830426699947566
0.06864313465775922
0.06873572752578185
0.06875692398520186
0.06944636089727282
0.07038836054503918
0.070658379283268
0.0703892563120462
0.07015646025771276
0.07025114142801613
0.0698317279224284
0.06932861774228513
0.06934846214717254
0.06988323048455641
0.07027561259223149
0.07042608135845513
0.07023600171320141
0.07001554154558107
0.06982758279889822
0.06957690741401165
0.06969382467446848
0.06943874513730407
0.06920262094819918
0.06927141739055515
0.06915327613707632
0.0694205035851337
0.06972321799723431
0.06982887674123049
0.06996145361335948
0.0699094426096417
0.07069574324181303
0.0710607420001179
0.07094701352529227
0.071476493999362
0.07303344436455518
0.07452724382048473
0.07514548749662936
0.07573617165442556
0.07757349736755714
0.07985318892635405
0.08161146202590316
0.08220828909892589
0.08277267714962364
0.08372068665921688
0.08421272087842226
0.08411580416141078
0.08397671757964417
0.08368243353907019
0.08353018710622565
0.0833362351404503
0.08289120218483731
0.08265223604626953
0.08271582236280665
0.08269510195124895
0.08252194408327342
0.08274117707507685
0.08362422247417271
0.08453716292977333
0.08440836015390232
0.08473647129489109
0.08543571349233389
0.0859996513160877
0.08610148488311097
0.08606857353588566
0.08596978412941098
0.08576339083490893
0.08630244188942016
0.08695369868772104
0.08681089421268552
0.08636555301724001
0.0864577551325783
0.08670246806228533
0.08689902567537501
0.08697607510257513
0.08644237923901528
0.08701158853946253
0.08685507230693475
0.08567972044460476
0.08552934605395421
0.08611310547217726
0.08592683217022568
0.08659163056639954
0.08705348541028797
0.08620104007655754
0.08656652432400733
0.08794362153392285
0.08824587860377506
0.08926983239594848
0.09095152844674885
0.09071697532199323
0.091907788538374
0.09455510320374742
0.09641291961539537
0.09617760985391215
0.09548949429066851
0.09617580210324377
0.09626833889866247
0.09617234886158257
0.09616659128805623
0.09602708755293861
0.09585959350690246
0.0959846631763503
0.0958675878494978
0.09517818178515881
0.09447147956350818
0.09415945772081613
0.09414041391573846
0.09417686173459515
0.094161826192867
0.09417448709718883
0.09393490672810004
0.09368366850772873
0.09371631391579285
0.09357263351324946
0.09338571792002767
0.09326231367187575
0.09316976719535887
0.09333515380509198
0.09339747190009802
0.0932457189145498
0.09322621883358806
0.09332438444951549
0.09373038859572262
0.09359455967554822
0.09368204552913084
0.0941516938782297
0.09346254567150027
0.09333922698860989
0.09362027121242136
0.09443284213542938
0.09623968816362322
0.09682288158219307
0.09717779195401817
0.09824599648360163
0.09844531341921538
0.09797977066366002
0.09817876803921535
0.09919588906690478
0.10011370048159733
0.10008383977692574
0.10019724926678464
0.10074794279877096
0.10134572737850249
0.10254793307045475
0.10363211865071208
0.10376585411140696
0.10546779796713963
0.10674992544343695
0.10622324637137354
0.1067169558047317
0.10721893198788165
0.10723752998746931
0.1069104469125159
0.10735613013384863
0.10816265570232644
0.10804430968360976
0.10879854791797698
0.10986337979091332
0.11125050412956625
0.11263447790872305
0.11209626095602289
0.11271893131546676
0.11374076780863106
0.11424128187121824
0.11420063308440148
0.1149826928623952
0.11562463973648845
0.11590653778053821
0.11721327536040917
0.11838343599345535
0.11871871369192377
0.11913260699948296
0.12015651196939871
0.1214705779752694
0.12237465897807852
0.12223998272791504
0.12248484020819887
0.12264332756167277
0.12275519720977172
0.12305073978379369
0.12307240129681304
0.12328213077969849
0.12323016192531214
0.12287123905029147
0.12293301953235641
0.1234432171471417
0.12365117017179728
0.12356151346582919
0.12367999316658825
0.12395212546689435
0.12397717665415257
0.12399263594066724
0.12439215641003103
0.12459075066959485
0.1252799242688343
0.12675802424782887
0.12770945692434907
0.1277486320817843
0.1286340777319856
0.13050612307619303
0.13293947481783108
0.13419736549491063
0.13436831324826926
0.13487913764547557
0.1341149208485149
0.1335875525791198
0.1332284733047709
0.13379019182641058
0.13398006222909317
0.13417988938512282
0.13449339647777378
0.13451910200994463
0.1347307448554784
0.13477714935084806
0.1348057725140825
0.13536196627421304
0.13607747117523103
0.13643660760251805
0.13635523938341065
0.1362783385370858
0.1361784166074358
0.13637348821852358
0.13619996214751154
0.1361826142994687
0.13688727939734235
0.13789078972768037
0.13917494414141401
0.13997244499856606
0.13985878485953435
0.14025944316526875
0.13975022914353757
0.1391030759876594
0.13909156993729993
0.13850181657122448
0.1377910129353404
0.13729216498089955
0.13708720509428532
0.1367022104957141
0.13521264296490698
0.1328201762540266
0.1309076907625422
0.13097585535841064
0.13156524567864836
0.13166956106666475
0.13168140437221154
0.1318044391251169
0.13240253164898605
0.13352141321171074
0.13473507205490023
0.1355709694745019
0.13573079936672003
0.1360045292507857
0.13688321663765238
0.13805981993908062
0.13868715619668365
0.13798324082046748
0.1379263314907439
0.138113929904066
0.13806577932788058
0.13880797462305053
0.139300546082668
0.1390868727606721
0.13980622299714013
0.14163535316009074
0.14328326434129848
0.1438762746565044
0.14319558726157994
0.14244663886958733
0.1425813910807483
0.14283055425621569
0.14238931635860352
0.14226100703002886
0.1421805966948159
0.14216015978483484
0.1430903567955829
0.14385002167429775
0.14481029665796086
0.14629488793667406
0.14628490374656394
0.145759680243209
0.14771023883251475
0.14848659318406135
0.14772432017605752
0.14840777206234634
0.14866070009069518
0.14731608803384005
0.14790397670818492
0.14808887293096631
0.14685216380748897
0.14720942886546254
0.14693531463155524
0.14552453354699538
0.1433890476846136
0.1450127548002638
0.1477608198998496
0.1483067555492744
0.14821206954307853
0.14886192561825737
0.14920061835553497
0.14915893170284109
0.14862937771482393
0.14874209333676844
0.1492264730995521
0.14910851654829457
0.14932496594497935
0.1495995061774738
0.1495733212865889
0.14946043492294847
0.1494680873467587
0.14947125249076634
0.14956212120130657
0.14983339161612094
0.15003747596172615
0.14997579329647123
0.1501007475797087
0.15020673555554823
0.15038504569325595
0.15062370697269217
0.15113974433857946
0.15162455331534147
0.15172594055300578
0.15180969040142372
0.15197495316620915
0.15253311348613352
0.1528930367832072
0.1522332111862488
0.15240334217436613
0.15260098180035128
0.15290726214414463
0.1521568752382882
0.15036088528111577
0.14962402009172365
0.1495279351924546
0.14877579257357865
0.14907726862234993
0.15100606387481094
0.15267672604415566
0.15284974813461305
0.15201141722965986
0.1529898666590452
0.15357996503822505
0.1535144341434352
0.1527778142830357
0.15146063306834548
0.15078811151674018
0.15172615617280827
0.15080250865081324
0.14919312712503596
0.15097533009015024
0.15264240477699786
0.15388610024703667
0.15429051239741967
0.15432291090022773
0.15392361535225063
0.15274290338158608
0.15285529397893696
0.1526000093924813
0.15107833536108956
0.1496110966335982
0.14914201153907924
0.1491500209388323
0.14947843669215216
0.14967146367300302
0.1490545279532671
0.14965520563302562
0.1490803269809112
0.14870169590692967
0.14844817123375834
0.14729741566581653
0.14609833456808702
0.1457980121904984
0.14532851188676432
0.14374979513464495
0.14203955203760416
0.1413205820787698
0.1410692732874304
0.14027251209365205
0.13949854251928628
0.13901130425510927
0.13882574589457364
0.13856086131650955
0.1383339063008316
0.1385085891233757
0.13973838929552584
0.14124698497587815
0.1414330981997773
0.14226793750422076
0.14518720695516094
0.14751317540416495
0.1474350368930027
0.14751160864951088
0.14735647231107576
0.1469904514029622
0.14685086876852438
0.1467986718378961
0.1464554706728086
0.14682287062518298
0.14734208215028047
0.146098735940177
0.1444997592130676
0.14246746223652734
0.1414691797690466
0.1416742849140428
0.14160027724690735
0.142012411034666
0.14189989392412827
0.14286307099275292
0.14284341000718995
0.14314304118975996
0.14380726531380789
0.1436634527123533
0.14409949249122292
0.14399155135033653
0.14358781195711345
0.14345608820905908
0.14285689880372957
0.14217387389857322
0.14159484966658056
0.1412129806005396
0.1418820696999319
0.14252017100341619
0.14225700062233954
0.1427364676934667
0.14254653816809879
0.14194775776471943
0.1409912831010297
0.13929709099698812
0.13899021755438298
0.13980581945739687
0.13979988808743657
0.139792064006906
0.1408229340100661
0.14172252400312574
0.14186761513119564
0.14141576272435485
0.1404067315813154
0.14095683047315105
0.14168254025513305
0.141407759077847
0.14227997227339073
0.1430232545430772
0.14246042238315568
0.14154858513735236
0.1408177055977285
0.14030242041684687
0.14079329622676595
0.14112044521374628
0.14084168724250049
0.13989319219253957
0.13937944751465692
0.14006394178140907
0.14100683744065465
0.14122100078966468
0.14019464782206342
0.14032191504724323
0.14221095042768866
0.14307092362316326
0.14265917210839688
0.14376925788354128
0.1449496312858537
0.14588934975909068
0.14654598543653263
0.14570229813689367
0.14394650020636618
0.14226381960557774
0.14216054832329975
0.14310638331109657
0.14338732265634463
0.14291276764357463
0.14256923648528755
0.14306062719086185
0.1434859762340784
0.14374853509711102
0.14352410606341437
0.14294802707619966
0.1427259434852749
0.14228652712423354
0.14078912612516434
0.14065017198445276
0.14012600543908774
0.13898608924588188
0.13689663767581806
0.13717561070341616
0.1378862906852737
0.13786770318634808
0.13889891701750456
0.1384838129603304
0.1382887235796079
0.14125452706823124
0.14438059478299692
0.1437762765935622
0.1438401026208885
0.14624538142234086
0.14571503792889418
0.1432430146425031
0.14344068978214636
0.14574283242924138
0.14679663332412018
0.14644816669635474
0.1463413828983903
0.14660698480904102
0.14633863900089636
0.14613215550314634
0.14696569028310477
0.14709798099240287
0.1469818157586269
0.14713402383960783
0.14758781471755356
0.14818678892916068
0.1487727924878709
0.14890859477920457
0.14887560825562104
0.14910947788273915
0.1494743857998401
0.14973306566942482
0.15025418237783014
0.15060290516819805
0.15022442726185545
0.14974442747188732
0.14940570999868213
0.14945597705431282
0.14939278898993508
0.1488377794623375
0.14806439305422828
0.14778212331235407
0.14872061889152974
0.149812827243004
0.14998449886217713
0.15012252871179954
0.15247075976338237
0.15526301462436096
0.15581784124486148
0.1564638273161836
0.1569324690452777
0.1563136476627551
0.1546902449754998
0.15431962920119985
0.1552134274574928
0.1563062115921639
0.15528167048236355
0.15575158380204812
0.15794548039091752
0.16066937339492143
0.1619884746405296
0.1611758440779522
0.16042979898164048
0.15951855254359543
0.15946861648932098
0.158003474092111
0.15638885873835534
0.15624119353014976
0.15748050698312
0.15803811771795154
0.15883745037252084
0.16137683507753536
0.16283794112037867
0.1619907484902069
0.16193088905420155
0.1611552054900676
0.16046923938440158
0.16091676865238697
0.15963759280275552
0.15892704618163406
0.15963828460080548
0.15942105571040885
0.15924048822140321
0.15895541463745758
0.15904303100658582
0.15909562533255667
0.15919306200463323
0.15982749740360305
0.16044289184035734
0.16055312586249784
0.16037041425006465
0.16064690314233304
0.16142268526367842
0.16158367279917002
0.16153995853615924
0.16174312938237562
0.16196939293527976
0.1624341965839267
0.1628365238918923
0.16278097084490584
0.16185505569214
0.16085982899181545
0.16085505495546384
0.15939171006903052
0.15731984919402747
0.1562634319299832
0.1565488097630441
0.15604748557554557
0.15593977514654397
0.15605771069414914
0.15609734144760296
0.1553719251928851
0.15407580599188805
0.1530482650292106
0.15282299438724295
0.1531731209391728
0.15229054600698874
0.15167524419957773
0.15130289963213728
0.15082887282129376
0.15024907710962
0.1499440346751362
0.1496134910895489
0.14867176097352058
0.14814915273571386
0.14761782847577706
0.14671437072334811
0.14657108404440805
0.14624710008967667
0.1460734452214092
0.14592257156968116
0.14591882151085883
0.1466858038608916
0.14729380676290021
0.14721213306067513
0.14773812498664485
0.14824867359129712
0.14828286901582033
0.1490308797126636
0.15013772399164738
0.15049799347529189
0.15152322340989485
0.15331250994931905
0.15479493458522484
0.15452985004754738
0.15378069369355216
0.1538185493648052
0.1542620038986206
0.1534701930359006
0.1522137243580073
0.15274260435486212
0.1536705389781855
0.15495432203402743
0.1548082823702134
0.15403560998151078
0.15439312204485758
0.15404718241421506
0.15345971021102742
0.15339025292778388
0.15301795397652312
0.1525539229856804
0.15262058314634486
0.15208668503910303
0.1511322676553391
0.1502449994115159
0.14993867525830865
0.1497019973746501
0.1488521808781661
0.14765647983178495
0.14675848567159847
0.1468545734672807
0.1461367818969302
0.14452594889095052
0.1430265100975521
0.14287528792396187
0.14221889565233142
0.14000292982440443
0.1379052254743874
0.13716944222571328
0.13743542621377855
0.137762465744745
0.13803260647691787
0.13778440796071664
0.13824144271435215
0.13986740661785008
0.14177429515169934
0.14311229534912853
0.14320041910978035
0.14304283418226987
0.14376457270700485
0.1447227186989039
0.14510566120268778
0.14444330613594503
0.14378284635487945
0.14418196617858484
0.14366374421399086
0.14371451784390957
0.14284875623881818
0.14262440497754142
0.14144164943834767
0.13982803898397833
0.13855276617920026
0.13750360424397512
0.13682564711431042
0.13580978034762667
0.13230523288715632
0.12896011923905462
0.1286421641963534
0.12773510583443567
0.12553326675901189
0.12362312053795904
0.1233749013626948
0.12208967602811754
0.11942836706293747
0.11761665302561596
0.11755086631746962
0.1173453665105626
0.11705348570365459
0.11674846420995891
0.11628538181772456
0.11541069666389375
0.114922805884853
0.11473458569962532
0.1146123489108868
0.11430088527034968
0.11378187330905348
0.11326096655102447
0.1131599467038177
0.11320417682174594
0.11305337901227176
0.11268556790659204
0.11230628125136718
0.11181656702654436
0.11149498785613104
0.1116321947495453
0.11153096292866393
0.11162456739228219
0.11205728427274153
0.11254559357417747
0.11278184018097819
0.11275367100257426
0.1126310286205262
0.11178414067951963
0.11041033456800506
0.10986382698640228
0.10992047382052988
0.10788561485242099
0.10529376913560555
0.10522910984931513
0.10427540251752361
0.10358886675909161
0.10338063338771462
0.10338484458858148
0.10206061935052275
0.10020429546711966
0.09907921620411798
0.09899778983788565
0.0975592061295174
0.0949698695843108
0.09200229687383399
0.09019387745298445
0.09011600535130128
0.08978419723454863
0.08993237522197887
0.09015887172892689
0.09008123675361275
0.0892289700708352
0.08757986100390554
0.0856770324637182
0.08491673064185307
0.08391255432041361
0.08137458672514185
0.07951211277628317
0.07962386589497328
0.07852056617615745
0.07805856664199382
0.07789314141962678
0.07742287411121651
0.07739914366276934
0.07684667163295672
0.07609230105532333
0.07562737794360146
0.07554835341870784
0.07557758384151385
0.07537579508498311
0.07517684140708297
0.07519986540311947
0.07472670220071449
0.07411896406672895
0.07384688624413684
0.07369033341063186
0.07310632328968496
0.07231648077722638
0.07206663993420079
0.07207292986568063
0.07189174999948592
0.07159436095040292
0.07114627146627754
0.07065972368465737
0.07038996202405542
0.06996566756628454
0.06915263261413201
0.0683047942793928
0.06834920283174142
0.06726269442588091
0.06580585730494931
0.06508588373661041
0.06513741777511313
0.06515856841579079
0.06493747401982546
0.06477997321402654
0.0647369254520163
0.06481877426151186
0.06458829837385566
0.06403056452982128
0.0635693725082092
0.0636151485494338
0.06334264314733445
0.06317291772691533
0.06322364724008367
0.06319249334046617
0.06300463719060645
0.06303208851022646
0.06302284269593655
0.06311779415933415
0.06319834619294852
0.06308967288350686
0.06300903148017824
0.06298843200318516
0.06297440372873098
0.06310249055735767
0.06279563069576398
0.06197093632305041
0.061057356621604414
0.06075755745405331
0.060184732680208984
0.058975326276849954
0.058297802277375015
0.05755966174649075
0.055939485302660616
0.05534838617080823
0.054063426326029
0.05185775378951803
0.050374523825012146
0.05002231331076473
0.04987101025413722
0.04931812779977918
0.048633013796061275
0.048250467730686065
0.048426807553041726
0.047889836325775835
0.04664171033073217
0.04513386884704232
0.04403957881266251
0.043951139163691554
0.04345378176076338
0.0428578117582947
0.04267042017076164
0.04267590417293832
0.04271272940561175
0.042725894653704015
0.042716844114474954
0.04268569754902273
0.04264194619143382
0.04264567229198292
0.04267475185450167
0.042646226442884655
0.042686851830221716
0.0427005634829402
0.04253393514547497
0.04229042045073584
0.04203379353741184
0.04172815721714869
0.04130534076597542
0.04077231547795236
0.040266298537608235
0.03993428769754246
0.03975121321855113
0.03956497879931703
0.03928140153875574
0.03890181777998805
0.038630457469262185
0.038282677535898986
0.03694922969443724
0.0349077538237907
0.03302007952705026
0.03173507812200114
0.03128610439831391
0.03103245657403022
0.030054714484140276
0.029033026350662114
0.02835972524015233
0.02791603370802477
0.02752711093984544
0.02723137747729197
0.027084179995581506
0.02703126238193363
0.026999731180258096
0.026987041383981704
0.027053696166258304
0.026999053123872727
0.02701020771637559
0.026979553163982928
0.026952992759179326
0.026923688123933972
0.02701179761905223
0.02668540666345507
0.025975817067082973
0.025254126850049942
0.024902537150774152
0.024875124893151225
0.024673956083133816
0.02456593471346423
0.02456996005261317
0.024606352981645613
0.024634452483151107
0.02463747051078826
0.024643967335578054
0.02471957259811461
0.024719031848944722
0.02482298268470913
0.024980577484238892
0.025075542777776717
0.0249488281365484
0.024788776808418334
0.024670591591857374
0.024643504347186537
0.024616439556702972
0.02448183480184525
0.024303658590652047
0.024248618602287025
0.02412345679709688
0.02387278076959774
0.02374051319435239
0.023705707222688943
0.023770018506329506
0.023560437243431806
0.022919228584505617
0.022273733126930893
0.02197006992297247
0.021855035764165223
0.021517558391205966
0.02129227858968079
0.021271871805656702
0.02105156472418457
0.020330641625914723
0.01974250760860741
0.01952494925353676
0.018871184394229204
0.018618564263451844
0.018527094856835902
0.018529115116689355
0.018193608913570643
0.01779181856662035
0.017533422962296753
0.017466200506314634
0.01756168876308948
0.017664079423993825
0.0176653642533347
0.01755717783002183
0.017470988668501376
0.01750259877415374
0.017410492703784256
0.01720449933549389
0.016934458110481502
0.01665452400688082
0.016422870228998365
0.016243071551434694
0.016213393963407725
0.016144686210900545
0.016049409434199333
0.01606694797985256
0.015952356290072203
0.015859901306685062
0.015916499665472657
0.015824296905193477
0.01576212003827095
0.01563272033818066
0.015676270702388136
0.015753820140380414
0.015754963723011314
0.01576100708451122
0.015810124571435154
0.015835500622633846
0.01584623914444819
0.015808388777077197
0.015579081655014307
0.015255306824110448
0.01501354725798592
0.014951751045882701
0.015009529790841043
0.015100601275917143
0.01521696062758565
0.01527076194761321
0.015170077988877893
0.015011766352690756
0.014969821281265467
0.014983238226268441
0.01502794594038278
0.01502528109587729
0.015043662274256348
0.014984842180274427
0.014983632338698953
0.014955864241346716
0.015017486184369773
0.015140169530641288
0.015136463958770037
0.0151176106184721
0.015111173081677406
0.01508538964902982
0.015119404229335488
0.015179049004800618
0.015173363166395575
0.015163468320388347
0.015225838634651155
0.015318768173456192
0.015348044838756323
0.015352335097268223
0.01534777054330334
0.015327927526086568
0.015301290233619511
0.015302079091779887
0.015289303327444942
0.01518503374652937
0.015030648068059236
0.014937580467667431
0.014936082425992935
0.014910740975756199
0.014793403225485235
0.014660215298645198
0.014583843685686588
0.014563166594598442
0.014589463293086738
0.01465653970837593
0.014742190837860108
0.014840321654919535
0.014961425219662488
0.01503077566390857
0.015119474630337209
0.015228262753225863
0.015300440264400094
0.015327300890348852
0.015338102478999645
0.015345387212000787
0.015317870525177569
0.015249578468501567
0.015172766854520887
0.015085857277736068
0.015036364588886499
0.015001926810946316
0.014968788109254092
0.014951224552933127
0.014957201448269189
0.014957964639179408
0.014861245425418019
0.014762550070881843
0.014715692561585456
0.014737052447162568
0.014770080919843167
0.01478647384326905
0.014772289430256933
0.014755270869936794
0.014698220337741076
0.014693832150660455
0.014721702223178
0.014701642296276986
0.014657728881575167
0.01457865720614791
0.014476630645804107
0.014379155298229307
0.014291886012069882
0.014232055998872966
0.014211146363522857
0.014232564617414028
0.014256658719386906
0.014254661614540965
0.014279190010856837
0.014408724789973348
0.01457525755977258
0.014643961959518493
0.01462251401040703
0.014603458200581372
0.014606825958471745
0.014597651604562998
0.014700666861608624
0.01467745212605223
0.014539218798745424
0.01442651541903615
0.014293004286009818
0.014191360727418214
0.014078018013387919
0.013996509092394263
0.01399896495975554
0.01406396649312228
0.014133700195234269
0.014210989316925406
0.014313940592110157
0.014415288791060448
0.01450324539327994
0.014574533868581057
0.014696361352689565
0.014787321570329368
0.014856099020689725
0.014938846426084638
0.014902180742938071
0.014870910632889717
0.01490783448331058
0.014924416141584516
0.0148444376536645
0.014893168956041336
0.014911753525957465
0.014809812009334565
0.014690011830534786
0.01464590742951259
0.014643868468701839
0.014661542512476445
0.014699643368367106
0.014710463441442698
0.014676535672042518
0.014697213645558805
0.014629068411886692
0.014442104317713528
0.014335493505932391
0.014309127773158252
0.014276236076839269
0.01424519780324772
0.01422452714992687
0.014185566972009837
0.014076597902458162
0.013934785411693155
0.01392525285249576
0.013842217565979809
0.013809161770623177
0.013728144732303917
0.013616073774173856
0.013561090340372174
0.013573600717354566
0.013654032698832452
0.013703969402704387
0.013756212419830263
0.013836436928249896
0.013845895526465028
0.013817031434737146
0.013731054530944675
0.013581300801597536
0.01350788993993774
0.013524454683065415
0.013517415134701878
0.01353371536359191
0.013532004542648792
0.01354310076450929
0.013647844693623483
0.013808107068762183
0.013955434188246726
0.014056559621822088
0.014078949757386
0.014038166308309882
0.014006002312526107
0.014048619973473252
0.014172636019065977
0.01426904228515923
0.01429955824976787
0.014322145935148
0.014294222046155483
0.01422351402696222
0.014127977273892612
0.01405715845990926
0.01405723875388503
0.014037152626551688
0.014038460401352496
0.01402392445364967
0.014014868340454996
0.01396670210408047
0.013931531354319304
0.013989433844108135
0.014082397664897144
0.014103423275519162
0.014243516672868281
0.014273231045808642
0.014292205446399748
0.014351503755897284
0.014376098804641515
0.014314740980044007
0.0142345907445997
0.01417571807280183
0.014177382162306457
0.014241343655157834
0.0142933239066042
0.01427938014967367
0.014246398226823657
0.014192311156075449
0.014101877314969898
0.013953942875377833
0.013786489276681095
0.013754757025744767
0.013893855051137508
0.014081773825455456
0.014209452627692371
0.014282488524913787
0.014366320520639419
0.014493265631608665
0.014616656354628504
0.01466118214884773
0.014607152745593339
0.014497630442492663
0.014402752369642257
0.014386284779757261
0.014312928044237196
0.014205202483572066
0.014176032566465437
0.014156080489046872
0.014113821000792085
0.014109759461134672
0.014125124386046082
0.014115088565740735
0.01406135541619733
0.014000406274572014
0.013913198132067919
0.013882828517816961
0.013880050054285675
0.013859356748871504
0.013822479064110667
0.013778146700933575
0.013758287203963847
0.013787162979133427
0.013791244188323616
0.013831622928846628
0.013880649195052684
0.013864215933717788
0.013931819722056388
0.01398260406218469
0.013906122215557844
0.013881370082963258
0.013778600646182894
0.013787050296086819
0.013856791949365288
0.013911858755163849
0.013897418624255807
0.013829553159885108
0.013765473971143366
0.01372594034532085
0.013697693380527199
0.013675768550019712
0.013670353053603321
0.013674397671129554
0.01365844659972936
0.013618760691024363
0.013609140194021166
0.013566399235278368
0.013467628497164697
0.013332597056869417
0.013238756095524877
0.01324506911681965
0.013311260298360139
0.013401298671960831
0.013489266561809926
0.013591924887150527
0.013663029435556383
0.013654354983009398
0.013648198656737805
0.013722907316405327
0.013776668945793063
0.013806013371795416
0.013761567298788578
0.013734783311374486
0.013700527967885137
0.013733832701109349
0.013761032167822122
0.01374685178976506
0.013726502999197691
0.013726355859544128
0.013736370636615902
0.013754626254085451
0.01376261007739231
0.013777630883269013
0.013825170116033405
0.013852158666122705
0.01376085058785975
0.013614324273075908
0.013572829863987864
0.013621847436297685
0.013650533745530992
0.013629020845983178
0.013597754931543022
0.013510015092324466
0.013432576430495828
0.013420205551665277
0.01338526262436062
0.013411319444421678
0.013409183963667602
0.013424157497938722
0.013432748327031731
0.01340286001097411
0.013324890525545925
0.013241744255647064
0.013205564559902995
0.01321273636771366
0.013243040735833347
0.013270679090637713
0.013251892640255392
0.013182492204941809
0.013116506612859666
0.013080967529676855
0.013038573288358748
0.013035065217409283
0.013030736101791262
0.012914063388016074
0.0127806776156649
0.012782922966871411
0.01268929310142994
0.012621356253512205
0.012625550883822143
0.01262144644279033
0.01255787986330688
0.01249249945860356
0.012460549557581545
0.012449927798006683
0.01245370605494827
0.012483102278783917
0.012545822001993657
0.012631992101669312
0.012700164138805122
0.01271612921031192
0.012715971653815359
0.012743971436284482
0.012789531180169433
0.012749842095654457
0.012668484237510711
0.012632017959840596
0.012632006162311882
0.012629503821954132
0.012656353747006506
0.012756078005768359
0.012869648339692502
0.012903617762494832
0.012860297427978366
0.012809542573522776
0.012805990283377469
0.012863842805381864
0.012955117081291974
0.012989493436180055
0.012938267646823078
0.012900868409778922
0.012909891724120826
0.01303197444882244
0.0130782236228697
0.01312369744759053
0.013236101614311338
0.013302558169234544
0.013331915615126491
0.013290615400765092
0.01318437305279076
0.01303721924778074
0.012868505958467722
0.012765960316173733
0.012813410384114831
0.012939933931920677
0.012971719775814563
0.012869315769057721
0.01277136400807649
0.012781510087661445
0.01283828902989626
0.012845146229956299
0.01284689429216087
0.012833117458503693
0.012817468531429767
0.0128326409147121
0.012834813098888844
0.012878955558408052
0.012909205683972686
0.012886055763810873
0.01288171200780198
0.012905579963698984
0.012905032536946238
0.012830759081989527
0.012727138991467655
0.012658221935853363
0.012630383952055126
0.012645693561062217
0.01269723565550521
0.012731811786070467
0.012742158563341946
0.012780589815229178
0.012826068634167314
0.012850001510232687
0.01282812090124935
0.012768436269834638
0.012717511642258615
0.012732323629315943
0.012766979010775685
0.01279767171246931
0.012800237280316651
0.012840910304803402
0.012898149248212577
0.012918851771391928
0.01289571816334501
0.012853579067159443
0.012828050348907709
0.01282676329370588
0.012815998196601867
0.012761797604616732
0.012687123219948263
0.012655010134913026
0.01267187308287248
0.012664556836243719
0.012643251256085931
0.012674353434704244
0.01267503893468529
0.012707559627015143
0.012764652303885668
0.012805903870612383
0.012810253044590355
0.012762511200271547
0.012693655495531857
0.012676950541790575
0.012760295697953552
0.0128725218703039
0.01298320556525141
0.013013345308136194
0.01302373076789081
0.013079126405064017
0.013162823240272702
0.013222055733203888
0.01320717894937843
0.013126628582831472
0.013085184118244797
0.013034752325620503
0.012991753430105746
0.01297365801408887
0.012884361252654344
0.012859725693706423
0.012928106321487576
0.012872880641371012
0.012870676363818348
0.012758865498472004
0.012579989568330348
0.012434724043123424
0.012414234096650035
0.012486277986317873
0.012551278262399136
0.012580506186932326
0.012589656729251147
0.012581181796267629
0.012580745709128678
0.012541022417135537
0.012475520251318812
0.012458044516388328
0.012455821901094169
0.012457916554994881
0.012454180924687535
0.012453250556718557
0.012436383382882922
0.012393887436483056
0.01236970283323899
0.012358477213419974
0.01233422172954306
0.012308795310091228
0.01231889262329787
0.012365478223655373
0.01241607980336994
0.012427081977948546
0.01237468990497291
0.012319328465964645
0.012333231901284308
0.01230391495861113
0.012324331204872578
0.012292165912222118
0.012249165584798903
0.012246059603057802
0.012264968701638282
0.0122703915880993
0.012260655348654836
0.012242035157978535
0.012225229854229837
0.012225347058847546
0.012247939771041274
0.012244912646710873
0.01219167586416006
0.012149030328728258
0.012159937846008688
0.01219280517892912
0.012233626819215715
0.012319131263066083
0.012378127020783723
0.012390818318817765
0.012390440728049726
0.012383050115313382
0.012383448465261609
0.01234442898305133
0.012302059119101615
0.012289329699706286
0.01231186291668564
0.012324531264603138
0.012314696067478507
0.01231155838817358
0.012319450723007322
0.01230724728666246
0.012248140524607152
0.01216849593212828
0.012123126252554357
0.012121086604893208
0.012121984919067472
0.012103110908064992
0.012096504557412117
0.01209485825151205
0.012038625970017165
0.011996579964179546
0.01200635331682861
0.012010479299351572
0.012058738181367516
0.012106593973003328
0.012153913469519466
0.012221588995307684
0.012275203648023307
0.012258160107303412
0.012194370825309307
0.012166643375530839
0.01221353946486488
0.012274141646921635
0.012275414336472749
0.012236640064511448
0.012235137776006013
0.012294048827607184
0.012338064222130924
0.012304877229034901
0.012258664607070386
0.012259179328102618
0.012269405294209718
0.01226034967461601
0.012270073983818292
0.012272008436266333
0.012264602871146052
0.012207813791465015
0.012158508240245282
0.01215560797136277
0.012180500091053545
0.012200042826589198
0.01218638285063207
0.012112544311676174
0.01201039333594963
0.01198482270585373
0.01204217341961339
0.012058238780591637
0.012016144995577634
0.011883521515410394
0.011825568010099232
0.011775771777611226
0.011674417164176703
0.011594132115133106
0.011567646546754986
0.01155989675782621
0.011559015545062721
0.011557372577954084
0.011576934976037592
0.011589101769495756
0.01152000626316294
0.011382400966249406
0.011306552779860795
0.011343360764440149
0.01136843420099467
0.011284475012216718
0.011176234765443951
0.011158956591971218
0.011184015211183578
0.011196018203627318
0.011205254220403731
0.01121354197151959
0.011218192900996656
0.011201095059514046
0.011183765036985278
0.011182413117494435
0.011172100568655878
0.011194651604164392
0.011207986318040639
0.011248160626273603
0.011305820136331022
0.011337538477964699
0.011318159138318152
0.011244583097286522
0.011148899868130684
0.011097420130390674
0.01111462251516059
0.011158951993566006
0.011200869434978812
0.011243593378458172
0.011252576813567429
0.011266083978116513
0.011260379711166025
0.011273771689739078
0.01126406209776178
0.011232250854372978
0.01125691935652867
0.011297554846387357
0.011343209443148226
0.011349330921657384
0.011292876047082245
0.011222182093188166
0.011203482693526895
0.0112219023052603
0.011216801018454134
0.011189118130132555
0.011191405255813152
0.011233034499455244
0.011261163328308612
0.011248988762963564
0.011256555877625942
0.011224956628866493
0.011225372853223234
0.01119786902796477
0.011141153799835593
0.011081981193274259
0.011031222853343934
0.0110465774894692
0.01108174205524847
0.011063701543025672
0.010992341488599778
0.010941527273971588
0.010936251131352038
0.010920343261677772
0.010862524840049445
0.010798637033440172
0.010766362645663321
0.010763699042145162
0.010771423766855151
0.010776200434193015
0.010770158979576082
0.010784778539091348
0.01078629495576024
0.010789862619712948
0.010745333204977215
0.010638682041317224
0.01057250716490671
0.010613844278268517
0.010708805657923221
0.010799959984142333
0.010874613747000694
0.010929137866478414
0.010960528661962598
0.01096342907520011
0.010933457755018026
0.010892154951579868
0.010884264919441193
0.010929128972347825
0.01098672473570332
0.011012405115179718
0.011019764782395214
0.011006148280575872
0.011001259519252926
0.01098824862157926
0.010983026686590165
0.010994283403269946
0.010989867520984263
0.010966837117448449
0.010915749110281467
0.010885206125676632
0.010867900678422302
0.010833091852255165
0.010779730039648711
0.010733675642404706
0.01070538534084335
0.010703695970587433
0.0107484938390553
0.010815434700343757
0.010852729219477624
0.010870084948837757
0.010839026006869971
0.010814213242847473
0.010811358448117972
0.010811734590679406
0.010816044639796019
0.010825907727703452
0.010865345965139567
0.01094088661018759
0.01099234438035637
0.010963211304042488
0.010874063866212964
0.010814454916398972
0.010831439578905701
0.010876650747377425
0.010884791805874556
0.010847649853676557
0.010791241151746362
0.010740962596610188
0.010723082919139416
0.010740294384304435
0.010756659023463726
0.010758615853264928
0.01077202077023685
0.01080326228402555
0.010837157871574164
0.010865086058620363
0.010885922021698207
0.010894829470198602
0.010868296457920224
0.010796210730914026
0.010712800004985184
0.010655548716895282
0.010630497408565134
0.010633114308584482
0.010671801611315458
0.010736350954975932
0.010768424004781991
0.010735406375024467
0.010695916472468526
0.010705051671247929
0.010730688243638724
0.010732421029824763
0.010730234419461339
0.010731086775194854
0.010726745729334653
0.010729454383254051
0.010687227002345026
0.010668183874804527
0.010695791211910546
0.010768502224236727
0.010823201187886298
0.010810153912752868
0.0107668465282768
0.010745285951998085
0.010738503369502723
0.010718966976273805
0.010682436982169747
0.010636402594391256
0.0106040146574378
0.010611859306227416
0.010634112518746406
0.010638763040769845
0.010630332622677088
0.010625998936593533
0.010621666002552956
0.010606424596626312
0.010604096516035498
0.010582657144404949
0.010528997611254453
0.010485086489934474
0.010474118883721531
0.010470892314333468
0.010469528543762863
0.010496840206906199
0.010543331436347217
0.010563133822288365
0.010550196412950755
0.010534598377998918
0.010536988847889006
0.01057189904851839
0.010622719910461455
0.010639603342860937
0.01062388510676101
0.010630107407923788
0.010649512109812348
0.01068355718627572
0.010687813917174936
0.010676829956937582
0.01067810225766152
0.010668627521954476
0.010628095245920122
0.010596146448515356
0.01059312721947208
0.010586357864085585
0.010577257457189262
0.010602167437318712
0.01065047969808802
0.010688288817182184
0.010728129986673593
0.010807143948040903
0.010901807348709554
0.010963746118359268
0.011012957799248397
0.011015234761871398
0.011008738749660551
0.011009140592068433
0.011012464514933526
0.01098960256902501
0.010922103724442422
0.010879350532777608
0.010845292948652059
0.010799094301182777
0.010746646265033633
0.010722577378619463
0.010742972996085882
0.010775892396923155
0.01077962449286133
0.010748662818223238
0.010705017545260489
0.010669521670788527
0.010665138200856746
0.010648176020476968
0.010668834398966282
0.010646131024695932
0.010619251867756247
0.010614893415477127
0.010628167875111103
0.010595109316054731
0.010507624596357346
0.01042374583426863
0.010385426848661155
0.010365267873276025
0.010321214457508176
0.010267456581350415
0.010242714113555849
0.010249914564192296
0.010255301115103066
0.010231388271786273
0.010208991053514183
0.01024668022757396
0.01027172668837011
0.010310756475664675
0.010361534471157938
0.010437828097492457
0.010515421943273396
0.01055614926852286
0.010569401942193508
0.010543899957556278
0.01051288434304297
0.01049262926215306
0.010483958690892905
0.010458797654137016
0.010405281144194305
0.010365863016340881
0.010377210385631769
0.010424344243947416
0.010468726356048137
0.010499416135717183
0.01053883166750893
0.010588404345326126
0.010625784462317824
0.01060668908059597
0.010589849662501365
0.010615215278230608
0.010660690979566425
0.010693754833191634
0.010699783028103411
0.010660526221618056
0.010583403799682856
0.010500632687471806
0.010453941114246846
0.010442323824390769
0.010416535253170878
0.010360327658709138
0.010320018753409385
0.010323388015385716
0.010339496466331184
0.010341175862122328
0.01034287339542061
0.010368511413689703
0.01042580696521327
0.010494251456111669
0.010557048451155425
0.010581204995978623
0.010550049981102348
0.010512997766491027
0.010537021046038717
0.01059560134075582
0.01064915873343125
0.010648526172153651
0.010625899026636035
0.010608860296197236
0.01058039945550263
0.01052180307218805
0.01045144310221076
0.01038618724560365
0.01032947440398857
0.010309235646855087
0.01034763439092785
0.010419053458608687
0.010478440197184682
0.010490860955324024
0.010486712926067412
0.010510224218014627
0.01055469392798841
0.010578892037738114
0.01055562331341207
0.01051107476465404
0.010482816891744733
0.010459718145430088
0.010411736336536706
0.010366332379635423
0.010290652487892658
0.010202292376197875
0.0101150112436153
0.010080291859339922
0.010127007947303354
0.010216744195204228
0.010287861090619117
0.010317010844592005
0.010320695450063795
0.01032283494481817
0.010337535154540091
0.010360920652747154
0.010371236715000122
0.010353081712964922
0.010313922956120223
0.010273821516893804
0.010253134917002171
0.010251995641738176
0.01024031066102907
0.010201861066743732
0.010161396251060068
0.010136486485134811
0.010105667610187084
0.010050745771732181
0.01001114742597565
0.010049033898394556
0.01013962818076834
0.010200051895808429
0.010239195777103305
0.010318747847341
0.010382872568443417
0.010397219925653189
0.0103557198215276
0.010300222258083523
0.01031244901707396
0.010301948527339845
0.010239412169903516
