0.010335047938860953
0.01026448308955878
0.0102080466481857
0.010204903604462743
0.010225274277618155
0.010244434346677735
0.01025728540145792
0.010257457315456122
0.01025372115895152
0.010259528615279123
0.01026042052428238
0.01024055999936536
0.010219399821944536
0.010215228302404284
0.010224166729021817
0.010255738366395236
0.010320066821295769
0.010383027535863221
0.01040254391846247
0.01039230174268596
0.01039133121492341
0.010408586878329516
0.0104313887108583
0.010445223798742518
0.010442593967309222
0.010431924528675154
0.01042240664246492
0.010407984219491483
0.010390296494588256
0.010387770598754287
0.010391668145311997
0.010369472613092512
0.010327572997193784
0.0102965305687394
0.010271760529140011
0.010230089790420607
0.010177914822706953
0.01014594672131352
0.010142042306251825
0.01014174833195284
0.010130454088794068
0.010115755634615198
0.010104620198253542
0.010098983374191448
0.01010082554188557
0.010102602242259309
0.010088382846442983
0.010070966791827231
0.01008338610525243
0.010110087702050805
0.010115018213400617
0.010116471922956408
0.0101354453607928
0.0101466095703654
0.010143001928227022
0.010150940734893083
0.010164920644601807
0.010151608096202835
0.010111929405247792
0.010086189717985689
0.010096844268264248
0.010115622109733522
0.0101075856317766
0.010078018375206738
0.010052304301643744
0.010038503953255713
0.010018863484729081
0.009981878099497408
0.009953074604272843
0.009957587228855118
0.009981083155144005
0.009995471228612586
0.009989217376569286
0.009975127711659298
0.009978276136098429
0.01000277403742075
0.010029623737791553
0.010048011284088715
0.010058444051537663
0.010056978131178767
0.01004455988877453
0.010033524193568155
0.010025162232341244
0.010010528485290706
0.009999463229905813
0.010005173288518562
0.010016552415909246
0.010028664140263573
0.010050090469885618
0.010061514695407822
0.01003718493389897
0.00999069721554406
0.009954035405535251
0.009944173007970675
0.009954292069887743
0.009961974492762237
0.009953444066923112
0.009936005148338154
0.009925980259431526
0.009928941316902638
0.009932297668419778
0.009926976088900119
0.00993319223402068
0.009966225067619234
0.009992276813136414
0.009979506529634818
0.009959748781984672
0.009975716628832742
0.010000822755973787
0.009976019595051185
0.009906590591417625
0.009857267880579456
0.009856016621924937
0.009871988515369594
0.009888842743821442
0.009912016961025075
0.00992210534401238
0.009906707390910015
0.009893175441538915
0.009904824193799868
0.00992622876772657
0.009932392863556743
0.009929898434784264
0.009940793960122391
0.009966864348389209
0.00998985488084145
0.00998812194680795
0.009955666022142396
0.009908874962711707
0.009870060120010748
0.00985503840376623
0.009876085475552828
0.009924773226957768
0.009959357448387891
0.009959089633775875
0.00995074973674491
0.00994792281766422
0.009931882499950006
0.009889523242600262
0.009830522309057415
0.009791843836428598
0.009798565509263425
0.009829441737383603
0.009842603735160082
0.009829986896365881
0.009803820687811821
0.009781411294825374
0.009789307753089815
0.009829913667635993
0.009856648329878226
0.009832862921757623
0.009791528111090884
0.00977859011851251
0.009773124777711927
0.00973476241226308
0.009689348480897024
0.009696262499783188
0.009755931739928201
0.009809274066938087
0.009822349745081737
0.009819237075280398
0.009826562862144783
0.009831276223994791
0.0098151733528357
0.009795977211324499
0.009799652963411063
0.009817687838803976
0.009829164848197252
0.0098415285453666
0.009867251373361797
0.009887900312896818
0.009881204899866134
0.009858822791138665
0.009849189672386273
0.009860658204415814
0.00988203754881397
0.009899790313793346
0.009901496033417062
0.009883865020237864
0.009859502161853016
0.009845336748985573
0.009849395032506435
0.009866438282188028
0.009882664256729186
0.009892510942881927
0.009897844304796309
0.009890862733591348
0.009872705893358216
0.009865342539269477
0.009876009038416669
0.009882996601518243
0.00986226997571066
0.009812450063182042
0.009759407964302226
0.00973833208438009
0.009755111287813634
0.009773966771317645
0.009772647455101834
0.009771670737536623
0.009790600606938824
0.00983145269798115
0.009882805787492543
0.009913051840849221
0.009907226409995928
0.009890041054459288
0.009884733175858855
0.009885158088291063
0.009869706523604692
0.009834376953076571
0.009814453121507541
0.009839599751867354
0.009873928386950866
0.009865754939382895
0.009832435270072892
0.00982274979003705
0.009834400991676375
0.00982927045901306
0.00980505181592889
0.00979762976639904
0.009813092555850745
0.009823636511573568
0.009822455249959602
0.009817168833687901
0.009810092344414443
0.009811067322734743
0.009821144465822726
0.009828857855172828
0.009832696736557409
0.009827433560276403
0.009807878332212567
0.009794193484121933
0.009797762759262696
0.009798952986020595
0.009796001382637769
0.009790011099539697
0.009778221006272361
0.009749812659574673
0.009728995591867715
0.00974073244491592
0.009762257707770915
0.009764988822862506
0.00976589463185519
0.009791277552722022
0.009833671314409003
0.009871537319850177
0.009901967876357958
0.00993093193275854
0.00993835951667279
0.009903678342234344
0.009858655614079908
0.009839617636753246
0.009832034015562385
0.009822403840953484
0.009827609197236598
0.00984487085021101
0.009849816070636735
0.009844820341095328
0.009849326332332566
0.009864741060882807
0.009881169489817694
0.009891486995620653
0.009893899550661445
0.0098949255712796
0.009903161029797047
0.009915459520416335
0.009920230206334963
0.009915875798324123
0.009909124730620533
0.009901009302120655
0.009891994139179587
0.009887568540871144
0.009894727172795683
0.0099232183303684
0.009966855748789385
0.009993894922081381
0.00999435925274156
0.009994336483068765
0.010001796073047443
0.009997728812741115
0.009985747328028084
0.009996308403788134
0.010027495033573358
0.010039557805284857
0.010031581866787747
0.01003968839533627
0.010059099058853462
0.010061109473463148
0.010049049953231588
0.010038818871835246
0.010031744292937218
0.010025195146445185
0.010022807552013546
0.010027526445919649
0.010034287936287
0.010034257506486028
0.010023682513274252
0.0100089523231145
0.009995076375780627
0.009975951116066426
0.009954594186274335
0.009954151512356475
0.00998558197519742
0.01001980311004445
0.010024541245074943
0.010016014622524381
0.010024092023959383
0.010025485830847175
0.009979200698435307
0.009918715653475374
0.009903242643922568
0.00991348443320021
0.009920737298671156
0.009901651854161173
0.009864794532768428
0.009832372934324667
0.00982231309171766
0.009839326530927792
0.009873612965457142
0.009904099870473146
0.009924087547697127
0.00994548219605349
0.00996845739078708
0.00998247138923034
0.009984489332418888
0.009976596570340916
0.00996762333670631
0.009969361730618402
0.009980896436609328
0.009998422445496544
0.010021068193018436
0.010034957320895046
0.010025271750055253
0.010002960963174701
0.00999273639288731
0.009999014935456216
0.010007010527187958
0.010001573984045536
0.009975644396618008
0.00995057210791856
0.009964468341786414
0.010010297937551513
0.010042035435326398
0.010035207599867136
0.010015828751493245
0.010009322656551377
0.010011608648346737
0.01000740182469599
0.009994899599114433
0.009990717503242194
0.010012510208180175
0.010058629432460293
0.010098267492139712
0.010097448313608766
0.010078734376002103
0.010097552357474343
0.010138409837381915
0.010128553818212822
0.010061902456218377
0.010009228338021784
0.010005967343458906
0.010015936946729198
0.010004670536145567
0.009985234356718138
0.009983251122757792
0.009994148844853043
0.009993789951549844
0.009978101657470689
0.009960751127218828
0.00994032752350904
0.009914891259977594
0.00990090009290725
0.009909086301922799
0.00992798203136772
0.009932222053175793
0.00991522945347242
0.009904541494324803
0.009913845775881782
0.009913039503153413
0.009881405348423869
0.009849566315533593
0.009849730893038214
0.009864362839143723
0.009861820702208207
0.009841880312887952
0.009817830896936356
0.009799300847807899
0.009796974316705018
0.009808284207247197
0.0098232262278907
0.009842578109819443
0.009867213347461075
0.009896602273220196
0.009934190661879257
0.00997273959335871
0.00998843285953626
0.009972341029206291
0.00995584843447432
0.009968806387623772
0.009992349687963724
0.00999253267655149
0.009975734776817262
0.009971055953064934
0.009977334010181948
0.009969244266394527
0.009937795815058053
0.009896222837269306
0.009866647232556716
0.009864937256788836
0.009884863119805232
0.00990295503172092
0.009901073350338265
0.009886507750488818
0.00988662987248972
0.00991183933801949
0.009940008289413526
0.009949969997396692
0.009942874301923438
0.00992525548557751
0.009896724683931097
0.009863318260759115
0.009844944132491946
0.009848772354889661
0.009856305202702061
0.009854640640551224
0.009854822085471823
0.00986394152743742
0.00986704865237698
0.009863610550528392
0.009882088700542226
0.009931229491485283
0.009983946835855023
0.01001649881247431
0.010026206305483357
0.010032934817718341
0.01002723307814449
0.010023495397763326
0.010029697141144425
0.010019691931083798
0.009976123641245067
0.009931660665897653
0.009933606458362191
0.009977955053327605
0.01001161913969554
0.009999869118910282
0.009967232305789366
0.009951753030763939
0.0099552817188669
0.009973043595673517
0.01001359145506285
0.0100642178975977
0.010095694795018062
0.010098760946420952
0.010077229823218658
0.010038020305801183
0.010005676504224539
0.009995244637830183
0.009985228339210152
0.009961609457386658
0.009937571143964305
0.009919347480172291
0.009901592198293657
0.009879309028619901
0.009855243157362565
0.009841487816302105
0.009835568155394867
0.009819087460637093
0.009794946406036615
0.00978639849810861
0.009794671221170574
0.00980336103355512
0.009818152792286127
0.009845160902477801
0.009855461675906554
0.009831057097762823
0.009801246484275907
0.009786532764555886
0.009769009188748895
0.00974566311459057
0.00973756670486182
0.009740656992653385
0.009726767824031413
0.00969401087728329
0.009674115964444355
0.009670487872790545
0.00965079374378547
0.009618379540042951
0.009608394862152637
0.009625193370738997
0.009644697785843164
0.009659367083804682
0.009685981826623901
0.009732519744429737
0.009777137514902279
0.009788710782304406
0.009772828487912192
0.009774274579249322
0.009812714527361094
0.009861619748407975
0.00990327473031357
0.009938427923480049
0.009950783182866872
0.009926616558805107
0.00988799998536706
0.009865397837711499
0.009860880129272118
0.00986281655728817
0.009878168175928294
0.009928950528847054
0.010000622206134721
0.010048451472539455
0.010067139202728868
0.010060689514502882
0.010059087566332892
0.010067563927732408
0.010058626087848098
0.010024059970164671
0.010002017996739596
0.010008952809730545
0.010013329290086404
0.009992330482928082
0.009965485032880679
0.009959892639890312
0.009957747465232387
0.009925799743505194
0.009878150081494824
0.009845627273898571
0.009828679413767532
0.009822099672164767
0.009831864318111911
0.009856498945737258
0.00987622453714721
0.009866327008930966
0.009831184766953811
0.009804069781675934
0.009799765555653721
0.00980878711096011
0.009837539279833435
0.009891593337524682
0.009935214678989723
0.009934816969325766
0.00991699553676881
0.00992784327827394
0.009960322737460956
0.0099754145485349
0.009973723642760888
0.00998493641265668
0.010007881018100306
0.010015835242811591
0.009997706230496988
0.009962933213682846
0.009924072206486017
0.009892187339719385
0.009880367938894779
0.0098865852272138
0.009879549851175397
0.009837286833208054
0.009791295934701339
0.009786342654842883
0.009807717209914699
0.009807265219278634
0.009787287809886039
0.0097910243680235
0.00982390285586007
0.009854467499535531
0.0098745409399271
0.009898382016690448
0.0099243373144418
0.009939698654925451
0.009948939265450462
0.009959925011498854
0.009960841129068285
0.00994230790180154
0.00991853155195713
0.009915271452628075
0.009936123975785449
0.009949238694971427
0.009944945711176843
0.009969358084490523
0.010041063687531278
0.010101511833490805
0.010104625050444157
0.010076771498424932
0.010056049667764456
0.01004628390306607
0.010043699564412235
0.01005550962057896
0.010081009251298383
0.010096012079156936
0.010076310931472108
0.010038546283030882
0.010022617668146267
0.010033533950336277
0.01004468092112802
0.01004754169494845
0.010059758051065728
0.010089665064588188
0.010115029157605022
0.010105916598113253
0.010068353454116732
0.0100455268076621
0.010058395225787536
0.01007777705672197
0.01007647449732758
0.01006911886157468
0.01008247299469076
0.010110470530344173
0.010121238607680424
0.010110684650717303
0.010109235673444345
0.010122179818572476
0.010123940046178177
0.010114304908784106
0.010112769673578442
0.010114913081051781
0.010099398519378156
0.010061663280939683
0.010030423536663875
0.010030018754769117
0.010037791536888108
0.010026215390535071
0.010002827177522704
0.009982317179674283
0.009968827144475653
0.009957730174064636
0.009941993264947087
0.00993516025482677
0.009953441334655509
0.009971060823882
0.00995954248122871
0.009937470477307215
0.009927438662853092
0.009938811955507845
0.00998868326190859
0.010042908388422802
0.010080209579318761
0.010081281082239001
0.01007571979542263
0.01009205773822032
0.010119017236866057
0.010132130472920836
0.01011936700087972
0.010078429124550894
0.010024226579116658
0.009987835306674242
0.009982482220511884
0.009988887847866864
0.009986303772311658
0.009975780901731924
0.009961981060914695
0.0099462721333839
0.009941205228678883
0.009954869067296385
0.009982902999036014
0.010021096690325066
0.010049247272545471
0.01004343222361058
0.010023696452844889
0.01003281404497102
0.010067964745685458
0.010077701383270323
0.010039246026426554
0.009998480740468949
0.009999993884703145
0.0100287009018939
0.010054518652614206
0.01008194271940738
0.01012207865016535
0.01016039801761508
0.010185995935462416
0.010201728593092412
0.010188820458715782
0.010135067168157548
0.010079349124571308
0.010053784240735695
0.010041959924856202
0.010035246232291684
0.010046776878880337
0.010064935697009787
0.01006800887756981
0.0100601038208697
0.010051509893964977
0.010043291611364111
0.010039829965680837
0.010051157760899513
0.010079422759590671
0.01011085783597082
0.010130732710240408
0.01014360658125952
0.010167528400197625
0.01020079111098312
0.010213360410416499
0.010191712626256049
0.01016257629962638
0.010148578407242894
0.010142497617052867
0.010136906956322491
0.01012767217005603
0.010099029428092763
0.010047524035908282
0.009999525947496295
0.009979817144339905
0.009987170075764879
0.010011716851731762
0.010041152857011184
0.010053131290478632
0.010034354870440439
0.009999519755365328
0.009970023605274037
0.009947889783652498
0.009934359511826188
0.00993941247346811
0.009955377947771921
0.009969179985346273
0.009992667293408886
0.010036371337482706
0.010075460355728864
0.010075912622269242
0.010040565612725913
0.010003440477885307
0.009987533253151923
0.009968845013063402
0.00994594085495919
0.00993641913868487
0.009954303265549242
0.009987931062933058
0.010019609986338765
0.010035940710222348
0.010029494313057512
0.010015031269285829
0.010012667203554884
0.010025468019302935
0.010047439428744838
0.010071960283676162
0.01009880263125524
0.010118200940778478
0.01009860414196737
0.010037324655568227
0.009987709830747918
0.009996312317671254
0.010046054903650656
0.010076214786386118
0.010053256725659593
0.010016928430413827
0.010020486931316554
0.010043784934096038
0.01004008412710391
0.010022855293937028
0.010021975127747282
0.01002734559471719
0.010027062394656241
0.010025165922706946
0.010020335335284472
0.010017715754220263
0.010031889143865555
0.010058734773192555
0.01008411924354732
0.010105931727448478
0.010114371147938072
0.010099788792431355
0.010087498927023262
0.01010354866506532
0.010126149842981248
0.01011879124562256
0.010082518311683088
0.010046056883875281
0.010025294903898611
0.010011036740615964
0.009989412659779191
0.009961852676933631
0.009946056318003684
0.009949929335853085
0.009948473505210132
0.009926689051790163
0.009910256331786514
0.009910761268110945
0.009911543767666444
0.009903438328765333
0.009878906016238033
0.00984203240950592
0.009823135252809152
0.009835545035311952
0.009859249456785618
0.009880400164984166
0.009901510023046284
0.0099235364922788
0.009940468113636598
0.009941954400856047
0.009931083478732035
0.00992961723357439
0.009942601101938635
0.009943073098547757
0.009913757994072512
0.009874913204694167
0.009849466935265809
0.009835995231987908
0.009828558594454079
0.009833001090446486
0.00985622342210263
0.009882929811719805
0.009881873189006001
0.00984831569599919
0.009814224138390273
0.009804180281935259
0.009801906663924456
0.009780481711495669
0.009751089357305318
0.009743043453199788
0.009749823171878233
0.00974403954227455
0.009734586614649742
0.009753907939884812
0.009794138933066278
0.009820807244395838
0.009829608028521761
0.00983796753338538
0.009855339085916057
0.009872790483059361
0.009876965194707736
0.009876603686716407
0.009881374365650118
0.009881416782736779
0.009874457902042196
0.00987579211476259
0.009898161245509983
0.009926950809312985
0.009925488320877775
0.009892250270349906
0.009873868096619845
0.009883018641266972
0.009878992397570983
0.009851909986464307
0.009824005734408274
0.009799325101776049
0.009794244115473702
0.009831697824411094
0.009887820748845115
0.009924659475218504
0.009938819254748522
0.009949694835813715
0.009972325700800866
0.0099980796338059
0.010008162041194736
0.010007179623935372
0.010012807936873288
0.010016029743710533
0.009992608282482251
0.009950938026886434
0.00992425830103457
0.009920379834948107
0.009915824093623087
0.009895781936356797
0.009868333698250353
0.00983769235899672
0.009798445544438436
0.009761728539597243
0.00975273885182105
0.0097723854763899
0.009789904257049785
0.009791670414851978
0.009802110861055553
0.009834907329641283
0.009872358614811673
0.009897560791578143
0.00990974462707527
0.009921845224453137
0.009939421765739097
0.00994318032404408
0.009927290313644335
0.00991551042883657
0.009917877827538177
0.009930727039463818
0.009958633728092536
0.009997098603053018
0.010031723655993119
0.010053437573369593
0.010058107140939682
0.010053487441036851
0.010057472767075524
0.010073636980960145
0.010090475225588307
0.010106147286714986
0.01012528756982647
0.010133057810598985
0.010101748628076166
0.010042899708496407
0.009972795004723594
0.009912706301547588
0.009867451252648606
0.009830308285309002
0.009809867778094485
0.009818511439953
0.009846417347434909
0.009867797519546003
0.009884506384842097
0.009911793684586882
0.00992944062803872
0.00992298661149107
0.009928798428736627
0.009972818428650498
0.01002109824330546
0.010031983815133571
0.010010884363437072
0.009980117151280865
0.009942442167084665
0.009908298953669147
0.009905093281995505
0.009931172215146944
0.009951790518825873
0.009958515939069911
0.00997347749187611
0.00999306445592083
0.009994243066757917
0.009979506875388323
0.009965779735939578
0.009956175864208489
0.009946363230701536
0.00993908014614135
0.009943118480732665
0.009965426579583436
0.010001617099624127
0.010049005537293852
0.010076652545249089
0.010082627026131377
0.010086355295497925
0.010083350506611168
0.010061349959578365
0.010046093999408185
0.010057497406378388
0.010060780158964918
0.010024802858242764
0.009977118025999517
0.009958799742162228
0.009963628180557862
0.009959365295944735
0.009948376972461119
0.00995900162612088
0.00998958590440452
0.010010399835882708
0.01000927366549149
0.009999758838675916
0.009999035972869023
0.010009921785676851
0.01001034734537825
0.009982930491678416
0.009957184463273734
0.009967300853459165
0.009993011670885607
0.010005770010175184
0.010019129093270749
0.01004794130451046
0.010079945189645514
0.010110270327422767
0.010144757681991905
0.010161830679280684
0.010136183383874595
0.010093193571083247
0.010081073743058368
0.01011338206473738
0.010164604994934053
0.010192933110520244
0.010176220402354375
0.010145636913366616
0.01015391798922792
0.010199850996723398
0.010234406186500565
0.01023854065220803
0.010237118367804214
0.010253000559750945
0.01028364676516503
0.010307815256528557
0.010310887697851285
0.010305871575837955
0.01031138389138505
0.010324449356412515
0.01033550151041709
0.01033693684847094
0.010319012042600662
0.01028789128526114
0.010258371368981898
0.010227472443366423
0.010194382698973641
0.010175655278144404
0.010175752413924783
0.010186058731051162
0.010205631566932424
0.010228490638546646
0.010244793636957183
0.010262944577261806
0.010286894178716467
0.010298803428886458
0.010303909484064207
0.010331118005560712
0.010371285004075616
0.010391438698861747
0.010389659203356131
0.010379567773779854
0.010362259517423809
0.010341221498092636
0.010337069801753387
0.010361839212710038
0.010394001827808096
0.010408694052603095
0.010410981435561552
0.01042107368237339
0.010443684183992446
0.010462705433601513
0.010470547538716346
0.010481776226079091
0.010503496138844638
0.010518037423025817
0.010507459230720996
0.010478545125806704
0.010439937751507387
0.010390045281965285
0.01035278348485008
0.010352939092554152
0.010372681595617906
0.010393486121902242
0.010423434569966049
0.01046317333704792
0.01049413223285228
0.010505600511096417
0.010501513326307759
0.010475305228028446
0.010427224420709535
0.01039665745687671
0.010409051226451993
0.010428715253947302
0.010420353066874668
0.010397310820408165
0.010382373775355518
0.010382886149454863
0.010397243209881708
0.010399100960930809
0.010361860666889697
0.010314997455570846
0.010303399193799124
0.010317418812774122
0.0103222437039949
0.01031211158959195
0.01030872795265168
0.010324708066182211
0.01034262683824636
0.010340777528472244
0.010322930872207507
0.010308269879315048
0.010303912230301648
0.01029619425535202
0.010280855681048705
0.010283425855450333
0.010310235266806557
0.010331658808281645
0.010349678446073086
0.010391836442286148
0.010443616220727562
0.010474805458215997
0.010486042982665821
0.010485535599291324
0.01047638874151744
0.010477382086683064
0.010508773606270552
0.010547954655485227
0.01054555993177928
0.010499456217512488
0.010455687870271504
0.010437177177518606
0.010434889867901802
0.010438251903979108
0.010433158308733254
0.01041148122982122
0.010382354585453868
0.010352220715722069
0.01031022100825794
0.010247121778083965
0.010199412473011761
0.010164088453166187
0.010133449867134913
0.010099501501535997
0.010076496343826876
0.010081987630110234
0.010098168912809341
0.010103574991226195
0.010112542592687533
0.010154776151757687
0.010215005547506735
0.010268191774375737
0.010295769949443638
0.010311855297768489
0.010331357264658437
0.010342855683993547
0.010336891083279625
0.010316131797153502
0.010291900405427441
0.010268026560079307
0.010234530215384438
0.010196690133307129
0.010176171421771869
0.010168785142013803
0.010145381845068186
0.010104368028696626
0.01007960510556586
0.010085118438582867
0.010098964894423261
0.010106407726416364
0.01011142466799356
0.010118526326259598
0.010129227231955156
0.010135838530259208
0.010127402412472293
0.0101126831502188
0.010113616635790095
0.010131779194343835
0.010142942748498172
0.010135814845561981
0.010127468688879163
0.01012797663337551
0.010130908386781812
0.010138472125399858
0.010158251379616559
0.010183562852907925
0.01019302026135847
0.010171337653882801
0.01013402092270553
0.010115325736114756
0.010129694793140515
0.010159356567310169
0.010175687099108472
0.010169830834493042
0.01016042625415139
0.010162807672750206
0.010161016217898578
0.01013837099657394
0.010113347633741797
0.010105418642051518
0.010108186854049564
0.010114409438101575
0.010122188833775
0.010124837370822206
0.010117062270874158
0.010105185265420005
0.010102009834954516
0.01011013069190085
0.010125877779209987
0.010146291615674272
0.010158646041527391
0.010154713488882408
0.010147187880938872
0.010140338437631726
0.010118872093735264
0.010085825092392042
0.010062202253611758
0.010048108858754859
0.010029839837225154
0.010012882322771475
0.010017716335132718
0.010044884383678437
0.010063401642255485
0.010048432623734697
0.010017686448991299
0.010010843283962458
0.010036111751105636
0.01005699645029381
0.010039924114244059
0.009997389684431255
0.009962032543262467
0.00994118194677867
0.009927125358954072
0.009913777454057708
0.00988891909713857
0.00985351286828518
0.009834556034766137
0.009843836061190814
0.0098574873234611
0.009855234302813187
0.009842828742694109
0.009837514646351337
0.009856824978487565
0.009908962728222831
0.009980314575368538
0.01004343495471403
0.010082030441844836
0.010096657365793363
0.010091881466796621
0.010071311721112579
0.010039120911387726
0.010002178391441702
0.009965690164826811
0.009928072113543749
0.009900717351119965
0.009906649322947486
0.00993349715252407
0.009940342844929546
0.009920938079012558
0.009904319415800273
0.009902899521403014
0.00990523145883344
0.009904893797356635
0.009909288128837943
0.009923146384535357
0.009929436076199637
0.009907269615214319
0.009874272677116096
0.00987171197659336
0.009905783839058132
0.009944484373554587
0.00996588397072628
0.009973042155615985
0.009968660946469754
0.009950476547237486
0.009932827994925902
0.009940716730197892
0.009970901457127184
0.009993817710783332
0.009996929670451208
0.009984043657314033
0.009957365794107317
0.009923452405491844
0.009887359495041891
0.009854152334155515
0.009834813827183098
0.009830291204852983
0.009831481060246006
0.009842563270358368
0.009884903040947392
0.009960431831423193
0.010029493772890419
0.010053998850053177
0.010037898274604232
0.01001177180558443
0.009999746443936601
0.010003610902931542
0.010009177325991913
0.009997089490061626
0.00996422336786054
0.009939644077094271
0.009944350348087027
0.009958798114676029
0.009959544903831557
0.009946122182300314
0.009925408185226843
0.009903550352901221
0.009888753837440162
0.009892038287362084
0.009917029672069476
0.009944915809901431
0.009956408916041255
0.009959837073693053
0.009969422615831718
0.009977555955993011
0.00996850495459512
0.009950144919566811
0.009945630271686242
0.00994449952384457
0.009916393170133233
0.009876548096071929
0.009862687388667836
0.009874072910752147
0.009892033684300259
0.009912496748147532
0.009929041761206464
0.009925006164703518
0.009903150503523648
0.009889383103
0.009890209782170131
0.0098908587556798
0.009893430417869241
0.00990827076486312
0.009927668537711725
0.009941580861341209
0.009955930804135277
0.009976978091290221
0.00999678875436075
0.010012702252715826
0.010041749546071515
0.010072257098508999
0.010103513383073732
0.010108977233758197
0.010095937948208303
0.0100918504584115
0.01009339553071186
0.01008768601110205
0.0100731934804935
0.010050908868433907
0.010024783327244222
0.010000736727379262
0.009983175948727876
0.009977873878087849
0.00998865109286271
0.010011824915418402
0.010033723409287631
0.010043489723466336
0.010053225454175845
0.01008544209995307
0.010136737778084352
0.010178883684566244
0.010193048518849536
0.010179320512106642
0.010155461077811196
0.010149872478796168
0.010166338400449604
0.01017707429593429
0.010166600833181293
0.010149622930912301
0.010146187774371356
0.010162735955091193
0.010181701452238486
0.010181018818402663
0.010174296131590382
0.010186254552099854
0.010202070225495845
0.010193962885532528
0.010173864753451198
0.010171019798144698
0.010178806287003682
0.010177576635032892
0.010180411242181435
0.010200516869081184
0.010217572099063545
0.010209611473837867
0.010179600556148216
0.010153418306726962
0.01015859780018218
0.010179743258049712
0.010173058450454846
0.01013671564636752
0.010102130623999983
0.010083010314265266
0.010079048140905798
0.010085501102730631
0.01009544555330649
0.010116876991232857
0.010154896810417995
0.010186521667055786
0.010193597488105298
0.01018340689712204
0.010167539353715256
0.010157519639469682
0.010161557754036038
0.010176787714008241
0.010197156920330599
0.010217954518739135
0.010238752346485852
0.01026681446004659
0.010304219300160185
0.010324672349961475
0.010288544117938727
0.01022861682693474
0.010187309051398188
0.010204561817226931
0.010237926255213097
0.01027025970746763
0.010311992241768167
0.010342691073892638
0.010342138725100085
0.010329735957784579
0.010327971532242373
0.010338024895172566
0.010348131431965158
0.010334734602365643
0.010287263676291332
0.010235634088749066
0.010219190187053756
0.010244150914950297
0.010286711448570714
0.010315981851890683
0.010317518149968237
0.010300120000028983
0.01028234300436452
0.01028399679576978
0.010300761935068294
0.01029726424254477
0.010268136077793316
0.010249434366123751
0.010248655867762864
0.010245316819055005
0.010241035042563454
0.010237312525277957
0.010217255090828985
0.010186727667460219
0.010166981101501733
0.010152237829752267
0.010130488933064043
0.010112657104618847
0.01011378133785911
0.010133301559835672
0.010160326136974618
0.010190640427172184
0.010220321989618242
0.0102297037653625
0.01021632531657815
0.010212298890110105
0.010230522074270993
0.010242692908504977
0.01022692198632285
0.010202784169232473
0.010207274911226704
0.010243429298279807
0.010270081928465515
0.010256445534760133
0.010230827744817362
0.010236276091309265
0.010263200449990108
0.010273686338914558
0.010249067929107696
0.01020075606997125
0.01016847008257173
0.010182573035126551
0.010231754459673538
0.010280301923630759
0.01029008393525146
0.010251402624417096
0.010204724195646123
0.010193292695330456
0.010214074704563245
0.010242294367635622
0.010266652792925015
0.010286697030533105
0.010303171213017777
0.010318652930436656
0.010337759456597269
0.010357780040940269
0.010369446077384055
0.01036807472584769
0.01035005048965104
0.010315014716470615
0.010275522416923194
0.010249845805810764
0.010247700433246791
0.01026508050505072
0.010294511187821627
0.010329623132711276
0.010355591952102259
0.010364489549538121
0.01037372492137365
0.010393772604875267
0.010404289258876815
0.010392638851189986
0.010379157048882917
0.010381028342526405
0.010384130490710958
0.010375132820336148
0.010369569910690189
0.010374034015694634
0.010369459268404171
0.010359149818541483
0.010366500067757443
0.010386043145554141
0.010394921323750169
0.010392240472137928
0.010394333654548973
0.010412236499832942
0.010442307301564141
0.010466760616982356
0.010472272607730702
0.010466780759161338
0.010463952136924491
0.010459836124209688
0.010439946748083457
0.01040358854457736
0.010365988772828133
0.010341908177360892
0.01034103959798813
0.010371469564270229
0.01042020444292575
0.010446737530874089
0.010429816583637149
0.010385250620311126
0.010337949072709306
0.01030779546010308
0.010290619261795655
0.010263021133141592
0.010233558332547545
0.010237552393227815
0.01026824390515685
0.010285332561470567
0.010293388614663855
0.010329571786569432
0.01037940353155136
0.010390614120988175
0.010358925474574789
0.01032649549539201
0.010323375454172492
0.010349410413764417
0.01037949245190248
0.010392863290617243
0.010398121805628761
0.01039797963690944
0.01037476834258996
0.010335957180941477
0.010311839083442464
0.010302519939141348
0.010278691340936348
0.01022613177774474
0.010163279823027551
0.010121551296906546
0.010118997152894736
0.010148104252293707
0.010174524539615959
0.010175399713916703
0.010174061589641497
0.010191748542711139
0.010209618026856333
0.010207463623955845
0.010182592318160459
0.010142353932606056
0.010086949921678752
0.01005927768885158
0.010058680842630565
0.010052952609257773
0.010041464042151347
0.010044439804041759
0.01005043756798841
0.010045631591929123
0.010050554516492411
0.010071796956472099
0.010081934253685176
0.010080317182000727
0.010098156027961522
0.010134938653791323
0.01016032214043662
0.010165018376428634
0.010160036771558224
0.01015929903718643
0.010175451341783628
0.010197505094110966
0.010205304611008614
0.010206319198478014
0.010207854775944724
0.010198945133015513
0.010186014669016004
0.010183896766975523
0.0101812638330739
0.01016013984219171
0.010135330656776204
0.010143433026969432
0.0101785292068962
0.010193217191845178
0.010183462029090151
0.010181938289897517
0.010183681787457316
0.010166956514585762
0.010141035646665842
0.01012304323608987
0.010110662059159949
0.01010848415782675
0.010142037386540324
0.010186593369580806
0.01022004805272445
0.010209401960019023
0.010185562355909497
0.010159037080593408
0.010117889060638844
0.010076474255183711
0.010052976387087256
0.010032326666405425
0.010008755343733355
0.009998107753926889
0.00999339401605539
0.009987737787887453
0.010003575236769393
0.010044064002577215
0.010076503512682394
0.010079482308356091
0.010058387920726091
0.010034304432338104
0.010036344976397231
0.010073530370136722
0.010119383584242313
0.01014804353006184
0.010168760219821707
0.010200707057956606
0.010231845682719723
0.010233267209259793
0.010210283208871261
0.010201463230187073
0.01021834990591742
0.010240714988904075
0.01026158630149439
0.01027670037932694
0.010271872013108805
0.010247272049309687
0.010221717624226585
0.010219668876379729
0.010237788135418669
0.010239600308705122
0.01021383584011346
0.010186200281605124
0.010174084793543443
0.010174462068825961
0.01017525117029436
0.01016517294337973
0.010151504173409194
0.010162001405842603
0.010209153644973412
0.010263602989725768
0.010288917996222153
0.01028632594854571
0.010279880132293329
0.010278852664632722
0.010279536140151322
0.010286547543946653
0.010297822841675953
0.0102926417614799
0.010274455973412842
0.010270174789475277
0.0102654864161741
0.010224601180525497
0.010156053345417604
0.010090124224079773
0.010043765101581812
0.010028264600550755
0.010041026895632967
0.010061339670792223
0.010075646629557013
0.010089014410041272
0.010108505465323105
0.010134121365845204
0.01016203200793825
0.010181045630015434
0.010183805536944418
0.01018360591842793
0.010188016120810061
0.010187600807985291
0.010196284733247012
0.010229477846296504
0.010253585516475141
0.01023779038223438
0.010205997427692636
0.010185297731077299
0.01016683566267602
0.010149854932678863
0.010163665513973684
0.010217246883548796
0.010274774694116785
0.01030140841146931
0.010303318160586059
0.01030734203872271
0.01032145717414096
0.010341373219853267
0.010369210144272074
0.010392134707653895
0.010386705317068845
0.010364490159554407
0.010356998230563477
0.01035915149608627
0.010346046263584867
0.010326628943439574
0.010329921797383576
0.010352088462095708
0.010354844887042419
0.01032248945091851
0.010285708864685147
0.01027180204517208
0.010273430292727426
0.010272585478378459
0.010260428697802127
0.010242932379478589
0.01023621566593647
0.01024507251335308
0.010255569396540522
0.010252535744803027
0.010233226125128567
0.01020511016715318
0.010175426222849638
0.010143575881375
0.010116968785878271
0.01011836996069178
0.01014412918360904
0.01016076537896879
0.010167699343292043
0.010192571296356619
0.010221115204039961
0.010208331737667322
0.010153657160699367
0.010103756259195507
0.010091339350910857
0.010104250595904887
0.010115677422145381
0.010130206048488617
0.010169153598835691
0.0102221342374105
0.010250816533807666
0.010232491188216954
0.01018923417897895
0.010168108636280522
0.010185878219781444
0.010220171610126273
0.010245664096437394
0.010246133602922782
0.010224504676880315
0.010212499460903928
0.0102323583944235
0.010263547721551731
0.010277223234297708
0.01027632612385787
0.010280540175735951
0.010302628598874436
0.010342221676837652
0.01037404641858302
0.010370674269506708
0.010346223203232512
0.010331359510309994
0.010333644807105883
0.010354663748294114
0.010390812293626367
0.010443917562952265
0.010470942844403908
0.010462514497339726
0.010455202198354527
0.010475394011009484
0.010502593761775642
0.010515751247294248
0.010521319935796782
0.010525503752287477
0.010523681635968387
0.010506262989947572
0.010458177559776231
0.010381953606847674
0.010313792881788686
0.010282103683566675
0.010271052445750684
0.01025864161318168
0.010257096868008376
0.010280716983834282
0.010313461415935308
0.010332623881986365
0.010339505627052858
0.010352818663232028
0.010377410006476566
0.010400140131823719
0.010410795372445136
0.01040928247035481
0.010408035427099093
0.010414818129502236
0.01041326048085466
0.010396778624271973
0.010382759640924633
0.010378887767437846
0.010384757363935933
0.010400226822821424
0.010410348556470127
0.010396327341441065
0.010359222650295123
0.010319700678810478
0.010302826099796221
0.010320389593252911
0.010357431770535186
0.010383861141745
0.010389247434213758
0.010383799372939394
0.010374098443426192
0.010370059057604521
0.010379872579360381
0.010395588075043634
0.010411850553937256
0.010419988966314122
0.010403468074509875
0.010379455582005903
0.010385342193767428
0.010414807603228837
0.01042690642294474
0.010408062232891098
0.010392043152824043
0.01041547310887836
0.010462991144740953
0.010484387311153113
0.010463169565191492
0.01043261575512588
0.010418812471907585
0.010406100664986297
0.010383349600015208
0.010379905522568152
0.010415239456342533
0.010453353945631533
0.010450988037046045
0.010422003620769829
0.010404397379606961
0.010386492647230626
0.010340775701915845
0.010297983353957534
0.010303099590819329
0.010337767581222578
0.01034964381949976
0.010334480813471601
0.010328763448633253
0.01033990377211012
0.01035182774765417
0.010368294258369134
0.010398424282902852
0.010429536936571822
0.01044321667868644
0.010434019742533565
0.010401580458274112
0.010353098005289212
0.010309724181424826
0.010283285612240433
0.010266415019286797
0.010254844552837311
0.01024827798944898
0.010239852260565386
0.010220588118536399
0.010188310684170573
0.010161312397103757
0.010160959133645519
0.010181893378030509
0.010208829439943657
0.010232049961341545
0.01025067477254197
0.010284141396405176
0.010345559440320357
0.0104108082188759
0.010445041968487202
0.010446278570452706
0.010435560126788914
0.010417632358148694
0.01038542272290215
0.010341115675400943
0.01029760047676973
0.010272807453293353
0.010270729798357935
0.010278656297596172
0.010296860941452905
0.010327912878710776
0.01033742363913916
0.010303403758443892
0.010271754170535132
0.010282813830999658
0.010313199105439708
0.010338396579027177
0.010370282793883235
0.010402827912475914
0.010395700273802504
0.010335059858625754
0.010254639750346541
0.010193796175299212
0.010160566966515034
0.010137065120507032
0.010113833533832804
0.010096536681521684
0.010086627135751768
0.010080963452346624
0.010083310946356505
0.010098574712174013
0.010123311729403213
0.010154544652905315
0.010188387056114152
0.010209247840102763
0.010200370819075034
0.01016766762593761
0.010144957343582063
0.010141618917696178
0.010122178181773052
0.010089296199148522
0.010084701548330487
0.01009395982255228
0.010079351854510605
0.010063416816992686
0.010077637387439609
0.010099493057932705
0.010098163712536917
0.010076823476701975
0.010054721926571801
0.010046907169744372
0.010062176487408578
0.01010280052316375
0.010151506863767281
0.010187911099055782
0.010220608304953202
0.010252901515923441
0.01026372586726211
0.010260376570513471
0.010272378982044757
0.010301006026566029
0.010342805833788589
0.010405947532271967
0.010459560285089537
0.010462170784594492
0.010439880311023443
0.010428067531902343
0.01040699838893488
0.010371307603782043
0.010355290040606632
0.010372631946811452
0.01040066446410492
0.010409302486805246
0.010392886709887535
0.01036950435489416
0.010349169912515208
0.010332869795383885
0.010324753461172804
0.010321410739561544
0.010314696748973801
0.01031019604182802
0.010322846871567891
0.0103523099119775
0.010373284230008722
0.010359473301796242
0.010315620156470686
0.010277336641447619
0.01027387588401325
0.010294613202568144
0.010313451364636421
0.010327327764825896
0.010341025011148303
0.01034954380360432
0.010344349218066783
0.010322783781448379
0.010299776437459513
0.01028632685658522
0.010266703646630048
0.010236854902468622
0.010220294076716527
0.010219544538995252
0.010209658864187076
0.01018550890032202
0.010177662872010843
0.01021307256189175
0.010276932972483338
0.01033386753173545
0.010363019541837276
0.010363478966755792
0.010351354975719006
0.01033371889963746
0.010298502597725018
0.010257214762968942
0.010235862055560574
0.010222837178735062
0.010201314194127918
0.010189058155519888
0.010190130202099681
0.010177207532105968
0.0101486393075902
0.010134567472850903
0.010144221403170377
0.010166607019491493
0.010204406223492698
0.010253450790187343
0.010276792651275173
0.010248240031069144
0.010196847246261314
0.01016544806654565
0.010159738349029794
0.010168542687315494
0.010181242051767186
0.010174284315435217
0.010127557417145
0.010053934052120895
0.009993968541966752
0.009975527240894734
0.009990308675915003
0.010020398875931279
0.010051425523124635
0.010064974662382155
0.010056893373839557
0.010040600787615404
0.010032658994896337
0.01004515428096056
0.010064840619452297
0.010062934978632256
0.010044893578160553
0.010045154324034229
0.010068087951513007
0.010081722071627155
0.010069810857530684
0.010050917844055221
0.010046278963563963
0.010050919943023474
0.010038947524735704
0.01000440236995928
0.009982374489773065
0.009993692962452769
0.010001457028556615
0.00997579406364821
0.009953392242314294
0.009974313053535298
0.010009986161021516
0.010013097956543789
0.009998292613308877
0.010005648008082062
0.010028264239663258
0.010040528335375712
0.010047806140501053
0.010064333868212998
0.010082638156600297
0.01009523447835818
0.010103560236748308
0.01009520301828161
0.010064547681249678
0.010028965508099645
0.009994882994797082
0.009959648210788145
0.00993964694091119
0.009952591244364158
0.009990282260114327
0.010029636953258887
0.010059043526416645
0.010080000689486042
0.010097486819140612
0.010121039160294458
0.010150931528769433
0.010177725256653503
0.010205910049844533
0.01023632409167476
0.010253611141815782
0.010256169164786116
0.010259904650738463
0.01027624334092252
0.010291374441003427
0.010281597175635397
0.010256495603825896
0.01023921771091409
0.010230319671100005
0.010227966629900038
0.010243446157546713
0.010278140123700723
0.010303728963481262
0.010298997927457094
0.010282120062038302
0.010270492848940193
0.010260145586216822
0.010246128368889914
0.010222595762461423
0.010190025888150558
0.010167894932674244
0.01017359852907248
0.010196837256662547
0.01020831467001699
0.010191925348481163
0.010155863921390847
0.010109259285964073
0.01005655232584104
0.010015711549203842
0.01000882670399733
0.010037429356016219
0.010081926140701398
0.010122349178418517
0.010151648846222088
0.010166919494513421
0.010167562541319057
0.010165458831470459
0.010173138949321583
0.010183800412341952
0.010180970369838178
0.010162829228211195
0.01014689402305521
0.010148614302743227
0.010162276518531143
0.010180143016623334
0.010208115334389731
0.010241084449226036
0.010264571657171474
0.010279749644687398
0.010287129753269255
0.01028389364713803
0.010289898730115965
0.010314004374668001
0.010322421889286488
0.010302219780860468
0.010294456438859925
0.01031910891411826
0.01034448562655598
0.01034425144433044
0.010320091227767988
0.010286676797550172
0.010263298298232257
0.010256636263802648
0.010247640922898427
0.010216148712206632
0.010178785400930791
0.010164397585904227
0.010155770967248828
0.010119558613514528
0.010074630804592744
0.010049794465303422
0.010025554817402735
0.009994685684796422
0.009986698656575754
0.009997366117313505
0.009997974348952993
0.009988954379223288
0.009978399761021137
0.009963287404971197
0.009955782394390553
0.009973614247282967
0.010000928621739149
0.010010361423483119
0.010010371428215876
0.010023412413429468
0.010045549210626632
0.010058460448635741
0.01005421852809377
0.010038895775796846
0.01002419705502689
0.010012298283400015
0.009997113578720018
0.009983158847317099
0.009978440837003291
0.009975922729354351
0.009964841539040209
0.009946495093172416
0.009933438126463443
0.009936883257469163
0.009954510647803545
0.009979312322102488
0.010007400221657008
0.01003569855238311
0.010067395541118457
0.01009805834153667
0.010105500568170101
0.010088260638294742
0.010071773178642615
0.010060476682847366
0.01003979682456702
0.010013301341095938
0.009997203714447097
0.009992368747480213
0.009985446496866644
0.009972176376031712
0.00995432116324082
0.009928489089943468
0.009904999929713085
0.00990762013825588
0.00993963612592779
0.009975604462670162
0.009995176719967276
0.010013653800124303
0.010056528352433815
0.010112414120230824
0.010145897844340652
0.010147795822704211
0.010140100644202904
0.010133438713382929
0.010114279412664472
0.010079424894647672
0.010037661882815883
0.009984615225112065
0.009927818707656116
0.00990008607157506
0.009911687881685793
0.009936056029982866
0.009952611222397536
0.009963765015127137
0.009969429383054375
0.00997432712931186
0.010005391373997554
0.010068751281360165
0.010132302215788513
0.01016637823311612
0.010167318754829466
0.010156509248772636
0.0101489174796734
0.010132767520844936
0.010108766889898107
0.010102489301934837
0.010119395374786108
0.01012630490004085
0.010098760962719097
0.010072605186142027
0.010087628159672022
0.01010259508038871
0.010066851736046373
0.010015563603956253
0.009993615865241737
0.009983993588248268
0.00997321178438142
0.0099792448815424
0.01000778135494329
0.010054357995977625
0.010110990062821656
0.010151739000575618
0.010164118860848248
0.010173891365993767
0.010200153079349548
0.01022259981953539
0.010213882673997431
0.010178880735766142
0.010148488646373154
0.010139014035230503
0.010136764181079344
0.010128955023828894
0.0101247226994019
0.010129227661527693
0.010129658966325223
0.010125901370774954
0.010131063960725441
0.010142570959869772
0.010149466957664117
0.010150367394089699
0.010155855998164043
0.010173983740387485
0.010187556135933846
0.01017608707305044
0.010151444454677402
0.010134137193672359
0.010114261952694506
0.010070740830851719
0.010017930687172338
0.009990442293928935
0.009988044300116598
0.009983385909581557
0.009969216071767732
0.009958920039935037
0.00995812943088822
0.009955157837830485
0.009939745285082608
0.009920203009387478
0.009905454372055828
0.00989564853720367
0.009892619721358641
0.00989559964160435
0.009903687150217593
0.009913301068590953
0.009908873890526592
0.009881624601548537
0.00984825765597634
0.009839101273100823
0.009861463439883665
0.009888688361970708
0.0099015015817713
0.009902710567694158
0.00989093020791188
0.009870241972384975
0.009868181773927063
0.009891647523036227
0.00990140403388068
0.009884725771844387
0.00988622608827427
0.00992458857013844
0.009963832000503317
0.009981993464753031
0.009993604802293703
0.010008494190406053
0.010020504469284788
0.010023290829267353
0.010014758761972189
0.010001898357877508
0.009995569539023563
0.00999472816940397
0.009987952898954973
0.009974126575980336
0.009969566497020424
0.009978162186453119
0.009980892485473306
0.009967473286669701
0.009944502981379628
0.009924705154262484
0.009918740552384406
0.00991610942990519
0.009897737661376596
0.009870720240287482
0.009860565117560328
0.009872143438551575
0.009879338667960837
0.009867236476857215
0.009854081739904359
0.009858646146021784
0.009882760279579088
0.009915358066791669
0.009935537946876138
0.009943531274329872
0.009973414384294301
0.010032450301805511
0.010078048972645774
0.010085412405896933
0.010071631403407081
0.010052073893602938
0.010031678936211392
0.010023212330415844
0.010036190242972224
0.010057511492632329
0.010068846048088744
0.010080097086029128
0.01010265174903907
0.0101137112127617
0.010097942219581456
0.010076023042201995
0.010068303415318952
0.010066609581699595
0.010060032297624276
0.010063823614036665
0.010083487908123061
0.010093884860398248
0.010077189727453514
0.010041257914854213
0.010016712298383936
0.010026493874611332
0.010044612936908379
0.010036049967166037
0.010015502114547416
0.010015223390655591
0.01003450247226283
0.010056918254122138
0.010078708119690418
0.010097241288749502
0.010105314853135497
0.010102973054163158
0.0100953734095674
0.010088308820268139
0.01009180621127598
0.010113371348707005
0.010142952508758754
0.010154175359057263
0.010128506976179778
0.010075600910931825
0.010021733932662756
0.009987440215190872
0.009977004388347269
0.009977759412722663
0.009978009149199352
0.009976711148628964
0.009974302515620365
0.009977791920537129
0.010005326103419065
0.010064381605479867
0.010126449349336326
0.010146435450296849
0.010116194227011875
0.010070518198190256
0.01004002672038041
0.010032164779258891
0.010044246242614463
0.010060230942908675
0.010061668455600739
0.010062848082743586
0.010088293440639972
0.010112890807213261
0.010088223557686434
0.010022998830536381
0.009974020946538075
0.009966124068014323
0.009978400032268837
0.009995007581310347
0.010021240134956316
0.010062518004560842
0.010110898108687252
0.010143484774744138
0.010138772287173197
0.0101058853068389
0.010076242927461863
0.010063016368076206
0.010057191522791982
0.010049130597617478
0.010030504961032421
0.009992399859474971
0.009940031822770834
0.009896796821849421
0.009875248981406912
0.009869317546254024
0.009875461418414489
0.009880884173326195
0.009870863263495266
0.009863759115105494
0.009878397276625038
0.00990196575410664
0.009918204521527514
0.0099228651530575
0.009922818861668929
0.009924241912085564
0.009928005861584098
0.009952798108570278
0.010006724934792146
0.01004724275553599
0.010039130428340285
0.0100071243615821
0.009984130383236334
0.009962479587411508
0.009926910408539697
0.009886827481677756
0.009855034587671981
0.009833025524858385
0.009820153169566765
0.009818045023130252
0.009824099680408836
0.009822911246446893
0.00980938648339361
0.009807268920121714
0.0098294810380321
0.009855094726663082
0.009868870815262198
0.009877139722229913
0.009875877985032276
0.009859587237006053
0.009851086646085605
0.00986243462190032
0.009862818483961746
0.009830467092106119
0.009792912813136354
0.00978789638262242
0.009808581823017448
0.009820988397113978
0.009820538911735639
0.009831502881133929
0.009862484766636044
0.009883375329663976
0.009871540296589956
0.009861835804767906
0.009888066631974652
0.009924387452192604
0.009935386535944416
0.009919639409054071
0.009892475445521996
0.009871478512650356
0.009867935637012125
0.009881904713110998
0.009907501054694876
0.009929557974683121
0.009932628540555015
0.009921508491970599
0.00991296067251824
0.009911011804360896
0.009901599844451993
0.009876705781789497
0.009851408060640096
0.009838198687648401
0.00983075051335618
0.009830543154384941
0.009856044529005886
0.009910005389247089
0.009960506018251181
0.009979836916318163
0.009981731249717995
0.009979518352774903
0.009951501433970406
0.009899805900640785
0.009871412575012072
0.009874424872687087
0.009865844474406913
0.009841232346370816
0.009834115920821205
0.0098413004365284
0.009839885932160541
0.009840173341799527
0.009853145624510944
0.009861320623895154
0.009862603982910514
0.009874671448487788
0.009894665093161165
0.009910694538848474
0.009925472057657316
0.009940126144792885
0.009941047829343005
0.00991981425904669
0.009891895096516237
0.009876647251658141
0.009872994179604576
0.009873809892451391
0.00988475974299945
0.009908470946829766
0.009925962381530554
0.009916089435573667
0.009883581183385105
0.00985667168861255
0.009860794170526788
0.009886918439297005
0.009900424358202145
0.009890539402840659
0.009877346752909943
0.009875786853954197
0.009883535167900845
0.009885270602535457
0.009863463925430551
0.009827147620962933
0.00980628413381055
0.009811459676129744
0.009832610102603213
0.009858165254117921
0.009872950311983004
0.009862452492816373
0.009828684796812013
0.009793951582396402
0.009783025523647666
0.009793085382552818
0.00979629174922593
0.009781573468353599
0.009764084047637879
0.009750520169036462
0.009733703626552596
0.009722562751267105
0.009730742155807093
0.009742337787756697
0.009739989211084321
0.009731965766986832
0.009723327525425702
0.009716966461855919
0.009721146109513938
0.00972550200065598
0.009729694209527224
0.009759903968079015
0.009802856496535242
0.009809485173318535
0.009781404128298164
0.00976252123597078
0.00976120820385404
0.009753719547297805
0.009741432873997837
0.009748520533321425
0.00977463526534848
0.009801089621614665
0.009826245808508247
0.009846418701345101
0.009844561426434665
0.009829962135991082
0.009835242129629478
0.009867148597259075
0.009905227273702622
0.009931614719098434
0.00993982068146579
0.009943606001324951
0.009965975385857745
0.010000126592349261
0.010013394247507676
0.009996105154277757
0.009968044662382453
0.009940278631402179
0.009914876095717774
0.00990395955974236
0.009915093096205965
0.009936499438481405
0.009949939103098587
0.00995252929162234
0.009957167032407597
0.009971903001423926
0.00999176460900344
0.010002695117145776
0.009990743440575899
0.009968084084102885
0.009967905133962632
0.009991377900587396
0.010001477253390477
0.009981608400121331
0.009959058909444138
0.00996210947399959
0.009976757331751287
0.009963961853645741
0.009915962822269649
0.009871387807652354
0.009866451409179718
0.009885755829745903
0.009889592321123929
0.009881620279047638
0.009897991010220722
0.009948831064393744
0.010015814332291484
0.010074129686690867
0.010107630315469579
0.01012724662432447
0.01015609125373885
0.01019200581125915
0.01021083394996822
0.01021026445319876
0.010207342967623845
0.010202156744198873
0.010197583051631227
0.010199673839379102
0.010194819191237912
0.01018756123376079
0.010196155374869705
0.010202590868575499
0.010180496864486487
0.010142740452429279
0.010115020729135721
0.0100976430287119
0.010085993631510064
0.010086837251437828
0.010096546829445288
0.010109273620182649
0.010131873274222016
0.010161067104199902
0.01018018698436208
0.010186947819311171
0.010195167836500332
0.010201090701157227
0.010187055274145677
0.010169959879713133
0.010180558528518305
0.010205497110728174
0.010215891435509548
0.010213459687074647
0.010209207725711166
0.010202022203011439
0.010194008345715702
0.0101905378641095
0.010183782817330211
0.010168803815031425
0.010166540530044586
0.010197915956377984
0.010244170107180253
0.010265820827335119
0.01026139218476601
0.010266116216080264
0.010290501872077584
0.010305404188111425
0.010290628554066643
0.010272028755862266
0.010280696528498083
0.010291653756285086
0.010270058603491634
0.01023301161127165
0.010202994429273532
0.01018237920012325
0.010181995104067027
0.01019398826523684
0.010186798841459677
0.010156339082168415
0.010120879410533235
0.010098434862447903
0.010104347289307043
0.010123776538530365
0.010123665726277977
0.010103604983305559
0.010093287375057117
0.01011253131669946
0.010150768974563107
0.010186854370404034
0.010213092407211662
0.0102214699331671
0.010192950745113194
0.010125289629213512
0.01005493157543242
0.010021673525916413
0.010023674288531766
0.010036526944022626
0.010051402647513896
0.010062235739314928
0.010049882624298335
0.010020816136384383
0.010013983496464788
0.010040974718285724
0.010079114069230854
0.010107448406051845
0.010108077824115753
0.010083160605281591
0.010071400563465432
0.010095019926084206
0.01012232664739713
0.010118112984346226
0.010087949682492763
0.010062347273342312
0.010057195980334655
0.010048733880976215
0.010018489804351702
0.00999688204145059
0.010006101762410253
0.010022857986623421
0.01002792508341372
0.010021275866311043
0.009999462901614607
0.009973561697406694
0.009971599297132342
0.009998301378218458
0.01003294177004136
0.010057717161253095
0.010060387009289115
0.010040639516664668
0.010026308179367333
0.010039892742643133
0.010058646273100748
0.010048968833871186
0.010009748645825312
0.009962642824975774
0.009931272808462382
0.00992887785192579
0.009952510936418548
0.009987401153193787
0.010016945782117545
0.01003956128959544
0.010066408343845978
0.010091043560532854
0.010096016523893922
0.010093465736135841
0.010106248366646468
0.010125360039528459
0.010135811626678332
0.01014862646930851
0.010177374915219844
0.01021171034895815
0.010225762530462817
0.01021025319234468
0.010184994617011398
0.010170483168913051
0.010173539711395278
0.010199773757485674
0.010239144396036863
0.010256805046228692
0.010241291885031388
0.01022228248999454
0.010207055192440749
0.010170463995309546
0.010132115767337382
0.010143523808801546
0.010188553453190252
0.010203212855849415
0.010181003721663728
0.010173520823009312
0.010203533819876612
0.010232443233253435
0.010227021446917206
0.010209992039017379
0.010198767948895692
0.010162422510329634
0.010097358766943216
0.010044386077206582
0.010015088147483767
0.010010142946848646
0.010001199073158204
0.009978847384918482
0.009949596715159714
0.009925716284196823
0.009915335408877582
0.009911743405973538
0.00990503307315521
0.009901042564306408
0.009906685925088823
0.009916056351503357
0.00993075967533514
0.009959888054290787
0.009993465594016015
0.010014070166507736
0.010029693294782191
0.010055940370075405
0.010074940441409126
0.010055645763641223
0.010005546173779294
0.009960309022571891
0.00993289040052332
0.009910072640050203
0.009890215160558
0.00988719828776084
0.009900266170734539
0.009910524022998288
0.009903828700771555
0.009885198782430962
0.009876713312696666
0.009895030348561705
0.009929870148189366
0.009957088740775362
0.009966738334624097
0.009971732287667692
0.00999011073145084
0.010013901805505156
0.010011414299951867
0.009969441656721756
0.009913157628616318
0.009873252399265765
0.009842126932926475
0.009794118842110037
0.009737294039223344
0.009700864303158595
0.00969836175441742
0.0097237105993554
0.009761455224361271
0.009791832047048955
0.009790710164234042
0.00976456925040111
0.00976291501079686
0.009801149836275726
0.009837752531748265
0.009848634722875432
0.009845079779624939
0.009837191753322259
0.009831575511489063
0.009833740087924526
0.00983578375657089
0.009824160520220176
0.009803239937173202
0.009794339450309053
0.009798746887827291
0.009793226855108514
0.009777032745769248
0.009771845858776941
0.009773581745103002
0.009765057123731822
0.009756255687680095
0.009760927102761344
0.009774830199312419
0.009793553876224905
0.009813039615983144
0.009828728841384873
0.009838452029507607
0.00983245380804874
0.009809272970305755
0.009786958476761356
0.009775327573297545
0.009762536075431854
0.00972903821268119
0.009677934710634873
0.009644849783508108
0.009646872270386665
0.009653680198825896
0.009635942034656182
0.009604035794036464
0.009583736382192001
0.009579764038790017
0.00957936843857169
0.009584697005338967
0.009608059879392386
0.009633242130512372
0.009638558839214965
0.009642454722197727
0.009667915451573209
0.0097018385771662
0.009727821468841285
0.009748516804538667
0.009765014760196209
0.00978116842918098
0.009804771692724899
0.009829500443302094
0.009849047641037032
0.009865736012579873
0.009878854523412884
0.009880130836972967
0.00985765828518197
0.009812137570697814
0.009756092792376875
0.009707036865875126
0.00968467689701356
0.009689148075412959
0.009705888871103525
0.009724559916649014
0.009731480190530419
0.009723536714445799
0.009719472823198884
0.009726383611559869
0.009738574132788926
0.009762874054722488
0.009788354022894054
0.009784165394958109
0.009752032211981714
0.009710891984868795
0.00967178222257644
0.00965826956788078
0.009673883598297834
0.009678202788345516
0.009652124012354761
0.009624988849973306
0.00962020328384824
0.009631445941049605
0.009638956404523924
0.009631461899261921
0.009624934436287732
0.009630675760563463
0.009630981957307085
0.009619953989749774
0.009611207455163822
0.009605917377630249
0.009598128808429465
0.009588936293730511
0.009576695632422343
0.009555265310918912
0.009530368925770744
0.009518603354226798
0.009525273118633777
0.00954605319071561
0.009578904889058321
0.009609692845260724
0.009621200502151624
0.009621459088521078
0.009626628793776036
0.009643524499842897
0.00967811630689539
0.009718220247887075
0.00973476370680146
0.009719269974157214
0.009677911824546755
0.00962077631149441
0.009575975419720635
0.009559065566863865
0.00955628789612092
0.009558238511672243
0.009555902015417814
0.009537251965375616
0.009520579933887347
0.00953454565256834
0.009568130138795823
0.009583738112123683
0.00957008641329594
0.00955716507975012
0.009569089255528525
0.009589199480833486
0.00959139693994075
0.009567639011656866
0.009529162687249482
0.00950439959182404
0.009507063725031913
0.009519034628756345
0.009519118055468425
0.009504979965277017
0.00949275741353631
0.00949418111005798
0.009498200215166435
0.009490819749189541
0.009471708737546578
0.009444539798423648
0.009406084270449356
0.009353710166178643
0.009308598719071597
0.009296773832757026
0.009306917709764093
0.009322510175406933
0.009359551036031916
0.009416953781619669
0.00946346360258758
0.009485215141903609
0.009470583915244787
0.00945256175706163
0.00945546335540712
0.009473403445445
0.009476511697284877
0.009455285654403268
0.00945084810256958
0.00949464523117058
0.009547336904797704
0.009558432004414499
0.009536542462883517
0.009511249469360336
0.009488613633438945
0.009467490890529007
0.009451466208556667
0.009439165128860623
0.009426460186950862
0.009420221142936497
0.009439111433457582
0.009487822894006967
0.009540973426774145
0.009576446088030934
0.009597102397819982
0.009600970579776913
0.009577006463659927
0.009544760179705918
0.009541643850971013
0.009556723263813183
0.009545805333182215
0.009511761524481698
0.009493182788137346
0.009497181348269806
0.009507212948519736
0.009518693783320487
0.009528010539943352
0.009524641628377139
0.009515538271516561
0.009524629635270685
0.009555102695012465
0.009581026664236561
0.009588080660905688
0.00959819754352793
0.009630125357070939
0.00966214329469949
0.009666453575482592
0.009645802594022826
0.009614402183797211
0.009579726721858606
0.009555435846559704
0.009559871329693125
0.009586546958889813
0.009605950126424432
0.009605699140811339
0.009597301494795828
0.00959609775338322
0.009614222991513089
0.00964339880621992
0.009660622348310426
0.009670778074068949
0.009695215818937867
0.009734987256815658
0.009780724679585547
0.00981510158861056
0.009819658936467022
0.009805887900292874
0.009792081655468791
0.009769743632059544
0.009739814307540656
0.009721818702528253
0.009716187772573904
0.009716231832280755
0.009719224807340651
0.009712983415229247
0.00969348853570409
0.00966742119169794
0.009639331107027829
0.009623937457799912
0.009629707803251222
0.00964112314162776
0.009658054646570236
0.009704264568863436
0.009776664619566873
0.009830807781545445
0.00983903871732764
0.009829306832980365
0.009830522041302175
0.009832552167354151
0.009831392116611824
0.009844126625685021
0.009865279083605856
0.00986555654089898
0.009833194415550679
0.009795924517093227
0.009796445632819086
0.009832699194084853
0.009860016049351543
0.009859826555475593
0.009847134894225746
0.00982947469688952
0.00980747286346741
0.009793665395118296
0.009793508283328265
0.009787912104511633
0.009764818728435785
0.00973592783208005
0.009710982834221796
0.009692330881953239
0.009688049361575395
0.009699502143776044
0.00971709654550068
0.009739315775223077
0.009759100979426876
0.009760207637446
0.009754770962754265
0.009762653381330892
0.009771057836478575
0.009776968272635713
0.009805040629580618
0.009849295285530388
0.009874417593237013
0.009877383337588981
0.009890086913947016
0.00992975229746662
0.009973011024994776
0.009982528983382508
0.009957104100612924
0.009929257694166154
0.009914262577658518
0.009897507462883369
0.009867945542791858
0.009844123210059478
0.009851432144641877
0.00987626175279729
0.00988782273605466
0.009892318106722087
0.00991174551192671
0.009940158539684489
0.009958870540140196
0.009965337318135425
0.009970079720951618
0.009979365128092468
0.00998649142566137
0.009986758092418313
0.009990350042935461
0.010003289418527857
0.010024035442620515
0.01005640411749482
0.010091217764420434
0.010104311376344412
0.010087650060886516
0.010057234345003963
0.010029648193158209
0.010000141662312672
0.00996232488541864
0.009930106390966103
0.009907851638272404
0.009880727319978178
0.009849107131594792
0.009828449246706441
0.009826326412148773
0.009846540825674311
0.009885857728077098
0.009918677483219653
0.009923892528750002
0.0099174013978336
0.009926891574868932
0.009954057802679018
0.00997391864657402
0.009957654664758593
0.009903013298753649
0.00984399142442271
0.009814910015556962
0.009817211326444522
0.009834279412170872
0.009854714951943606
0.009871013672091066
0.009881833135150373
0.009900487861596047
0.009929420780390502
0.00994647670071572
0.0099447624059394
0.009942925858777017
0.009960072094108909
0.010001855592709035
0.010040301787666977
0.010031696923542768
0.009980927375145256
0.009942379011772574
0.009945153251755982
0.009965869097504765
0.009981634588912129
0.00999413337558508
0.009995084402617068
0.00997132073622197
0.009935535667464137
0.009903098193462937
0.009878484487999231
0.009872297383844852
0.009888884702231735
0.00992121105780825
0.009967332619708032
0.010022032873239368
0.010059335252735764
0.010061408733017743
0.010054405818227679
0.010063138473778963
0.010066432587336749
0.010046977985184639
0.010027135966811328
0.010021654195152224
0.010010623193811624
0.009980995261576026
0.009951917766593397
0.00994390998966992
0.009952480245847255
0.009959708249662072
0.009953669300302862
0.00993857856374234
0.009922722328919917
0.00989966934779659
0.009866604600101709
0.009843309514690191
0.009843739322386682
0.009852317883633077
0.009860501603689044
0.009885411134455353
0.009926459479611367
0.009966976295690983
0.01001065544784069
0.010055530408862978
0.010072674786206335
0.010055332970805466
0.010031866198405624
0.010018306414131074
0.010018619014881552
0.010040791237261147
0.010067504288163037
0.010062672893982381
0.010032895156182348
0.010023945970460772
0.010044491204898804
0.010053919714409857
0.010028549546841532
0.009994502549525351
0.009985845091287048
0.009998114323243499
0.010007237233221531
0.010005440548993647
0.009992280167061836
0.0099640625086613
0.009925364905502648
0.009885254895780236
0.009848854464944452
0.009829274488147348
0.009836964968126267
0.0098449211823754
0.00981511594261974
0.009762204275466502
0.009733145900536328
0.009732844175305217
0.009726467248983682
0.00970159174175933
0.009682430508546532
0.009688809677027167
0.009710176610387861
0.009733097744174302
0.009762868972029538
0.00979405228747055
0.009810290199238807
0.009811425295192749
0.00980190961388871
0.009788830156903714
0.009785246339160949
0.009788929307833314
0.009791098048444836
0.009800529691856354
0.009826589620206504
0.009859059622976929
0.00988037713803351
0.00986934917513281
0.009810908450745046
0.009740353303495795
0.009726975169032813
0.00976859753485769
0.009783497180324048
0.009755874103866517
0.009759431628044695
0.00979692321503535
0.009792110500857234
0.009747833248693496
0.009735503415577114
0.00976313546532765
0.009781124177388847
0.009762490370776504
0.009722461202181875
0.009698553797788919
0.009708241170737892
0.009723528558388352
0.009722776238340884
0.009735013309400528
0.009776936513371765
0.009809792565647513
0.009809212319087237
0.00980627434561029
0.009837288069538772
0.009893298835959286
0.009935152896214277
0.009951427567284555
0.009967090142890812
0.009991131802089513
0.010006499437149614
0.010013419289607554
0.010026371071580798
0.01003562000580132
0.010019757591653616
0.009986595599912107
0.009959221417084337
0.009931399624329061
0.00988441128982231
0.009828449930064381
0.00978662024019286
0.009764146329835056
0.009754139897413552
0.009749490444082767
0.009752320034895092
0.009782256099861115
0.009846599097363651
0.009912166537251323
0.009944959403946995
0.009959756860043854
0.009986326929647476
0.010011521133128554
0.010013493662700056
0.010007929825223982
0.01000750542152673
0.009996691790875048
0.009978189512621612
0.009982076545711607
0.01001456908416003
0.010051062186248601
0.010073004986625165
0.01008090571500361
0.010085727947298437
0.010092071425169706
0.010091486999299378
0.010073607126250862
0.010037768825422972
0.010000053816474975
0.009979189061559736
0.009977766643278301
0.009988978172186762
0.010006107348017395
0.010026536332443357
0.010047993960324676
0.010062621021643282
0.010069955324288457
0.010081990507896989
0.010106900015380234
0.010134142925962805
0.010142573530320078
0.010129929897375404
0.010113576916046441
0.010100893704220652
0.01009198775049299
0.010094976644031703
0.010103385846596211
0.01009920162614435
0.010091303430963308
0.010095475167036056
0.010096566735301167
0.01008598321583122
0.010068895472213625
0.010045262393541634
0.010039852906484157
0.010030139060691
0.010009190361015498
0.00999510447261855
0.009994156591128558
0.009987741257064045
0.009969471639487892
0.009956110739149154
0.009952592453919351
0.009938387928996236
0.009901060445699841
0.009870241363532841
0.00988709539640695
0.009943537905346602
0.009993983246386052
0.010021104160696268
0.010044926383998246
0.01007708662422374
0.010112411961890756
0.010153467596974225
0.010201587034389377
0.010236122743226588
0.010241204178892077
0.010240483421366662
0.010260631402488798
0.010280279982835054
0.0102623355621472
0.010200868910178542
0.01011376193491742
0.010040935548022389
0.010026905371341854
0.010058773974888026
0.010078302510082722
0.010067240197677164
0.010052257000934333
0.010044118203222752
0.010034230868332088
0.010027694599702954
0.01003740587970242
0.010060856232885272
0.010081988039892166
0.010084736701101065
0.010067173556890338
0.010051793111488223
0.010063943560235203
0.010101969889365136
0.010140457767993211
0.010157662618439645
0.010157873188145459
0.010161401676014066
0.010177605296485126
0.010190785576123745
0.010174400522373617
0.01012583747971803
0.010075006037950515
0.010047574741765857
0.010037598889321089
0.010030775766354054
0.010025437702424825
0.010029558879323304
0.010051167481578886
0.01007463397225365
0.010073690947610885
0.010056181771215051
0.010051722098141909
0.010058564026840031
0.010047479188069702
0.010019255734514445
0.010008930696640163
0.01003308970015496
0.010070479833520949
0.010091900059487671
0.010090430239215494
0.01008379423758015
0.01009516519960016
0.01012458116048947
0.010155734044965357
0.010189523152075709
0.010227777322288602
0.010255110086873173
0.010265306259971112
0.010262305892538279
0.010249997309874742
0.010240673637017608
0.010238276703748852
0.010232940446585417
0.010228460372891277
0.010236281098332255
0.010255409807432442
0.010273109313566238
0.010270372861996294
0.010244971038773656
0.010219681516755372
0.010215997979976237
0.01023794687120244
0.010269305224064738
0.010286092727910727
0.010278549452777952
0.010257198009639978
0.010243936139158905
0.010249086581170559
0.010264782051090151
0.01028333772206679
0.01030183563940227
0.010315225473605097
0.010319183194078506
0.01032241760287434
0.010340750413015486
0.010363764015492051
0.010356757007539272
0.01032195869134739
0.01030789008596912
0.010320017177145929
0.010309209683910012
0.010279294948559255
0.01027582916431129
0.010283904070965945
0.010271766248624772
0.010263754413463175
0.01027799054980278
0.010290039430838078
0.010294548335950822
0.010306055673863739
0.010314171318896115
0.010309843507129698
0.010306779018137605
0.010303744848351925
0.010279002245515584
0.010236455623526127
0.010208079207222909
0.010193376769311726
0.010154560776427388
0.010088800156954675
0.010039956346154212
0.010030197424348443
0.010034914461430162
0.010032638246193527
0.010041764231864363
0.010079150339588522
0.010112094157375396
0.010109617414418608
0.010104479580186308
0.010130072922911494
0.010148479756899177
0.010121222117450089
0.010092590611893684
0.010121098679956048
0.010187013177201151
0.010237197913229466
0.010258362838067114
0.010268194482196123
0.010277218960691243
0.01027369239833206
0.010251187302637845
0.010231683705933392
0.010232277477625758
0.010232862906996161
0.010205497681163252
0.010166307666804642
0.010154693096410483
0.01016364224255085
0.01015546944225207
0.010129432291723788
0.010111948316916823
0.01010880820453167
0.010099413017742335
0.010066125681623817
0.010019313055090606
0.00998032012488693
0.00996059553930536
0.009964320745784789
0.009977529046591372
0.009981608102098107
0.009990947586484254
0.010023062380496413
0.010055231999140234
0.010059517310000956
0.010039639368187636
0.010016428695525974
0.010003468503709883
0.010000676978379489
0.010008772858418525
0.010029628539923579
0.010050713587552308
0.010055839563719929
0.010043647766578942
0.01002727254992351
0.01001913481624797
0.010013233362697065
0.010002506375312805
0.009993668249808251
0.009983074956107885
0.009966277109924704
0.009958054483868183
0.00997177026234567
0.010013750651851297
0.010081536055076867
0.010138688646256923
0.010167332566343248
0.010194478915072977
0.010203306579496712
0.010192931194324047
0.010168179580941796
0.010144238118082285
0.010132620830554516
0.010130527436267585
0.010123033409472555
0.010102448931429536
0.01007780959829688
0.010055989909451455
0.010042290752753615
0.010048145693726838
0.010062664533033967
0.010053728695493192
0.0100233527389355
0.010005373554304243
0.010003841577563434
0.009999400719534606
0.009993020326364786
0.009993669227696955
0.00999855041038245
0.010009766553994269
0.010036478848196567
0.010062458694446831
0.010057568119373172
0.010035413031000645
0.01003582947421819
0.010065129345748573
0.0101060705864802
0.010137648531235754
0.010131362800020725
0.010083781899884342
0.010033529154025018
0.010014981476124375
0.010030208025127649
0.010069256236311048
0.010120719079859555
0.010165839369874448
0.01018802918959409
0.010185250770300627
0.010167156292591245
0.010156580975744874
0.010179249665234237
0.010227224931586534
0.010253833776805549
0.010223466858733446
0.010156033264938741
0.010106175011023878
0.010099297063425184
0.010108428802341222
0.01010097672464326
0.010076346828136594
0.010051890420727431
0.010052177431061864
0.010088887966703623
0.01013288186630234
0.010150641372893005
0.010143790412694215
0.010125049024354666
0.010095435078255832
0.0100540830520913
0.01001661510206759
0.010006504436023533
0.010020241916645318
0.01003565639257431
0.010048553254455328
0.010065918979234994
0.010085727435071022
0.01010047470452264
0.010100165049079806
0.010077135057654231
0.010045931290369481
0.010038371526170521
0.010059909969568253
0.010080147052649409
0.010082822176627815
0.01007878968026489
0.010063851026352495
0.010029454082250595
0.009994795757811516
0.009974624023307115
0.009964625432621688
0.009966659601777792
0.009985154292080552
0.010014958805404603
0.01003909897292033
0.010049588105175644
0.010064079663716257
0.010079732083249837
0.010071099931374193
0.010057424686383456
0.010072733648121357
0.010095520110335201
0.010088980908039957
0.01005737941712141
0.010026107782032341
0.010011788462288678
0.010019476949237287
0.010041610593907535
0.01006066140718758
0.010065938017796726
0.01006002377718687
0.010044598651584238
0.010016372823156417
0.009979866759385914
0.009949926056433469
0.009938066680915654
0.009945356976240874
0.009965886224526911
0.009986543683335186
0.00999717990634963
0.00999941056361422
0.009991909030359238
0.009972850792109966
0.009952282225713134
0.00994106435449794
0.009942974266596138
0.009949383635539561
0.009945010545197874
0.009941940896678715
0.009970244362484663
0.010018312474712729
0.010043912245891988
0.010040877705905586
0.010036568471696228
0.010039593395777046
0.010034058173187078
0.01002403472783044
0.010032451204024255
0.010050565702840686
0.010052421486470849
0.010045598531141876
0.010059372079558671
0.010093074720352889
0.010109662362374365
0.010099426596425473
0.010101362925488501
0.010121524655260146
0.010109967081807553
0.010062546848785133
0.010031486013904214
0.010025867295917123
0.010020360560156405
0.010018300749361515
0.010031170761212706
0.010044435283634811
0.010034946440719068
0.010000413020607083
0.009958023398648947
0.009929376021027565
0.00992715616011992
0.009944253226276487
0.00996587372617796
0.009983716919086873
0.009989988936576993
0.009983276631683111
0.00998076782329008
0.009991321132984012
0.009988400691654534
0.009956151954829693
0.009932328267022967
0.009951464261393993
0.009988668991718441
0.010003860285505652
0.010003230036236346
0.010022307534236462
0.010062771150842309
0.01009109464706853
0.01009899534517899
0.010097673216369002
0.010077399478759616
0.010045530213974417
0.01004251561826095
0.010071137903723866
0.01008880291832611
0.010081209363415838
0.010066379210911691
0.010052305390127003
0.010044523105025292
0.010047959417570383
0.010048557624686509
0.010033883829601109
0.01001638375921175
0.010013043500948697
0.0100215222989209
0.010034769903868437
0.010053113244939595
0.01006653403164819
0.010066210951190441
0.010065495525486768
0.01007979185320437
0.010110114407725633
0.010140275782905519
0.010141630745492876
0.010099507533013821
0.010032312364783138
0.009983696877025067
0.009989448168780654
0.010038721871096641
0.010079507494810968
0.010080514894798397
0.010069216873962433
0.010080503546632827
0.010104047760833054
0.010113999820314348
0.010114840900059789
0.010130380066111683
0.01015356888063252
0.010152264074422419
0.010138263721019029
0.010149578189011663
0.010169988602865488
0.010167569173499941
0.010166230264585465
0.010187459499575198
0.010202843935694546
0.010198099156841636
0.010188533253967761
0.010169942968059332
0.010136257477570325
0.010111507950350642
0.010110277535859495
0.01011008478468284
0.010096001657657325
0.010081471907906234
0.010070314477197827
0.010056474241428076
0.01004588533192873
0.0100366650801152
0.010020570650231092
0.010012379931285977
0.010028679443057626
0.010051752997096628
0.010049431496299803
0.010012781089171767
0.00996440413640812
0.009938751158770173
0.009946996283251791
0.00996426322730258
0.009967531773727388
0.009967821321915836
0.009975166774820536
0.009972091726958753
0.009951738733798265
0.009932480847928672
0.00993278349051252
0.009961880547925829
0.010003909217193723
0.010019609888549894
0.010006163322832435
0.010009542079642416
0.010048607161734254
0.010086300626862794
0.010088361285161227
0.010063662382308394
0.010034191571176052
0.010004044105298817
0.009981505679897964
0.009985577040351927
0.010013932746369391
0.010043609607964753
0.010051793034654111
0.010033300556242465
0.010014104025904089
0.01001298006856814
0.010011316433083266
0.009996616819407791
0.009986093221232294
0.009993173805996776
0.01000565818278119
0.010006518273148685
0.009996802418027074
0.009982254656497389
0.009961769692599773
0.009940680968575179
0.009930255773942917
0.009932213467545808
0.009943437203764916
0.0099624296836555
0.009984789935406297
0.010010443956125527
0.010037422354798764
0.010052598770707846
0.010045874679926783
0.010023219522554427
0.010004402748309075
0.009992243412416429
0.009963687057606876
0.009917423538863658
0.009882541608531028
0.009867897087242455
0.009856320864055306
0.00984372419072315
0.009836247805505991
0.009830538553651423
0.009829819637816399
0.00984362855553627
0.00985787235898897
0.009850205504335463
0.009833831235300749
0.009839753122068941
0.009868968881201
0.009898031805641949
0.009914760317187757
0.009930676661897451
0.009958897083997727
0.009986196358222515
0.009983933919575066
0.009947759706992656
0.009910505986772478
0.009897143505513668
0.009896176939364523
0.009899715236388147
0.00991576561704278
0.00994235665537417
0.009973701394628734
0.009999957263935356
0.010003702519461512
0.009986119519453496
0.009960117754526437
0.009921430239919572
0.009863100613001734
0.009802862028591335
0.0097698853793554
0.009766617885325103
0.009773966534994542
0.00978267087135464
0.009787743126507849
0.009786426175851374
0.009790075486525893
0.009802136623766272
0.009809526845347137
0.009808470227289945
0.009804930810350925
0.009804838644340634
0.009808505221735686
0.009793984200805426
0.009750691743101924
0.009727288340218364
0.009765577563084661
0.00982415962498635
0.009844173800665885
0.00983873094432056
0.009865990376565605
0.009937927532009781
0.009996056859381496
0.00998728553764522
0.009979590536095201
0.00999503067927435
0.009958771078381688
0.009895731722936034
0.009876653272658586
0.009893452688120306
0.009926952812820673
0.009959102510474622
0.009969975147396327
0.009946180956903845
0.009916617858689279
0.009889480578713118
0.009879210866056382
0.00988050828455016
0.009891417580656708
0.00991971073905006
0.009960440637078136
0.009995803644414991
0.010012008293997496
0.010013080365024508
0.01001390450168401
0.010017641033045947
0.010012202616780996
0.010006451157387346
0.010033039816189557
0.010079856908414514
0.01009093524189666
0.010049891958478838
0.009993559138383717
0.009970615019556135
0.010001919171772898
0.010051525351591407
0.010075632622465492
0.01007935673231259
0.010077908434905112
0.010072192156221717
0.01007340514101088
0.010086691377218814
0.010103390328586101
0.010122130757663399
0.010143184952903539
0.010168221739586442
0.010194482340011746
0.01019737370312214
0.01016700742766261
0.01013213414233178
0.010109039430972189
0.0100882442551665
0.010076286385301501
0.010082327793352306
0.010080948434770108
0.01004405736690387
0.009993941343855112
0.009979430094826967
0.010010503721423447
0.010051194573752581
0.010064089577645064
0.010050125741399825
0.01004609017400071
0.010079657342284918
0.01014883982250467
0.010230158064514399
0.01028250802308321
0.010281550099607557
0.010242701682727784
0.010192827463615686
0.010157103713136167
0.010144473072141409
0.010131771394517273
0.010114059410989284
0.010121384332887829
0.010138934664428233
0.010109905998688192
0.01010478958953172
0.01006710167042911
0.010050117722712457
0.010150860238354653
0.010361416665837168
0.010592532707378269
0.01069316072622314
0.010679696300067008
0.010713639971800148
0.010714930079411716
0.010707070035859943
0.010769829077180475
0.010890529223252088
0.011016113089863212
0.011123519665561616
0.011212702796328813
0.011277488961350174
0.011345300483517349
0.011449002851732075
0.011522930047940463
0.011491661595646291
0.011468935813754797
0.011654824640136213
0.012081607370637357
0.012576412295456975
0.012843231742735953
0.012928366905543952
0.013328750529326498
0.01372765481704846
0.014014127999544143
0.01434362311149016
0.014853355595842005
0.015449943349231034
0.01588568866951391
0.016011288643348963
0.01597515302710235
0.015935256739612668
0.01597644853638485
0.015986801532562822
0.015973103137221188
0.015973494569770992
0.01597309761447832
0.016003582249395548
0.016178737631998955
0.016639750499743967
0.017340202617924662
0.01807053924072534
0.018784259581007063
0.01958046160871163
0.020364277423359455
0.02088150934316218
0.021017889857757835
0.02106277340557426
0.021119015729054808
0.021650121691636742
0.022444784427061677
0.02285209140740335
0.02305618653772399
0.023673927281051874
0.02437026163097471
0.02521463332697749
0.026385528712999075
0.027824161949101835
0.02914864292833954
0.029860226798336952
0.029843749513383956
0.030068951323628426
0.03013416115194559
0.030253876878414302
0.030304947725962848
0.030594857286196202
0.03139263694174588
0.03264126197434962
0.0343536893511191
0.036710643672849985
0.03975561554543674
0.04296469094697386
0.04556325463578105
0.047070045804139225
0.04715576391667128
0.04846115492749959
0.05076425873208791
0.05342155224643648
0.05620127656729892
0.05859030615305528
0.05959780104923993
0.059952542716637254
0.06075150599470362
0.06121344451326877
0.06140517581021413
0.06144341404782608
0.061646933099254966
0.06211278007598594
0.062358739404007796
0.06244771997211501
0.06318924544611945
0.065021477334667
0.06762790219858289
0.0705675562354736
0.07338114474667236
0.07542646559886634
0.07620860109571367
0.07678362034261227
0.07864392830524594
0.08136751453159377
0.08435266204643994
0.08703916114522144
0.08919587422627956
0.09094909420236945
0.09229507039301098
0.0929584431136027
0.0930488990037702
0.09401938848663122
0.09582492795307189
0.0980902772420086
0.10003170476993546
0.10093040021834895
0.10145904244156555
0.10378870368469506
0.10806170874508098
0.11409292363328859
0.12039165110327303
0.1241415050229989
0.12469387584133074
0.12911065550753847
0.13565932519501075
0.14235373504459858
0.14732145729940385
0.14968529978534206
0.14995190930552782
0.15053950069239364
0.150842052239459
0.15108903659274803
0.15141224452061577
0.15190443486906588
0.1535988148744218
0.1553603280405514
0.15614757891045883
0.15616958390455693
0.15616428962675855
0.1565603652014397
0.1575421032961458
0.159072696918156
0.1606303778407164
0.16163907695561647
0.16217248725239186
0.16266820341115817
0.16320329594425856
0.16353944707429036
0.16360520033864304
0.16362895470578223
0.16373589857248588
0.1639963307068683
0.16434568982105702
0.1646258093812503
0.16474118888378142
0.16488998610991984
0.1654569604038261
0.16625595322577283
0.1669212293624878
0.16740162940463052
0.16786484350217507
0.1680827114195563
0.168305949177593
0.16872664999915288
0.16907706998521463
0.16969960257411004
0.17072820652043447
0.17161967705702408
0.17209056790918112
0.17266959758941083
0.17388328429311514
0.17549282875610517
0.17665727517567575
0.17665931469295174
0.17776534526376053
0.17922097234753892
0.18039496046258136
0.18102404499426483
0.18102605388965456
0.18167357813799753
0.18238433444174007
0.18247366013703867
0.1828933350252919
0.1833258836530149
0.1834014905244112
0.18352374236797914
0.1841268063755706
0.18496522735105828
0.1855234797950834
0.18565887707984075
0.18564530138857663
0.1857185470010154
0.18594149008160457
0.18619735088665038
0.18647265221225098
0.18677704713074492
0.18693891986971722
0.18705454092938453
0.18763255392434075
0.1883528492623009
0.18900104212574662
0.18944692401215435
0.18947481687413528
0.18952942782780155
0.18990792432101444
0.1903037266805768
0.1904841854865663
0.1904852094943635
0.19058299854164942
0.19069398923777045
0.19068655489711092
0.1908957173768431
0.1918735760054551
0.1935296876146458
0.19485801803180947
0.19490313009824603
0.19597459431970493
0.19797393980668856
0.2003598617599346
0.20214125572703778
0.20245336355175822
0.2027524895896204
0.20268709376454352
0.20245377536630257
0.20291931771673263
0.20398330037947743
0.20453798541333526
0.20445410628570243
0.20432444700738414
0.20415211228188127
0.20405193025711924
0.20486385623691603
0.20638178660767154
0.20768475330900402
0.20772187219234184
0.20957463362254203
0.2125819982471876
0.21575994896469639
0.21793755423277617
0.21851086124079303
0.21892256539780647
0.21946023943601176
0.21963957095285877
0.2195824003382586
0.21952238498954102
0.2195392009569332
0.2196007886622101
0.2196279406780377
0.21958550354931503
0.21958520083222538
0.2198030177759938
0.22003571328241378
0.2200822136714123
0.21965376909123735
0.21919909114716574
0.21915213110856713
0.21914945439901204
0.21848385220160707
0.218408860352356
0.21969226820161566
0.22204909273423254
0.22370272969594227
0.22321003686171026
0.22410385440103708
0.227361306513194
0.2307721051061526
0.2331589658325538
0.23356127094943077
0.23371582717169076
0.23394569680327548
0.23434548923978582
0.23370529907755555
0.2323054472380318
0.23049946736544372
0.22770203267224132
0.22459284835960716
0.2222612967621535
0.22135600097244607
0.22219216697849334
0.22190116732381285
0.22045405696611853
0.2183404138428159
0.21559540703427046
0.21361388151533903
0.21309633339289577
0.21268368318211286
0.21287632499821485
0.21445418207906186
0.21643138597952202
0.21743924968177453
0.21770179730374367
0.21912298616254702
0.22157761728856712
0.22375041190302
0.2237559474282898
0.2221520108752884
0.21970351116498932
0.21691230593249203
0.21412965023424477
0.21259169463533908
0.21247293175430967
0.21240894931834192
0.21078401656122878
0.2080249593174085
0.2049957619025372
0.20251801295438782
0.2009501947485842
0.19985889716539532
0.19891369964228944
0.19853203838691116
0.19902782497229055
0.19898148879408836
0.19794428574619816
0.1958066613250412
0.194328874128405
0.19451535149011762
0.1954539705463685
0.1944007622380741
0.1905984638608061
0.18473050648579373
0.17889936972875148
0.1754849379695952
0.17510739442659543
0.17085037078242749
0.164408955629915
0.15770911741768942
0.15281753895571457
0.1504889490152709
0.15049251679098233
0.15015167359961196
0.149924480416812
0.14965629701735453
0.14924125610850753
0.1487156367022544
0.14703867841279133
0.1453634386253543
0.1447408859850839
0.14486332555767148
0.14495742769213393
0.14495362403802572
0.14446503012441098
0.14328250580932944
0.14181886962382123
0.1407322814827785
0.14017844929825515
0.13986342316959052
0.13975086283637211
0.14011286893626676
0.14070224516326563
0.14064987538615242
0.14127937545999886
0.1419143421552144
0.14213180762715638
0.14215411274693907
0.1421626305184327
0.1422797082667239
0.14240433498751373
0.14216021973174064
0.1416376738762483
0.14133128345245496
0.14126124316127972
0.1411339674470946
0.1412185611203313
0.14110519282519818
0.1410163231799379
0.14111663601594046
0.14122295403853058
0.14116817033383997
0.140911341116298
0.1403184086177498
0.13928685804130508
0.1381081414106302
0.13756834561005235
0.1381026855437085
0.13718039789469913
0.13575531823094933
0.13498947924003005
0.1352644631662406
0.13619127951329574
0.1359843149385415
0.13539851400768385
0.13595376353245228
0.13623029472539203
0.1361372825480066
0.13605223179096357
0.13601781846256927
0.1357760280650109
0.13551710264757275
0.135439592176117
0.13551975970854982
0.13558937451569364
0.13553786171600224
0.13546415789052843
0.13578923512715846
0.13649480638792738
0.1368942094454542
0.13674243907909842
0.13725907364161685
0.13781563042663036
0.13859108336968348
0.13916818340076134
0.13881476292153822
0.13936118382029236
0.13966556355822832
0.13915812818566337
0.13862467846134677
0.13849777170922606
0.1384885584982112
0.138441523516085
0.13842890727799387
0.1383813028759323
0.13805497634457425
0.13714564992813394
0.1357887577568181
0.13471009106142445
0.13456984770251437
0.13371711761225014
0.13211251529399307
0.13005119579611346
0.1282687610690482
0.1285614704946056
0.12909262725152076
0.12980012268992142
0.13034680956974626
0.13004487881436944
0.12885418199701235
0.12839044000953437
0.12887071688426657
0.12951964747859165
0.13008973408956082
0.13013115368084982
0.12875881883548573
0.12733032102929429
0.12634129486978055
0.12644015274941922
0.12459343535825611
0.12152961534215137
0.11846373823704198
0.11654130321228877
0.11600610501831397
0.1159190921112895
0.11609113121870905
0.11663706895662472
0.11706474112113938
0.11701262669172138
0.11645106346346439
0.11589308171533048
0.11563362672924996
0.11540402579819783
0.1149207105417736
0.11481203504139557
0.11456285613123328
0.11497188332956285
0.11537524105980992
0.11534492310136557
0.11532774915685877
0.1154179334663786
0.11552672722842544
0.11549800449982285
0.1140340930223465
0.1107104555121623
0.10762337715132161
0.10700412289239467
0.10606754168402403
0.10325157044455409
0.09966047427617014
0.09735956621356308
0.09692986190086231
0.09704190951306373
0.09680184001568705
0.09557716285577043
0.09539702923735603
0.09575099310372025
0.09557687430409714
0.09529341774992645
0.09517595040844753
0.09489725289633498
0.0943840259523131
0.09390246191760525
0.09345282999798656
0.09292980742873624
0.09240743905538693
0.09243585425429046
0.092270883473102
0.09207531030522659
0.09212972824927419
0.0915016808733344
0.09000483482610434
0.08816533021628857
0.08720535142580048
0.086704740638379
0.08489005658775568
0.0823683291207999
0.08015332049457356
0.07948135977378115
0.07934636989375576
0.07922947378829122
0.07928197216941044
0.07930784480646252
0.07898748869774863
0.07889334227889776
0.07906612835824489
0.07897440657485276
0.07972467686748132
0.08097942203981802
0.08165140466531738
0.08121268337126822
0.08085391774307936
0.08091848130337893
0.08104789922013879
0.08084921712754295
0.08038067071931437
0.08005358602385967
0.08020722684217617
0.07986882976256311
0.07877269461285323
0.07739464622689411
0.07616562779061496
0.0757060574227944
0.07550405186833814
0.07535313402535394
0.0753886652411893
0.07523134473478421
0.07542095656273887
0.07618945294991136
0.0771657661977224
0.07743023962015286
0.07781098956242204
0.07852623972343281
0.07925233346177266
0.07955085823079572
0.07967259044991806
0.0799832324241288
0.08001823997823522
0.08001714917831122
0.08026639054296539
0.08065117017133161
0.08097551118815317
0.08112024590838701
0.08074848162475973
0.08030361586250365
0.08019298702944071
0.08040975737851114
0.08081558034056797
0.08114371272735298
0.08104495748877526
0.08077055624686182
0.08041145102586597
0.08014644381357357
0.08066790024982766
0.08042395466472954
0.07981722061056644
0.07934976082062349
0.07911324210697784
0.07909851606935263
0.07892800675239414
0.07818792957579718
0.07769617705838755
0.07768345967167989
0.0777779389708303
0.0778556351060979
0.07818652500631287
0.07799058299744502
0.07762906861258671
0.07740268220193684
0.07688346476759761
0.07601880988338962
0.07538139944896102
0.07543821165338159
0.07588468777248636
0.07608519128290936
0.0758502760110423
0.0753667038725689
0.07510627506999298
0.07539099258137867
0.07579213216667995
0.07535061800619587
0.07506365858018399
0.07519628213951364
0.07558705870294943
0.07570511935977266
0.075078174774535
0.07463534400099889
0.07465960761532188
0.07471645475598052
0.07487658392637968
0.07499450669856741
0.07492394391214476
0.07490625240141525
0.07505520050181076
0.07515034492360428
0.07521992543712258
0.07524272273294627
0.07464527666103095
0.07373760314425454
0.07308440475724637
0.07307792830979451
0.07243026005802676
0.0713847031048499
0.06990119341760874
0.06879071115283296
0.06893461029278114
0.06827529296278953
0.0680150370975025
0.06850898730568587
0.06918153028469533
0.06979323651874438
0.07060893514426425
0.07147624318953603
0.07185764892026782
0.0720850188471377
0.07295669401297346
0.07392035061027855
0.07443042212864384
0.07429222757462411
0.07458335255738348
0.07447715172776953
0.07405833369353786
0.07397288335952908
0.07428607784211635
0.07377535574603826
0.07279368617804721
0.07168543284758926
0.07114496041554957
0.07101333792321383
0.07113223732216284
0.0712538784998469
0.07127265384653583
0.07122294910717755
0.07108571254182607
0.07095801658462733
0.07090894401771948
0.07065728169865906
0.07068836203077808
0.07102267674403265
0.07137790434062481
0.07171488848049194
0.07193000518484041
0.07180999366566539
0.07191347326152027
0.07189066959545017
0.07128343331161886
0.07034941909834742
0.06947095282608644
0.06899561816593631
0.06900725138606503
0.06899733915459365
0.06867259527556598
0.06841840269975365
0.06855133888311685
0.06831526215653866
0.06826961088692769
0.06793713797116652
0.0678244602540508
0.0679474052740261
0.06805423568701371
0.06827516266144812
0.06851152120390908
0.06805263394722715
0.0679091504169628
0.06831722512142732
0.06898047805996611
0.06935543159721419
0.06882653024978935
0.06859769242117181
0.06860094890231266
0.0686475997371599
0.06866587948286906
0.0689583114697598
0.0701509347045794
0.07163323720917106
0.07164931027451531
0.07165166691411287
0.07273219609865919
0.07439417868852616
0.07536599545972422
0.07534678472205997
0.07570087160216644
0.07548333427403123
0.07494166092248633
0.07477675047470257
0.07506769866915419
0.07524464057292789
0.07515402941964566
0.0750430897786282
0.07525794611545279
0.07504339971346781
0.07458720386959612
0.07436342095257714
0.07442201305180789
0.07461790027562529
0.07480191681766883
0.0750052022258751
0.07523284758906812
0.07511485583381727
0.07519767530029639
0.07556791348382831
0.07591928761452436
0.07616648258641362
0.07617745881667361
0.07631504561752081
0.0764642103225924
0.07689356981543824
0.07623840778134763
0.07542281409958378
0.07526834800839424
0.07562365994788706
0.07546280632726848
0.0757457343605347
0.07592143705580384
0.07569702955661342
0.07619271297473461
0.07674056812888011
0.07682172713568435
0.07686426626518368
0.0773110732389614
0.07751837308751419
0.0774917591526173
0.07746172078652308
0.07742681183386595
0.07715987829724327
0.07715066996635869
0.07779177810065448
0.07804729356663302
0.07740700636757537
0.07640855287667364
0.07607016907306388
0.07564010440604761
0.07464546374743804
0.0738519376469776
0.07407439557136968
0.07483870695112273
0.07502414712915197
0.07529553347500041
0.07598581899888814
0.07619241911917925
0.07588977182516828
0.07543920547002926
0.07542524804593995
0.07572151185013354
0.07575362750794738
0.07568349202396348
0.07584933721227571
0.07604940816294402
0.07619166845688596
0.07641033503692597
0.0762176573392935
0.07623525839764625
0.07604984983801842
0.07597711943555624
0.07621792928315699
0.07613807964371518
0.0765049646073021
0.07739015257917345
0.07814839235274121
0.07842684044968337
0.07853536477778107
0.07870125756133348
0.07880043815355747
0.07894295993028208
0.07915938564809039
0.07931392443366349
0.07919556032633408
0.07990492041688413
0.08060702511342242
0.08072361594298855
0.08039646798279136
0.08031433218857273
0.08006439313758165
0.07963491708505899
0.07921489805681631
0.07930303695378825
0.07969067768659442
0.07991322993068024
0.07978812927147373
0.07965189058799296
0.08002839733147994
0.07966727710096165
0.07858362054917961
0.0779852881631814
0.07814825343433768
0.07855212086346
0.07846809548791497
0.07830870532197878
0.07878989811288192
0.07904905241681263
0.07886029795045033
0.07851844947086647
0.0782213652227074
0.07784707083599642
0.07808808744419365
0.0787409938289784
0.07918873979477212
0.07937882155878469
0.07946137875085696
0.07985224545700476
0.0802393089258112
0.08041296218987554
0.08033463375642896
0.08044299012282863
0.0805038293171674
0.08030361692653969
0.08026754142018035
0.079980945258867
0.07952453418402002
0.07885550684528425
0.07859025331912563
0.07846446280367672
0.0782645096653141
0.07823627309175209
0.07810053258901462
0.07727661503246054
0.07629511509556323
0.07566838823724538
0.07586782337166369
0.07592692164704204
0.07578089706832543
0.07569668605923653
0.07533317315392196
0.07506927314447238
0.07529936659149826
0.07563305429881438
0.0756298679416068
0.07580616993363946
0.07604705199366435
0.07618342661997303
0.07562126596225426
0.07503303674748167
0.07454997649881989
0.07425248759565875
0.07418703653849662
0.07433527219109237
0.07410402340814472
0.07372905017808079
0.07348266030661761
0.07337809728458523
0.07331156785599888
0.07323992175515741
0.07326573769096285
0.07307443339843303
0.0729881670488976
0.07326005715178326
0.07352500545559451
0.07359443149762228
0.07370719754137099
0.0736953632463701
0.07357981246197597
0.0734107726556249
0.07330619464395567
0.07325562280137092
0.0735375789180398
0.07429240824887529
0.07454528886126355
0.07426498175831511
0.07403160427929834
0.073535277901683
0.07303829225944355
0.07311202510027215
0.07345793086569756
0.07320904934313148
0.07262658401625231
0.07192903551040217
0.07136449987301603
0.07126599803799763
0.07120431746356189
0.07117709591984749
0.07112821313785389
0.07139511876739561
0.07117366888327524
0.0698367899749428
0.06851883221184835
0.06843271447345614
0.06810892760753631
0.06692231719614938
0.06552218722645194
0.06473510212730617
0.06484681976726278
0.06439776979852468
0.06432651310460642
0.06436995915835723
0.06425589242484421
0.06413871140452101
0.06392030987190082
0.063889468354173
0.06388724104966968
0.06380348874721677
0.0637498744437471
0.06373295540455728
0.06361808039480821
0.06347829851554707
0.06335182128008456
0.06319341561757028
0.06304141093743965
0.0630621511489153
0.06331231974065304
0.06320692024193704
0.06278607980348169
0.062268524107057605
0.06220999873476103
0.06249903185060248
0.06239683200139552
0.06221596229821444
0.062252928216475996
0.062481045096646995
0.06221681263763457
0.06209820569958538
0.06252342299325392
0.06340309261344373
0.06337680402444676
0.063011716499459
0.06282422507181763
0.06191851882496849
0.06101970024174079
0.06060642791213468
0.06059212773805484
0.06043228012975305
0.060454822226893155
0.060731194133404644
0.06096983836963773
0.061212926853913815
0.06132734181825072
0.061086785343941304
0.060470331928227095
0.059932900858111676
0.05992557110497728
0.06026461676927283
0.06039076795801521
0.060430682715959846
0.060655977707356215
0.06068454368738457
0.060080919640604406
0.05920362057629973
0.05876531076850369
0.058504482391290365
0.058022349092643706
0.057875080418307336
0.057968556403648105
0.05810853979084641
0.057917752056382596
0.057763206325471404
0.05784987671999261
0.057808082185219975
0.05747915091458708
0.0570451938174665
0.05654938533436507
0.056486835135146976
0.05686050294199958
0.05671681794337928
0.05666153070982546
0.056476536733098326
0.05591407998930663
0.05577543341554701
0.05586604275042191
0.055610457027796656
0.05511106781195849
0.05479323914041743
0.055031015241984275
0.05510131006129086
0.05511720726499334
0.05496904893545434
0.05462408871157095
0.054376595297362655
0.05449549428652972
0.05386351226130501
0.05338346553733572
0.053525052587501704
0.05403065630700439
0.05398173920577392
0.05421574766980484
0.05463121377164498
0.054983347032684836
0.05485466822516173
0.054385941633954646
0.053894015678670255
0.05363602785859257
0.05336994235403836
0.053091234960593287
0.05321664854884148
0.053800725848414006
0.05397230337141082
0.05359714830061421
0.05320092616369948
0.0530074128578417
0.052787520948331806
0.05243350801058114
0.052196169157978145
0.05201183835742995
0.05177036593435332
0.05157945986138657
0.05171486846636981
0.051405527216847983
0.05087662844685838
0.05083541991887614
0.051484569180756806
0.0523626978835091
0.05292458517476916
0.052924755909480155
0.05325081678107381
0.05461799341486767
0.05624210240319371
0.057469045110046864
0.05778727714670822
0.058178575551137326
0.05853676973609254
0.05851541385985911
0.05870536756701768
0.0586820467072539
0.05848764780210331
0.05844155041500926
0.058757048277184365
0.059231687483843415
0.0593198991753161
0.05930552932433784
0.05921391251729801
0.058882578429766
0.058649025352206084
0.05888496998464689
0.05928625451400876
0.05964220912195742
0.059688224755227566
0.059441006514243784
0.059240127843804655
0.05948992622317746
0.05932021322427317
0.0591270532971248
0.059178214496932925
0.05916573071619496
0.05893924617907032
0.05866446556756273
0.05831970547325909
0.05803643573774025
0.057954963783267886
0.058073969357647
0.05815201797056943
0.05803235369967297
0.05779332722304389
0.05752705986145884
0.057273006059695035
0.057085520692635325
0.05712449413724244
0.056892643491737546
0.0564518459700048
0.056212039988022294
0.0562448361935094
0.05605536360526457
0.055942696549464016
0.05627820325549692
0.05698286320082843
0.057794012937229126
0.05845432076137513
0.05836061085574329
0.058039484338369224
0.058370552505366505
0.05892338158329949
0.05912746465066448
0.05952260157559067
0.059917422865983096
0.05983019049046561
0.05941192958736792
0.05911333599127829
0.05902599400375039
0.05917720797006041
0.059376709475182
0.05938680697465316
0.05934696400538087
0.05934064779197797
0.059314423447940495
0.059243744960986076
0.05926654822425917
0.059579219368752094
0.05981642454862594
0.05970262006856501
0.05945627562236041
0.05918636107817292
0.059059973270632324
0.0588781487615779
0.05891791185364127
0.059105973166879267
0.05894915894139558
0.05893835327588022
0.05891685789218173
0.058656302220188083
0.058633315633051096
0.058616178187076005
0.05871590892784297
0.058929819117765875
0.05904493121663108
0.05900863097282127
0.05908963348018006
0.05931499309372157
0.05960464387899265
0.05981584137072787
0.059674719898030165
0.059703986800741404
0.060287983673624694
0.06099660553969443
0.06131485853344202
0.0614700474939309
0.06177571912063286
0.061952389732468874
0.061882863859646024
0.06149167129071429
0.060931175129953774
0.060616213283501565
0.06047199396416545
0.05999497778480872
0.05929215246113017
0.05847679656930268
0.05789449699921533
0.05777047564974055
0.05786714311689138
0.05790119101991877
0.058055532288271934
0.05879397109150886
0.05992249084636569
0.06116729714907706
0.06180256297113374
0.06162248675245792
0.06251817257376388
0.06401520983781665
0.06549718269146979
0.06637309898622334
0.0664511868194677
0.06650905686663464
0.06629252074053511
0.06602659471333026
0.06589283160166814
0.06604375811293721
0.06610594477038831
0.06613976387307048
0.06633757550502196
0.06652837767964229
0.06666764397872611
0.06671168817207217
0.06665421949932351
0.06663286983966828
0.06685376443201677
0.06742541156709195
0.06812466053990647
0.06845142598031088
0.06837880404200405
0.06852269941940904
0.06918719151988625
0.07004263481125235
0.07070956676499918
0.07063071713550016
0.07039126008283347
0.07041952535277232
0.07038313012802973
0.070174957329873
0.07007993871113286
0.07002527806442231
0.06944234314374625
0.06895377621753142
0.06891949646873399
0.06916174368932843
0.06907482347916812
0.06894662071950734
0.06891291094012558
0.06895483040716499
0.06890625262400135
0.06862751585431397
0.06864836951717734
0.06881266382988542
0.06869258372345939
0.06820681029465049
0.06804871226195246
0.06864641461754217
0.06889519873773679
0.06850543101318181
0.0683888210868463
0.06862144133308902
0.06904065631562845
0.06940856492146849
0.06946948903845623
0.06949915140867233
0.06950057190842926
0.06912008447339758
0.068879772759974
0.06893929475685581
0.06940645386232064
0.06987291465513408
0.07005952331703157
0.07044607687974348
0.07083885508356616
0.07063905938062817
0.07079809559509158
0.07122868802631274
0.07138211648911237
0.07138451740611344
0.07192098719067871
0.07264133987016975
0.0726400842377916
0.07195253776852041
0.07140011981362476
0.07053633810952306
0.07035406443756073
0.06998036712408066
0.06895608048886061
0.06789687005104497
0.06708795945392922
0.06687026137718931
0.06664619454182684
0.06643373271683231
0.06629534035921097
0.06612925221212208
0.065808177201543
0.06536786599084735
0.0647015997604467
0.06410328533500433
0.06372154407668859
0.06376886172452942
0.0638279362465255
0.06391239928547293
0.06413775618188083
0.06418692781357095
0.06393114636652171
0.06370060914196074
0.06344191306270659
0.06342239976860582
0.06344385565957054
0.0633083187090233
0.06317241209093481
0.06306697153253481
0.06290652129566297
0.06271625683875755
0.06264387938892468
0.06265490439487621
0.06279833449516445
0.06299879166530445
0.06299121604766697
0.06309853771468625
0.06325417896034197
0.06338208212982863
0.06365073697641492
0.06403795092599467
0.06407483163289726
0.06482455159304663
0.06577495304169133
0.06603755733929574
0.06644518841989339
0.06703154752729461
0.06722404121421277
0.06713214371586218
0.06704198819119483
0.06698965778574348
0.0665540629834868
0.06575762926600874
0.06479169077239931
0.06413002393906936
0.06432445049053058
0.06455015736632048
0.06441408925922587
0.06407794252969325
0.06363675846718252
0.0634177930234
0.06320320724742487
0.06312698155641555
0.06311449619242922
0.06331018952419981
0.06362679441226646
0.06347909552277997
0.06368663749191911
0.0641307426430285
0.06428995309397578
0.06425801692763343
0.06429380492307246
0.06429904184537008
0.06411929761758074
0.06367074140347541
0.06333319098223
0.06311345597729087
0.06298691857373342
0.06301247098017485
0.06306725178146735
0.06334435346536338
0.06351864220574498
0.06368051743833349
0.06404080523177981
0.06407204962102696
0.06421220713295042
0.06457941779866815
0.06466488159261644
0.06452382246730849
0.06420822236686945
0.06383253214182333
0.06378052388317883
0.06394121049903333
0.0638425044901669
0.06383503064978868
0.06383183034835384
0.06385768794687464
0.06400166199775413
0.06364316361723468
0.06302775812568143
0.06237326981499791
0.06211046109907329
0.062085264439228925
0.06187595219584182
0.06158935071900487
0.06141710813622922
0.061636545048095286
0.06220424372237176
0.06273047446506098
0.06284122637705877
0.06295034336391836
0.06334476208779961
0.06393790051573887
0.06440759146818892
0.06447982067242265
0.06447624662425369
0.06456579792546108
0.06449876103550195
0.06412257992196828
0.06340100731700658
0.06258844283642247
0.062162130658980456
0.062098927553743126
0.06120825173100457
0.05988310376880691
0.05865082832751796
0.05805549056036398
0.05801261858548969
0.058063743030652405
0.05839478331618011
0.058617601136211304
0.058654009932652115
0.05865608279360458
0.058839466706849634
0.059038397995755075
0.058986665825359524
0.0587454321468249
0.0587391270743683
0.05902759024174884
0.05940831604180857
0.05954177382402122
0.059203680490609256
0.05858103448292241
0.05808543896535411
0.05754978441866115
0.05780976692214608
0.05808950010221452
0.05766903744079173
0.056764015301596374
0.05629642414627597
0.05664667697623372
0.05716262515867129
0.057155711592640726
0.05735984962666407
0.05785021535353735
0.057936183311976495
0.058036647024564444
0.058323840301018205
0.05829191436758265
0.05797984451986849
0.05777510116109624
0.05776522657368332
0.057775391181930896
0.057597051069606095
0.057244259691797195
0.05704179416410625
0.057207910304423425
0.05713303904281929
0.056911172976251694
0.056821613770443945
0.05723371225874871
0.05744714502710849
0.057130558651406316
0.05676104513928294
0.056664741213899104
0.056750880582258106
0.05700006532715633
0.05719941254938021
0.057117928720545025
0.05724035228136927
0.05777261022245511
0.05830614572390914
0.05869093291461468
0.058396170404739677
0.0585838754940778
0.058973102050367744
0.058985435008071366
0.05880151342367754
0.058552654357627035
0.05797201527049765
0.05785861407173797
0.057642933395691216
0.0577101572882384
0.058162165752146396
0.05839666542131454
0.0578012082260102
0.057044011834077535
0.0566160272131674
0.056431809230707584
0.055918822668027134
0.05577260402729735
0.05563901485409588
0.055837098471820355
0.05580224101897329
0.055141848677303644
0.05452031509252265
0.054489040449261665
0.05455259147565812
0.05449503335636109
0.05447235951200127
0.054528097447473556
0.05459935519145802
0.054616966110188514
0.054619508730247616
0.054439895728137344
0.05421069556847215
0.05399437479674816
0.05375305586727336
0.05345848161960021
0.05312643357086927
0.05305553938494995
0.05322278432315215
0.0532443441147916
0.053369094317313286
0.0536291484744288
0.054162059160880745
0.0550457998435013
0.055916914388071746
0.056247816730756316
0.056264942903071644
0.05714336188742891
0.058411964073311534
0.05936575539410114
0.05960675521520898
0.05940346043789759
0.059406953097786756
0.05952611316693947
0.05956241135951132
0.05937521777581423
0.059030589987523856
0.058808861169964075
0.05918436493258923
0.059099304138217124
0.05907731401734054
0.059881854825653134
0.06045683468692005
0.06025791463209316
0.06055011280113831
0.06174511353718117
0.06317669696640223
0.06421954719582573
0.06448216130957007
0.06496176139451564
0.06559922507032752
0.0658037210535258
0.06548911294667051
0.06489871605066583
0.06433359530055896
0.06409147113095968
0.06427506462903693
0.06426775015192106
0.06408975446363911
0.0638884317362681
0.06394882552558556
0.06396168183535338
0.06389097396982833
0.06410296758636833
0.06388743828050793
0.06365940481191501
0.06364294798113405
0.06373002518201247
0.063587492571678
0.06335793046513573
0.06313167714281008
0.0634641433111392
0.06402494587004184
0.06442302644718438
0.06451419013552367
0.06510551096638664
0.06590346238110215
0.06652163035236298
0.06663770779035985
0.06627215639222413
0.0659352129488252
0.06580307706492022
0.06559196490794421
0.06528837908990681
0.06547244512476028
0.06619291896466166
0.06733594375196844
0.06860962046310305
0.06936346390517428
0.06940847155172378
0.0699018508149311
0.07061576168984175
0.07115827955771238
0.07134267067536712
0.07138823381159455
0.07147412974620238
0.07151781815569848
0.07198648842982948
0.07253134087426588
0.07250783521914855
0.07243962892564014
0.07248566315043718
0.07252844266360625
0.07238456816179678
0.07188021331327037
0.0714601692557335
0.07153011291287839
0.07142766099656
0.07093640301609412
0.0702697248221375
0.0697008362528868
0.06947373816045001
0.06945674606133252
0.06963148653972893
0.06997075499268249
0.07005766164278611
0.06963314257096499
0.06888313823146745
0.06841867969138547
0.06839238992892206
0.06847221940523013
0.06850876544369384
0.06815238866722212
0.06812517823651433
0.0686657154164277
0.06884573003975675
0.06854307745816186
0.06875752309570089
0.06903968737460672
0.06891866363584995
0.06891247787512839
0.0690321537014097
0.06904523705132305
0.06955020532477647
0.0702900821599178
0.07041906189406291
0.06980122400447726
0.06949655547970907
0.06950423310743645
0.06963711980264634
0.06944807152030989
0.06965300531126559
0.06942084104986862
0.06887344735208899
0.06867343799211084
0.06872463916195556
0.0684849805268459
0.06802996401442214
0.06751790618291124
0.06735114098992198
0.06708117456873879
0.06659993394045159
0.06644242096459493
0.06633969899499789
0.06617808759445325
0.0661519464245066
0.0662407630844973
0.06624565563863144
0.06617687729885802
0.06607662979047746
0.06601358408108354
0.06608259753324092
0.06630303038517013
0.06670217757346109
0.06725746112409979
0.06757267843233422
0.06744034151313827
0.06722592123318463
0.06717936852946878
0.06743082890985534
0.06759433093480766
0.06765689138090238
0.06746875516138971
0.06687045750906691
0.06646154280519113
0.06664414412109182
0.06682270074263215
0.06622968665556982
0.06597973263822496
0.06611604243284092
0.06661521220812575
0.06644000515108928
0.06582257505273446
0.06531048698117957
0.06529066524002701
0.06534931340254843
0.06563097132137045
0.06565481018740683
0.0659300131141208
0.06625518625136465
0.06639729525661096
0.06625143685145303
0.06641943020978942
0.06652743065729737
0.0665942752873525
0.06700609541730955
0.06772844887338579
0.06858197369612754
0.06913755997084081
0.06901528332382441
0.06898923972854391
0.06965063414536417
0.07043458674335852
0.07067616955842823
0.07042169239372015
0.0702703371993266
0.07040426786290482
0.0704473430593498
0.07040989022469148
0.07070902012754232
0.07133480358170345
0.07197185329161584
0.07231074404902756
0.07238108023768292
0.07274738487554715
0.07316168532706797
0.07345691353548318
0.07344084388343618
0.07324239164823666
0.07312891180394217
0.07306027401005849
0.07285662338137627
0.07235817084554583
0.0716177962301299
0.07097564086085185
0.07086035094223916
0.07095690047601239
0.07007246367167681
0.06885778664844111
0.06796688667032867
0.06757244838168845
0.06769953089766205
0.06789137411862611
0.06762486716732383
0.06757112667197361
0.06802535038208589
0.06833879300160334
0.06854887974681333
0.0691400587768294
0.06931909285718575
0.06856565940659493
0.06786105684470385
0.06745326349511743
0.06762784653576091
0.06741610040888191
0.06619832179974765
0.0647874129167758
0.06402314246864989
0.06416653333930299
0.06377193331485614
0.06329884079052135
0.06317883304320276
0.0632296333531849
0.06336701953783631
0.06353695895522833
0.063589323728811
0.06365671619772911
0.06412309733219444
0.06491092955460771
0.06542947210138664
0.06534574657678605
0.06540902606444433
0.06568589122965932
0.06602040571626276
0.06627487251535058
0.06639590440783649
0.06633035757346079
0.06636436208616942
0.06670024248538539
0.0669312352500856
0.06713452711934224
0.0670299061643891
