0.010255805810447782
0.01026514012599364
0.010259158351691439
0.010243430649279617
0.010229848992894404
0.010232010838226415
0.010240649560000748
0.010240154762286693
0.010237109578447416
0.010239925207570196
0.010241560179856606
0.010243802760960534
0.01026409435493406
0.010303689406136983
0.010342738578910939
0.01036683717451524
0.010368260277318768
0.010342545558232814
0.01030337363597937
0.010276866590138524
0.010282008244539611
0.010325741136912257
0.010383584993542172
0.010377622614032588
0.01036088250693865
0.010321266333339735
0.010297532884287648
0.01027102971507702
0.010230943753267639
0.010215718674007803
0.010238060968113132
0.010266614080755972
0.01028536027064547
0.010297507173963822
0.010301723660086281
0.010296047737356276
0.010278354155598208
0.010251669680001215
0.010232380088418723
0.01023127231223043
0.010236565159866587
0.01022716915642377
0.010197046935209073
0.010162159090978094
0.010148130789166316
0.010169215163914487
0.01020807028049603
0.010232272618450224
0.010232636869186535
0.010224557142355479
0.010220899469568395
0.010219244737527333
0.010219948717858642
0.010239697155193427
0.010282081473851576
0.010316527749528176
0.01031815257796552
0.010298291094368323
0.010276971996645443
0.010264106753165834
0.010258244734141045
0.010244434275082313
0.010225851281429641
0.010235148987267167
0.010281158534344286
0.010329796107835137
0.010353051268029958
0.010352720730588771
0.010340212853625417
0.010325717203086242
0.010318906928878277
0.010318100214935838
0.010305573251098394
0.010275984074687584
0.010245679607614876
0.010215055787703022
0.010162997614825144
0.010091468365862966
0.010040887078503147
0.010038939728401601
0.010064290704904125
0.01008529341313988
0.010088791850721463
0.010075413748854772
0.010077134998282418
0.010129439086886122
0.010194485251558945
0.01018529768101871
0.01014645519782789
0.010146380082005635
0.010099913597805425
0.010101711370516568
0.010104284760309383
0.01009616268100217
0.010086250849999487
0.010092025734484195
0.010116390867624432
0.010128453118959442
0.010109678792068734
0.010085793561302125
0.010098719591042027
0.010156251478474588
0.010212185232667252
0.010228658524574712
0.010223779367515817
0.010219392852159217
0.010206075741443783
0.010184876136481762
0.01018834887072444
0.010229936802061275
0.010270822381135076
0.010276859406149015
0.010257309075677767
0.010228669331409037
0.010202087949728593
0.010190476950956508
0.010194612049963326
0.010209473547292873
0.010235761913936586
0.010259361778153106
0.010252368521178142
0.010221830466762186
0.010208197045139969
0.010220334861660376
0.010237317259889096
0.010257496237754822
0.010288798371329904
0.01032530415104702
0.010352315860800446
0.010355953705729917
0.010335433926666155
0.010308727453229949
0.010296595458639786
0.010298017298337072
0.010300011641811579
0.010303033024538309
0.010306473438395186
0.010304833436384797
0.010304976447951048
0.01030151805258356
0.010278388968436048
0.010255954611347989
0.010270927986130118
0.010317464385880158
0.010357288346858695
0.010376572117675096
0.010389849224593491
0.010395631084684283
0.010384685104945675
0.010362580344080925
0.01032598283723928
0.010281726846005767
0.01027144885272719
0.010305350007256494
0.010330824317643419
0.010319538175826893
0.010321257130708545
0.01038780361530371
0.01039931074832566
0.010433500516228378
0.010383131245616824
0.010316021743929014
0.010278723263181746
0.010269661870552227
0.010276738799875602
0.010292815231950954
0.010324677178869025
0.010361514083342627
0.010364081050502136
0.01033459794591181
0.010309699303470553
0.010286179480608552
0.010256264806957915
0.010248977794544771
0.010266142612090334
0.010267301633721217
0.010241242243209854
0.010209219065727667
0.010169207711005584
0.010108199357055127
0.010048243792261928
0.01002598348655738
0.010034970777342096
0.010033293373417108
0.010002264354843646
0.009950425507267937
0.009897743621841072
0.009885775475995616
0.009933436554856599
0.009995212507201359
0.010026914464542642
0.010041241167346015
0.010055451046209783
0.010053014605073258
0.01002526181167923
0.00999005871010013
0.009961549513973296
0.009938773127505556
0.0099165669886861
0.009895055817905814
0.009881843745242804
0.009880150477401912
0.0098842270555906
0.00989368726266548
0.00990885691717267
0.00991844891803339
0.009919247584184632
0.009923180014593526
0.009939022025791928
0.009971912221517413
0.010015291481977329
0.01003616930451244
0.010008117835968732
0.009951669131405652
0.009905405729077756
0.009882741629844531
0.009885388734983281
0.009911555998260156
0.0099359710898716
0.009930122992955148
0.00989536132197827
0.009854857120662927
0.009839792717248202
0.009871549759991468
0.009932965305633843
0.00998413007822819
0.010015126497019083
0.010044628113973886
0.010066322460770607
0.010058934269472956
0.010036509830970318
0.01002184119890444
0.010008125979220494
0.009991598239867016
0.009990101243602112
0.010009185336530209
0.010030585698550566
0.010035557814408094
0.010023128075990826
0.010008204395417124
0.01000139294192195
0.010000501273898408
0.010005846517160535
0.010022691952763126
0.010043897335417568
0.010060707345837727
0.010082001644186676
0.010101734326453879
0.01008505531703122
0.01004386981483549
0.009990513398079201
0.00995991018600762
0.009953665893990547
0.009940001060022042
0.009928235780680552
0.009946562385885045
0.009974213857203722
0.009977563944412396
0.009975483756279572
0.009998822372872383
0.01003918366273865
0.010070474550593645
0.01008284062729217
0.01006948047899641
0.010008992011426016
0.009917495013214648
0.0098409098375123
0.00982562750345096
0.009845550373429433
0.009859175296733157
0.009856955579016358
0.009855344011448323
0.00986953112646006
0.009896076143486426
0.009931803152430802
0.009983501903479918
0.01003792991861701
0.010065968355629593
0.01006066570058465
0.01004116314346902
0.010021918278653175
0.009997257207287476
0.00996871166396886
0.009953951173229144
0.009942197173368186
0.00989509056787938
0.009827388521516696
0.009821623135358094
0.009857484097592533
0.009883740956429393
0.009961646753363312
0.009953960657585413
0.00990715078311041
0.00987320404383354
0.009874646018724889
0.009894963321276009
0.009900791682302951
0.009882697082357481
0.009855625021737069
0.009827156196115539
0.009772320364136248
0.0097021105280146
0.00968232899555005
0.009733525292249396
0.009775245334021748
0.009758857935667038
0.009736315807094798
0.009743119250051677
0.00974218313000165
0.009710269395727665
0.00968421129626222
0.009697479106253014
0.009739702987717464
0.009786502253264188
0.00981992241111584
0.009836677499115466
0.009845070531591773
0.009846244915388524
0.009840424509020522
0.00983242945978418
0.009823658611858264
0.009824664344778284
0.009853467468637973
0.009899499294115231
0.009924875035649166
0.009915494340239092
0.009890075088478625
0.009868595118168741
0.009868624387308955
0.009896390854846686
0.00992937808856368
0.00994332407368347
0.009935643916251138
0.00990998920169659
0.009873274338897318
0.009842694301623852
0.009831487231422216
0.009830573421204462
0.0098170709121041
0.009793304847553372
0.009789320112904534
0.009805777439614758
0.009803908332251011
0.009770774535136298
0.009733202604111283
0.009703198227798566
0.009683567319298163
0.009697748617036268
0.009744434249587357
0.009778373929439112
0.009780600449303165
0.00978329855715856
0.00979263657121919
0.009769722778582946
0.009716206372249871
0.009684254806488752
0.009690068130148576
0.009696605268400162
0.009684302367968484
0.009668565356405453
0.009648557453183458
0.009615553142502904
0.009589060475118458
0.009592343394178898
0.009627562608802692
0.009660686037968845
0.009633125170366838
0.00962676964700222
0.009607186652719974
0.00960777836968191
0.009631342296488583
0.009663521229522304
0.009705839441157877
0.009741077788639814
0.009762483665253967
0.009779568272642791
0.009787028488935902
0.009776122432667763
0.00977102350909263
0.009765435314038768
0.009754494240041822
0.009733116291463374
0.009721488647628576
0.009742515123216436
0.009786266860319302
0.009824207490310074
0.00983849684940651
0.009830085892463102
0.009821137035032734
0.009833125125151127
0.00985004160902463
0.009850792302750051
0.009858774935128167
0.009893387423362583
0.009926651787245645
0.009942563707008958
0.00996104208054021
0.0099774629145395
0.009968829246936366
0.00994493801961653
0.009924587944988161
0.009915132634341716
0.009927088632248343
0.009958263204898685
0.0099870782031212
0.009993504974991083
0.009976327859330923
0.00995712760137394
0.009955597975058482
0.009961074934108183
0.009950014712521806
0.009929093921091408
0.009927154938923195
0.009944577178684995
0.009961526958504692
0.009985600628424436
0.010032667841296644
0.01008012903155759
0.010090312835527583
0.010064894045935944
0.010042154078837484
0.010046710764290765
0.010061760259559379
0.010059789303923025
0.010035954136401414
0.00999739849474281
0.00995604704366997
0.009930491335690022
0.009930756948888302
0.009947367877466605
0.00995828367304057
0.009952636572998018
0.009942032443359495
0.009935763358371333
0.009921986863482744
0.009889740261714906
0.009855850115418435
0.009843320734798908
0.009840200589969754
0.00982597256777808
0.009816931925015523
0.009844153699232265
0.009884673620108515
0.009896809287602082
0.009881961646024139
0.009871265952242539
0.009872684009606019
0.009879005255643279
0.00990707599441521
0.009943356832955032
0.009977006508270278
0.009985100422054529
0.009984887756872922
0.009993317003827542
0.009978868033504113
0.00994142148992978
0.009921997125493362
0.009916197998682036
0.009892060437705368
0.009869767352938652
0.009887707600137218
0.009933328090701252
0.009967327502090484
0.009985860886517912
0.010021944902837277
0.0100760520552285
0.010120770796202123
0.010116355903446674
0.010076403858838602
0.010033980844309554
0.010014768546679988
0.010019046178786083
0.010023445290280507
0.010019712367793546
0.010022096886532382
0.010032536358339712
0.010036329106660559
0.010026028355350719
0.010011157654225826
0.010002677354495972
0.010001119103981182
0.010004387284861877
0.010007422579219565
0.010011461799731478
0.010040646047564224
0.010111462289933116
0.0101942806574516
0.010233512064442039
0.010193087190855295
0.010130764581263066
0.010042942594736814
0.010034759829286486
0.010087869809940458
0.010135813893284648
0.01014560325187631
0.010129901067120955
0.01012006928678602
0.010140494668157772
0.010185038361232728
0.010231982105178759
0.010282367273466661
0.010315679986961186
0.010283265875186772
0.010181082613999025
0.01009613077272661
0.01009747142670676
0.01014603084186092
0.010164145028684289
0.010132940139155834
0.010094479551771656
0.010075741545297206
0.010059990508016198
0.010030336765339598
0.009993534776149317
0.009975518167484551
0.009984772744355724
0.009992179533001036
0.009983184996526688
0.009973706008167937
0.009978451632196083
0.010003209152491763
0.010021818683017046
0.00999064970179461
0.009932246144162491
0.009914579855976626
0.009934370478149504
0.009937731688842178
0.009918250048067422
0.009893487672088667
0.009866643772693352
0.009859207161935047
0.009889855016954243
0.009932404782157392
0.009957884323084728
0.009968979296972975
0.009976611169986428
0.00998909522080794
0.01000829463126138
0.010024710623547435
0.010036107094492763
0.01005019073956646
0.01005774931749329
0.010041412911377848
0.010009737325599417
0.009985871569951996
0.00997385011636652
0.009956854317570105
0.009927003459306433
0.009900962973479182
0.009897989745950327
0.009918194391066209
0.009939822318265214
0.00994337018346414
0.009941820595413446
0.009958419654285535
0.009983544908463956
0.009988903099438175
0.009974603309528903
0.009961550943553448
0.009954638954950497
0.009957017677370459
0.0099817179935053
0.01001820585806854
0.01002665820531547
0.009984910126077011
0.009938960515428334
0.009972235977184028
0.010013542881933972
0.010080688112648204
0.010097476663067937
0.010037382439477369
0.00996981649310328
0.009905289933085442
0.009854199070250615
0.009826128125423566
0.009800162303727121
0.009798472705297172
0.009850496591534466
0.009912595321657136
0.009951716853538527
0.009961735216202215
0.009961183426203207
0.009955159726087005
0.009946120593231172
0.009936408394714817
0.009925128079485148
0.00992047882056795
0.009921329207718372
0.009902078631566837
0.009859433573437855
0.009835450684186071
0.009846084882738068
0.009845119779929518
0.009808916868641972
0.009778127294266597
0.00977493477985263
0.009770774020580575
0.009760900440160186
0.009773413430666551
0.009799819068284706
0.00980537526193075
0.009781985558802261
0.009743252313928679
0.009704666618490591
0.00967723247827962
0.009669085593195632
0.009687203507637606
0.00972418933059089
0.00975418136222288
0.009757173333782702
0.009740592221496626
0.009721297537907958
0.009697263195412233
0.009661843631183728
0.009632133855484426
0.009624655152438209
0.0096199338324368
0.009605575606692583
0.009603654323145748
0.00960275103803724
0.009597655440447852
0.009545353086432442
0.009545406434917823
0.009586710614385083
0.009607099732384085
0.009604434119537472
0.009614671602612361
0.009624814733397215
0.009601524655008688
0.00955650956253521
0.009528540405444801
0.009533940114779397
0.009556695867795497
0.009570671414257959
0.009569070470752195
0.009579704721691087
0.009631505066063256
0.009711165727348998
0.00978910323115997
0.00985419016564265
0.009893859159201384
0.009885265603661536
0.009851748949149624
0.009833131935447454
0.009828123399056494
0.009810713529586792
0.009784049512818456
0.009773430125787854
0.009771107280394063
0.009759364635683596
0.009756129472516478
0.009766465948196128
0.009764614598825574
0.009754033552017063
0.009757144178729504
0.009770415528910234
0.009790485961129889
0.009825236566830426
0.009866002950584516
0.009889160846360028
0.009873466369463131
0.009823081236099825
0.009768791228998453
0.00973230390693061
0.009715161073254422
0.009717538023833185
0.009738161583663895
0.00976575376233086
0.009795769713819028
0.009823945328826085
0.009814483938971535
0.009754148486535996
0.009707196487579495
0.009716344446642324
0.009732716849539429
0.00971843626932241
0.009713114001788198
0.009758371274219826
0.009835474593564868
0.009896913485135883
0.009911308930022643
0.009878851426765322
0.009846445885486901
0.009809313548030331
0.009772858063224704
0.009719408446690067
0.009658872154541314
0.009628760553896427
0.00965686704381369
0.009687653831206263
0.00974511491251178
0.00975212553748861
0.009726991832721979
0.009705696203745902
0.009699400416575372
0.009697683921549469
0.009690950415097177
0.009683502595871687
0.009684345511486754
0.009692598688416184
0.009699379635276274
0.009701121536782011
0.009716238967375829
0.009761984152719378
0.009806187844369561
0.009801007020287215
0.009759924656245858
0.009742530853254721
0.00977309262380004
0.009823222556151449
0.00986579735064879
0.009893217034405098
0.009901509241899475
0.009895474310033023
0.009877987820655108
0.009847348781768232
0.00982701258151792
0.00983906839392148
0.009862195256864652
0.00986663810443133
0.009858359469799325
0.009870082410052418
0.009913104670122266
0.009945991886779667
0.009929861369309947
0.009896126483799889
0.009896283985581249
0.009922546708257868
0.009942079483298585
0.009953266278607771
0.009955007113749161
0.009929317891364918
0.00988997524837032
0.009878772051306441
0.009904326520627364
0.009930279334075748
0.00991784896585159
0.009871388897299766
0.009833280158927664
0.009819352572085336
0.009808700451394543
0.009803211896214635
0.009824470073217526
0.009875150599982589
0.009933665605494753
0.009962677223375066
0.00994930314947851
0.009918582565151155
0.009889054532395676
0.009869593272451311
0.009872543937526644
0.009888415943132714
0.009897907761624082
0.009907441848190502
0.00992731100646779
0.009943097167415545
0.009941356121562422
0.009933511001290753
0.00993849582155235
0.00996157354908064
0.009986973162740468
0.009990973300300538
0.009974821208743379
0.009967308681225404
0.009988365944009274
0.010025970020797104
0.010045380869414658
0.010020060557872057
0.009961985365953297
0.009915528062265366
0.009916439552325755
0.009938676650635898
0.009985762858996168
0.010038263901369646
0.010047410287661478
0.010014071707846597
0.009969139392487704
0.009935939657734707
0.009911182213108986
0.009891844944795593
0.009884625988779589
0.009888786979718133
0.00990003593848087
0.009916264017811045
0.009927937072934583
0.009918854881543666
0.009878656617365778
0.00984871551510878
0.009825041249860078
0.009837714914465324
0.009852699768962338
0.00985162935918197
0.009852323225932196
0.009870323175564409
0.009891581458505242
0.009892473105574028
0.009873065706342459
0.009844888675725088
0.009806737841572613
0.009774584076367318
0.00978300858172588
0.009831859015394002
0.009887794917449354
0.009923046567710116
0.009932276306208222
0.009932502291630953
0.009934577634558081
0.009926404466386884
0.009904634408885614
0.009893760320264846
0.009911655824398622
0.009948247892316431
0.00999738423503004
0.010056050968123599
0.010088704572990537
0.010067281739320606
0.010025636923965067
0.009998127046274022
0.009971527465386315
0.009960878093261271
0.009959869517479092
0.009997573451837525
0.009982646462740377
0.009942631773883477
0.009934844233794139
0.009960457384586334
0.009977416105102747
0.009969313842011615
0.009964540193323046
0.00998893503448926
0.010033073507947847
0.01006573622697033
0.010066817582119256
0.010058355289511383
0.010081028557615355
0.010119473232189194
0.010112207087222486
0.010053790725069121
0.01000308659626171
0.009982357993721961
0.009960603368235753
0.00992445338750258
0.009883555873529985
0.00984436241327785
0.009820973438909277
0.009830693233525381
0.009868638396728784
0.00990629525622353
0.009924379856092855
0.009933748149778694
0.009948336523957551
0.009961771805537865
0.009963703303365037
0.009960648176493123
0.009963198809418827
0.009953677537851036
0.009909404976060614
0.009858206291683018
0.009843621143372729
0.009854874275624752
0.009856025433400646
0.009844198497012258
0.009836726076900958
0.009838267439045012
0.009835975196911022
0.009816601916681975
0.0097943353257142
0.009794593916740268
0.009804766401648521
0.009803143410244956
0.009816533810226246
0.009866059112828224
0.009908083132468165
0.009907056035008282
0.00989489008206874
0.009906141824321821
0.009923055848339572
0.00991182696656324
0.009872094443999231
0.009842475248733535
0.009861362756928428
0.009921447117812931
0.009968373462324962
0.010011620153672993
0.010030514803947881
0.01001400846405886
0.00996854493394494
0.009927130545256659
0.009912691256031394
0.009907462269766257
0.009887934376019985
0.009866190364118666
0.009870848060818388
0.009905820661224425
0.009943745922064408
0.009960249508731067
0.009957534305285662
0.009946101459208876
0.00992979803471826
0.009909414580324665
0.009886962062446401
0.009868216551840305
0.009852170223603025
0.009832948863040656
0.009823118627537042
0.009841357542900369
0.009878539338242263
0.00990816842764616
0.009918715917738154
0.00991707683657296
0.009909814575221389
0.00989765259437263
0.009887425439665094
0.00988620172138326
0.00989266145392321
0.00990861109807156
0.009930887275841087
0.00994134382577613
0.009937493790639565
0.009939272770425304
0.009948764740256593
0.009958752717357128
0.009982890266692267
0.010019626151770353
0.010026869906578213
0.010000016901176422
0.009974539331160485
0.009908599122427404
0.009900779246818274
0.009913419276708737
0.009915161858079955
0.00992738693021238
0.009940108961891382
0.00991594749619253
0.009877891249489039
0.00987937274388969
0.009923225602833555
0.009969067636411637
0.009989686533808708
0.010004506187979132
0.01003278978401795
0.010044891688739881
0.010023541897535324
0.009993410479510204
0.009971493049524724
0.009971298340242357
0.010003513689152897
0.010052309239981697
0.010098941433243453
0.010127483073156328
0.010119919020216911
0.01008715945063159
0.010058951243991032
0.010045687727397308
0.010040982846403495
0.010033423099666833
0.010013621726538986
0.009987757116323336
0.009973849209491164
0.009983055375050754
0.010011159955756738
0.01004176283837296
0.010054524057777599
0.010036161019233986
0.009993710811249912
0.00993089813971892
0.009876339894253761
0.009878235956421122
0.009924590043956414
0.009976421156898141
0.010011703006457538
0.010011122729629278
0.009958672929788009
0.009884665296413004
0.00985423032194376
0.009886152908438816
0.009921094408491626
0.009908591610146686
0.00988092971034348
0.009891082146205009
0.009935049556661397
0.009969614782603458
0.009959938948741183
0.009910597749985754
0.009860286387847736
0.009847015829291195
0.009889514298411086
0.009942504791542888
0.009994274271884934
0.010004195650108159
0.010011185315670445
0.0100360861455556
0.010052494682604447
0.01004343740758486
0.010029900253284723
0.01003699890221469
0.010062045929953457
0.01008428781758994
0.010095764111028985
0.010101588629186153
0.0101004587917123
0.010087209474295377
0.010059400203172118
0.010021424301667138
0.00999352894257754
0.009986029757419601
0.009978907606564462
0.009966602670028806
0.009966930970549584
0.009969175430014729
0.00994891111040488
0.009913076106458902
0.009876976604573429
0.009851858709007502
0.009860562125686556
0.009897174161160364
0.009916828611167147
0.00991704893996939
0.009943827633978799
0.009995621738489717
0.010033540504518896
0.010046661354135723
0.010050116924103349
0.010047293725656346
0.010030014587100596
0.00999595946748741
0.00997648729593493
0.010008825240656733
0.01007184741902165
0.010105709087802096
0.010090446379035712
0.010061020260909572
0.01004928314127028
0.010040744433645159
0.010004986859858036
0.00995653003337793
0.009940806969534605
0.009961958164349199
0.009980915245832875
0.009981591990217566
0.009982375013642013
0.00998911784030497
0.009997315499931573
0.010018018821720034
0.010043084798380732
0.010029789685504512
0.009967398751759901
0.00990905703161843
0.009897942233365029
0.009910116016399115
0.009910361600341276
0.00990723238675855
0.009911070230882614
0.009902018557768314
0.009880096801789478
0.009890398039715365
0.009954199609346688
0.010019508154364302
0.010032039283541962
0.01001469892100431
0.0100209493865259
0.010051694030407817
0.010071810468798504
0.010066756029846146
0.01005511108902283
0.010067370997276157
0.01009626397746615
0.010098968989914282
0.010083004827611148
0.010100751116406173
0.010146170526277275
0.010160330489743501
0.010127208553021773
0.010089439066359774
0.010074727551545948
0.01006456179660745
0.01004950831993483
0.010049745823489503
0.010058237591292709
0.010033144026529044
0.009977125239092857
0.009947998689021915
0.009960943929618224
0.009967194981873035
0.009948149040574207
0.009947873136261477
0.009988422800088301
0.010029005127726122
0.010044554168125615
0.010058745050337166
0.010074202783871443
0.010069866848643869
0.010057056202786043
0.010049676096532494
0.01003196336561814
0.010001110628945754
0.009976868322119116
0.00996721615199931
0.009970017010346055
0.00998926324187778
0.01002452815650031
0.010061714738840237
0.010083017529686912
0.010082110237563028
0.010065583356190472
0.010043279505334795
0.010029392648721113
0.010036656694719568
0.010053409379906952
0.010047740512527525
0.010011262639891357
0.009978022555587813
0.009979001563042402
0.009999105777824297
0.010001017056638375
0.009971593967638909
0.0099305367434863
0.009902817481197417
0.009886723649688066
0.009871954732807353
0.009871461015427485
0.009878981414949521
0.009859099339228123
0.009821519447723404
0.009822269045980648
0.00986101725604385
0.009890013939002528
0.009943426195532084
0.00993040656670928
0.009902101031038911
0.009893979068147018
0.009880333676701412
0.009853964500362054
0.009847163413651288
0.009868682216620073
0.009888215919490904
0.009885672052623704
0.009876558544347063
0.00987772256252356
0.009874064452014863
0.009852937918622047
0.009838682571426035
0.009848802664782852
0.009862152375280858
0.009858631589449942
0.009841630118899047
0.00982060413225554
0.009803758666384966
0.009795250325696543
0.009791457469109446
0.009788766598794608
0.009788666004315019
0.009793023823294788
0.009792430478846655
0.009770201739156619
0.009741631106007844
0.009748185544740409
0.00978912582155317
0.009818689023377373
0.009809653159463779
0.00977659672847949
0.009754003055859358
0.009768540691584348
0.009819774178322405
0.009872890444239602
0.009906393274432048
0.009913863805122674
0.009894552966579795
0.009873703356133775
0.009860657495446503
0.009858565701870247
0.009882534974021837
0.009926437869435176
0.009958951252046972
0.009966768018202857
0.009953766788821667
0.009930570499273017
0.009923679204657674
0.009941677545430138
0.009954090948449448
0.009939059993484989
0.009914602710632608
0.009907506324816495
0.009918710085330532
0.009935577496653423
0.009950097320834175
0.009955691791838035
0.009960792751517147
0.009978474198142066
0.009990346072008834
0.009976331224897876
0.00994695874513127
0.009910161443985998
0.009874618081375956
0.009862135793082417
0.009858233110280707
0.009831622736528515
0.009805029090493918
0.009809919742401689
0.009824020632077008
0.00982313059619628
0.009823883967474103
0.00984728527488187
0.00988669223501347
0.009915321269072592
0.009924413331318646
0.009930253683123738
0.009918045814847573
0.009863090311409906
0.009816886376356707
0.009845134711358696
0.009911590423434972
0.009942276715300978
0.009931186153553427
0.009901990370126441
0.009868026078911497
0.00985845259972848
0.00989074756624177
0.009934295299462974
0.009954774740617723
0.009958985237171874
0.009968645657645539
0.009982303053839132
0.00998770425328985
0.009991676203208044
0.010004556259373203
0.010006021450972185
0.009965931354090572
0.009895229658577592
0.009841604311950504
0.009836601732531562
0.009873557111714035
0.009923332533799113
0.009957520083989948
0.009976788526400923
0.009998367680236698
0.010014217318966985
0.010013347857166082
0.010013437863672153
0.010023477321956306
0.010030525267357007
0.010036361737875268
0.010051342928782105
0.010066230591619388
0.010077076794113965
0.010106416400521994
0.010152406808920204
0.010166746429167688
0.010138401580043137
0.010125979027943686
0.010153874239185824
0.010177597736474127
0.010181321350391953
0.010197380534373223
0.010227959561161697
0.010228120979154482
0.010172401944873854
0.010105042493669315
0.01008750129956752
0.01011321135563776
0.010127979702083394
0.010115550783229992
0.010112997789401562
0.010148529260186478
0.010191581366816535
0.010182275942061097
0.010120003224583342
0.010074969516135752
0.010083590651629493
0.010111361183226109
0.010127052200259641
0.010132536056917161
0.010136603182181715
0.0101414603239391
0.010148410917026921
0.010162642935756593
0.010174412226770074
0.01016479151439853
0.010147461949381978
0.010151752072852105
0.010169152776943519
0.010171150465030223
0.010155073376372456
0.010139526306884363
0.01014144898043014
0.010162721619708463
0.010189210867974908
0.010206115283071995
0.010206300610443577
0.01019777299836278
0.010204097953392192
0.010220617423765361
0.01021110414643772
0.010184226244455204
0.010188440574565902
0.010224701636470854
0.010251590092666447
0.010251575167058036
0.010229752260493115
0.010192011878825725
0.010164041599491611
0.01016848958330229
0.010178982724901288
0.01016098566702567
0.010128770146984607
0.010099582173861563
0.010077297168318183
0.010075560031691567
0.0100866409833543
0.010100930602056905
0.01012118253740482
0.010137855162611231
0.010123211813624949
0.010091844700509682
0.010094271393027156
0.010129176214104519
0.010151531433220952
0.010148581995163114
0.010145500652724878
0.010158695607678965
0.010171212798450142
0.010165386879816652
0.010151956679765135
0.010142530517186969
0.010136772375553847
0.010138556986348704
0.010149609036743642
0.010161508097080513
0.010163895471487194
0.01015763170318678
0.010158116276143119
0.010172537480248139
0.010185048357816412
0.010182141057448461
0.010172977194888516
0.01016704565146938
0.010156760930549354
0.010138529073446988
0.010125944715691731
0.010125149076338857
0.010122096750419586
0.010109003125689924
0.010091942994622514
0.010073585644131527
0.010056514064781369
0.010048906415468082
0.010055190429557114
0.010066541139967739
0.010068719515111298
0.01006767301238142
0.010079808719456195
0.010094550214707851
0.010088212738046422
0.010065901312045752
0.010053467642283067
0.010052760523976759
0.01004265555064194
0.010024646129459143
0.010021307501010596
0.010037972517311573
0.010062651167390867
0.010081455180188641
0.01008196036447771
0.010073668453842402
0.010091786935226991
0.010148493589367718
0.010202095961431042
0.010203012524871156
0.010164318124298006
0.010142029399285093
0.01014344415976666
0.010135333420475946
0.010120021332986652
0.010114150503650308
0.010106632232200354
0.010092673725448548
0.010088679937180132
0.010097195823909715
0.010102264477172867
0.010096230579074472
0.010088392882607877
0.010089217170607298
0.010092530931578948
0.010085472277132794
0.010072992998175323
0.010072168288752436
0.010080885066417977
0.010074664026033133
0.01005083610652946
0.010043154096929357
0.010065584221156314
0.010095298355445266
0.010125428345054388
0.0101569482346531
0.0101667576469481
0.01015418435446918
0.010144641736987979
0.010134602242615073
0.010117932338034734
0.010124180533457547
0.010169010320678353
0.010211530646774918
0.010200254546944051
0.010144963652128353
0.01010726198204793
0.010122037004912272
0.01016806910512969
0.010213298364542425
0.01023953601368703
0.010229837188962847
0.010153897305717691
0.010063709346577526
0.010037947699893267
0.010085406467551366
0.010149978565750643
0.01019023584201932
0.010213215425610543
0.010221656678477303
0.010202423688024282
0.01016450914205052
0.010118943507550285
0.010076189406681806
0.010066700394963846
0.01008607100113295
0.010087967847939581
0.01006759887910448
0.010063618051353841
0.010088588232174516
0.010124221068108454
0.010160005926154554
0.010189687456004322
0.010197252195794135
0.01018397271516733
0.01017244870075956
0.010161230227677152
0.01012533662491478
0.010066409056307749
0.01000892610871233
0.009967165526468307
0.009947900642873719
0.009942718625534325
0.009929838370298967
0.009916137704858557
0.00992887071100995
0.009956063486170024
0.009949497791239992
0.009898348471615463
0.009848964363336564
0.009828634655568748
0.009811866981908678
0.009785019648261369
0.009771183122647926
0.009779371585464105
0.00979276141966693
0.009807332262862473
0.00984183705644682
0.00990109883598052
0.009951345401350408
0.009954060298623517
0.009914686030242592
0.009880088792415335
0.00987918974366039
0.00989028850570321
0.009892689699772745
0.009901241931365802
0.009923695088364184
0.009942066390067339
0.009947137022390962
0.00993723573279567
0.009895339063368737
0.009831183638889343
0.009803573485696689
0.009832620243541897
0.009865523162297905
0.009868318467633799
0.009856837950646877
0.009838494162540883
0.009808906257385388
0.009787771829869597
0.00979719837079756
0.00981922896578908
0.00982088566524908
0.00980814766488038
0.009810966758523136
0.009827227857895195
0.009825044615427032
0.00979237082065083
0.009750503647373988
0.009723948317114263
0.009712796382373198
0.009705971911316738
0.00970791778061539
0.00971881411387585
0.009720853212056681
0.009707691501826049
0.009686091844923795
0.009659196299035102
0.009636699687689543
0.009638044958701358
0.009669401566497982
0.009700458548031747
0.009697298115352169
0.00968475234694779
0.009715463046450167
0.00978518521413207
0.009856347652385012
0.009896550743142142
0.009890543435467407
0.009872125121764838
0.009868679299252107
0.009867132547078654
0.009856710330350325
0.009855697074672208
0.009861995002720505
0.009855786371044815
0.009851862532086671
0.009863631494808942
0.00987208987120539
0.009872871222905815
0.00987544575589709
0.009880333996843547
0.009893242166144773
0.009915775203844533
0.00993501523276791
0.00993698780424893
0.00991749665234238
0.009895512538496404
0.009897391209378839
0.009915454947622493
0.009914013227680698
0.009878010097891092
0.009836439767386764
0.009828008075710387
0.009851576593937351
0.009863493585726246
0.009838353602681309
0.009812101145507767
0.009816345429280773
0.009827667927602306
0.009835563137894496
0.009865388933103531
0.009910062482813373
0.009939048059750348
0.009945716703077779
0.009925683402689173
0.009882906874408945
0.009848658347036689
0.009842412541620433
0.009856211862061173
0.009870289831887931
0.009870107208844275
0.009863672588253394
0.009862064644694328
0.009861743516521528
0.00986560276011005
0.009881032537668944
0.009893004894256591
0.009887033727718517
0.009891956821084022
0.009934087198926135
0.009968824456445874
0.009942307682940736
0.009878179103834555
0.009826339220162482
0.00978899401263334
0.00975184552720748
0.009733007388422265
0.009760833225445822
0.009818025412969292
0.0098487495619338
0.009839529786258936
0.009834064767928793
0.009857022692449391
0.009886715059401467
0.009899505898356437
0.009904508073814213
0.009925431568408385
0.009960258575156332
0.00998438563081436
0.009989120912505313
0.009987906231544911
0.009992233162047342
0.010007239007391035
0.010029628665652126
0.010035130186006427
0.01000224238843657
0.009953540140995755
0.009933777276892215
0.009945955163566396
0.009944713703589514
0.009899743645219132
0.009846942520234735
0.009838826768100262
0.00985632105730474
0.009849503266159444
0.009836319347377866
0.009866327755153179
0.009929488135967404
0.009971940603572876
0.009965437222272158
0.009926003002328798
0.00989201567717828
0.009894508586730808
0.009928481737151742
0.009958346089115366
0.009954449866199866
0.009919063575798645
0.009887575163738803
0.009899225973058493
0.00995136758312583
0.01003091074177064
0.010095194580499083
0.010113730574958027
0.010092693853657693
0.010070960896555334
0.010069303676718846
0.010055170371197164
0.010015002579893916
0.009990168111398816
0.010008517622482031
0.01005833227536641
0.010103807256091385
0.010109159203711898
0.010089120292104781
0.010085849825991318
0.01009346661856398
0.010084642689907924
0.010079045391175896
0.010098561693448574
0.010105354042025283
0.010066208962816745
0.010013928981497883
0.009989201258867979
0.009990238311002032
0.010002432088367642
0.010019522649236024
0.010032497143838555
0.010035362151684239
0.010039767106063665
0.010059749705251307
0.010085705759702251
0.010097831008024513
0.010092256249627098
0.010078800797928125
0.010074958138866351
0.01009233070188202
0.010122550707310439
0.010155749393161386
0.010187484507914632
0.010205185152590274
0.010204912073677406
0.01019890907453373
0.010190846218029037
0.010181091951671987
0.010172601891681551
0.010150384636363015
0.010108676174422727
0.010075816945172846
0.010075269003864377
0.010103639244334772
0.010135268599260599
0.010137698263861239
0.010105829825624824
0.01005720115150325
0.010012217748444527
0.010003888750215992
0.010048669282114134
0.010106006262358278
0.010122642071219162
0.010098984036594628
0.010077244315762074
0.010078312822151929
0.010088796126656235
0.010099928136914968
0.010104670668952168
0.010088665261864662
0.010069168452173472
0.010083439232548699
0.01012884416966699
0.010174055398674681
0.01020394342718646
0.010220713379094377
0.010228391126729549
0.010223708901321515
0.010207212609238923
0.010199671579757706
0.010214644096558914
0.01023328709648922
0.010240474976599216
0.010248085351195186
0.010262418198399246
0.010276549499249086
0.010298249974148348
0.010335596932563931
0.010367459718836472
0.010372293699765578
0.010359511286951601
0.010348496662918477
0.010348744022194297
0.010359548426931724
0.010367313043680042
0.01035602498683147
0.010322613819735125
0.010275405176216737
0.010227794934762642
0.010190647451672703
0.01016796870622784
0.010155074844369665
0.010141929081873969
0.010134990619262681
0.01014819519012235
0.010172409910010173
0.010194690162315966
0.01021675616968423
0.010233866372145713
0.010236725609283895
0.010236015763366595
0.010238117675762624
0.010216367279645056
0.010163677940145135
0.010117252960335464
0.010095908700022846
0.010082072584191337
0.01005959655274637
0.010033066375181079
0.010020590715575962
0.010024034500820561
0.010027386344736442
0.010037777851102873
0.010081200043205172
0.010149183340836317
0.010201623861212284
0.010222016937332228
0.010223296743351967
0.010225975090870634
0.010247771297581493
0.010275224358774721
0.010277999284444377
0.010258940800558775
0.01023506217286922
0.010207196598639712
0.010188037875341251
0.01020103000686504
0.010245929822558538
0.010295402862830087
0.010307518056361004
0.010298135782359169
0.010277290714439004
0.010289766140049323
0.010303712568711489
0.010303882193984464
0.010303170904517173
0.010306854089722038
0.010309648995753378
0.010304083161754534
0.010289540259400383
0.010283545814454556
0.010292544546537101
0.010282445447519422
0.010234683516900987
0.010194939366774633
0.010205439382698387
0.010241472317138687
0.010257794762728735
0.010251064458861947
0.010245942475739867
0.010244678639573977
0.010227625479456038
0.010200979087967426
0.010196830169297755
0.010218458902090787
0.010235738313058391
0.010231379850301892
0.01021738012204878
0.010219558218959719
0.010245804033474996
0.010262437465135008
0.010238578792195767
0.010208434781525284
0.010220740537624807
0.010251566036604345
0.010246150121092796
0.010202869109343737
0.010163728552870453
0.010165572331752628
0.010211837674723938
0.01026064389734529
0.010260741380043327
0.010217261505313218
0.01018291744752787
0.010181796773103997
0.010191466653486714
0.010196951334364712
0.010212856743019074
0.01024429869139567
0.010264088432304561
0.01025275475345552
0.010230939239263534
0.01022442479035817
0.010227351628709585
0.010222870436264202
0.01021196851041168
0.010208237554179505
0.01022179946070537
0.010238898189272731
0.010226549520157278
0.010184021058958024
0.010154476745519787
0.010157102039083838
0.010157757739070803
0.010137961610453203
0.010119534611003473
0.010105108828283846
0.010077358941780403
0.010042497442336753
0.010018271921435371
0.010006406066240743
0.00999968495219946
0.009993775649927556
0.009992258751299232
0.01000443545402959
0.010022215308854356
0.010018220351776108
0.009990399744128808
0.009973568635759876
0.009980078133521602
0.009975093199172988
0.009938023755094037
0.00990374643704854
0.00991548677906394
0.009962507851887493
0.009996905027655885
0.010005258405581117
0.01001334929955192
0.010024405826115981
0.01002448435057886
0.010031014278065414
0.010068188693840057
0.01011565793887712
0.010131791945314035
0.010123142127413302
0.010127490704180673
0.010134800787782297
0.010108405597275123
0.010054665443021804
0.010012939234729856
0.01000309016322717
0.01000656035495922
0.010003547397209331
0.009999977736733855
0.009996582202147693
0.009989738343283533
0.009999092019861565
0.010029495466733351
0.010054040325339884
0.010057623035972938
0.01004608321003616
0.010032347866799683
0.010018874438246712
0.009988296431256458
0.009944445602595806
0.009924994924804196
0.009946407009847462
0.009983028874266893
0.009998653908260166
0.009981484706513584
0.009956456276122481
0.009950396628119052
0.009965210664086043
0.010000179080525412
0.010044176012743265
0.010058209246490151
0.010023919164668769
0.009972985568456352
0.00994448688463308
0.009946229392662645
0.009960663756355643
0.009968379193451256
0.009956357141491026
0.009925985760055482
0.00990262278704904
0.00990362056181766
0.009917149597313255
0.009937023080419749
0.009962272284319625
0.009968996890820562
0.009945577522739769
0.009917313794139772
0.009899560308549554
0.009881890249671415
0.009858542353613301
0.009833389847772196
0.009811142544494942
0.009792342336149886
0.009772889181040228
0.009760328637203202
0.009772692874539643
0.009804772210773081
0.009829154756153003
0.009834511614171789
0.009832622166723013
0.00984073561965488
0.009863149668090045
0.009881224205018952
0.009884593558963388
0.009897731345845387
0.009935884225415066
0.009974093083292246
0.009988295389339328
0.009986566326115281
0.009991554139414802
0.01000303825014271
0.009999565845355392
0.009983063580002637
0.009969417358515784
0.009952459877822548
0.009933532610302791
0.009946624625008553
0.010009298853110521
0.010078467926941812
0.010095820729620755
0.010056912049185485
0.0100083102658391
0.00999925539828837
0.010031818770803511
0.01005659308983013
0.01004151943488978
0.01001023071585223
0.009984903159784153
0.009946248078485952
0.009884786994662135
0.009834100687876345
0.009820184035925194
0.009827478657243774
0.009828549377853052
0.009815847666468471
0.009806715137092397
0.00982013525092043
0.009844122756039724
0.009852013736963271
0.00984372793813236
0.009829196317587047
0.009793638401897625
0.009729150470811875
0.009685009124223144
0.009718109455425292
0.009764879968715832
0.009772746573435142
0.009722582277609035
0.009689270969247446
0.009689916849602014
0.009692438177298755
0.009697581502841786
0.009723895969800651
0.009758819338167087
0.009777710568159818
0.009780337505508213
0.00978886025142856
0.009807710115564987
0.009810232542222366
0.009791432396741583
0.009784186825854704
0.00980675251223147
0.009839151268824935
0.00984786262153648
0.009818939772667363
0.009773456576513127
0.00974532201886177
0.009742357459617778
0.009750073280883953
0.009764666514238343
0.009781990881310775
0.009790494724875316
0.009802208319306373
0.009827978323446587
0.009841286306036636
0.009828212267020717
0.009818038822850213
0.009829917122842743
0.009851431001443416
0.009874236739706247
0.009903309278888628
0.009938343161484226
0.00996627138229087
0.009962976269889623
0.00991861405898817
0.00987093817209825
0.009859241492813453
0.009858668236993252
0.0098419081477914
0.009845542459515855
0.009887997385812924
0.009917895311955362
0.009905752837657928
0.009886381077812985
0.00988679420785047
0.009893271569162608
0.009895927980542183
0.009904946765163913
0.00991665112436749
0.009914643886731937
0.009906457344768568
0.009908071170793847
0.009901050487533211
0.009867190140066668
0.00983428223640658
0.009824803583323955
0.009816978697199375
0.009803232236299664
0.009809427971486002
0.009821844312828034
0.00979350072448142
0.00976564343087375
0.009743258819216862
0.009759596993681043
0.009786757819820196
0.009830991006456315
0.009891858185874298
0.009918927093967795
0.00987566503114067
0.0098047599371057
0.00975958428811282
0.009772787608671934
0.009808789169183001
0.009837969854706897
0.009873325197258965
0.009925453804899008
0.009967269550543278
0.009974791770800948
0.009959004442207516
0.009938201236072928
0.009918932218570263
0.009897481654770673
0.009870890454621986
0.009857820955803618
0.009871797795640305
0.00988987764227204
0.009889356930507347
0.009875302739674225
0.009865811029449105
0.00986936823814176
0.009875878582242877
0.009880535347620026
0.009891213801456616
0.009911224786192179
0.009941425344441085
0.009975691038416699
0.009994191779987886
0.009982362597947941
0.00994583168416284
0.009906000113114715
0.009870815864996985
0.0098230843921192
0.009760650040116161
0.009702111647929995
0.0096627259417437
0.009659530193312093
0.009694480119505897
0.009738807892426848
0.0097704199841246
0.009795569302514195
0.009819270890438929
0.009824252671096474
0.009798886050703004
0.009773001217981801
0.009779840756673366
0.009795345143647865
0.009782138569280506
0.009757428570883348
0.009750549391610549
0.009750399243785068
0.009745782179525122
0.009752283359412105
0.009776578556047752
0.009807455535046757
0.00982720908941701
0.00981853072415106
0.009795940312324091
0.009799612297210842
0.009834143365733326
0.009862255952320993
0.00986589101725258
0.009860702073201538
0.009843727078987285
0.009796271547675133
0.0097434166749008
0.009732572266366334
0.00976643358822912
0.009809600278967991
0.009833710979437455
0.009832706565503032
0.009809755234746262
0.009766752097057178
0.009723360142670572
0.009725415650755166
0.009780855159042402
0.009827150611672551
0.009825989643577487
0.009808221965795384
0.009795253374613821
0.00978069799253717
0.009770007672486827
0.00976711411261931
0.00976939567597583
0.009779893807135523
0.009784083017148077
0.009755407925695181
0.009704721440793946
0.00967410990735516
0.009667675863020121
0.009647722564404831
0.009611342883436009
0.009597083732951433
0.00961315648863092
0.009628904733108356
0.009624854156281799
0.009605875500710681
0.009585173423402012
0.009572161462856457
0.009564303875667974
0.009559559646295384
0.009576695167925208
0.009622346239630132
0.009655901334481314
0.009650879042455927
0.009638883168809115
0.009649281805614009
0.009674469706369563
0.009701593888457864
0.0097355444857385
0.009782063124002888
0.009823692727368325
0.009837827534647658
0.009828537607099862
0.009826374375261366
0.009850135715678334
0.00986564822611399
0.009825471309013664
0.009808278741547837
0.009779015209060162
0.009747841516509653
0.009733065634500236
0.009739885799353943
0.009780034823343157
0.00983014831203036
0.009856668341672047
0.009869203194975853
0.009888696115231141
0.009894403715152293
0.009868170155677945
0.009844030397944152
0.009855164701584727
0.009877819204702973
0.009875153418397531
0.009857243987498805
0.0098551278130617
0.009862787202000617
0.009852073289221153
0.009827692228136585
0.00981698612566106
0.009825381099944934
0.009838557778857648
0.0098445420677308
0.009841563482768833
0.009838938135653735
0.00984961906564422
0.009879867386771365
0.009916642803000286
0.00993311680853367
0.009925025375559926
0.009915805449709296
0.009914991265395657
0.009902817117981612
0.009865684108808637
0.009822347947629168
0.009802479796344415
0.009814936670009046
0.00983893609023653
0.009837031997740268
0.009791356729110703
0.009733713390305638
0.009711998242419213
0.00972412345930934
0.009729421659139917
0.009723396596964449
0.00973730521160178
0.009772031583124771
0.009802107812138274
0.00982508888002485
0.009844324981095269
0.00983850627206266
0.009802021879004315
0.009767988612875343
0.009756471493747086
0.009748990904772653
0.009725859250174836
0.009686766780214384
0.009633349399082362
0.00957420359714888
0.009544751865323633
0.009566803326597437
0.009606731771491468
0.009628666676580905
0.009639902975177393
0.009656711822608487
0.009688720147823914
0.009743708543246611
0.009808536727214233
0.00985496885376051
0.00987180090509355
0.009879416138865053
0.009911516915308312
0.009942725490545853
0.009982023211196065
0.009970033169956878
0.009923005538294092
0.00986390671809204
0.009806193836266176
0.009778892055619508
0.00980539773707278
0.00985786801436916
0.009905687872087583
0.009921154166804627
0.009924140494549647
0.009926206654636189
0.009914816075470298
0.009887518084142358
0.009854702964657918
0.009822357138618827
0.009799149495083839
0.009793152161873877
0.009797585462220013
0.009807350970804691
0.00982969804550521
0.009858855942729861
0.009874755543423817
0.009868184492224827
0.009850434445543215
0.009843337039928884
0.009848367053782567
0.009843829221790657
0.009823974429164082
0.009809375283075496
0.00981480180635117
0.00982689929776825
0.00982545957318507
0.009813283066032455
0.009810712893959135
0.009833472885657103
0.00987695437623188
0.009916370174614712
0.009937566590961068
0.009957441396545618
0.009995131439063698
0.010053855767473578
0.010125716329785064
0.010178456811700017
0.01017199392314069
0.010108330255607144
0.010069199930876493
0.01002950836205855
0.010027206352679058
0.010020102490670979
0.010003652012674138
0.010018859658157454
0.010063699563033879
0.01008644950343296
0.010073651116108522
0.0100608876417391
0.010068709891056642
0.010083628196734935
0.010090465439716353
0.010097096293466166
0.01011359914788045
0.01012530026375316
0.010123960435157642
0.010132731426274404
0.010155358171323315
0.010151030134875328
0.010103659559972585
0.0100585828255862
0.0100492587138433
0.010050927372649312
0.010044644179288298
0.01004944630083628
0.010061972162220626
0.010052346253069118
0.010027443622238934
0.010015338257653638
0.01001484420034103
0.01002607480273582
0.010074585629627108
0.010159131935797632
0.010218316817190497
0.010186003058915958
0.010090774396667257
0.010005302261561155
0.009980482490500436
0.009972889714408666
0.009947470325278119
0.00991687788395211
0.009901939783012494
0.009914066590135917
0.009943866478279233
0.009962669669184833
0.009971311182016506
0.009996634719427674
0.010031493495916947
0.010044330869568512
0.010030140513554215
0.010021404479630291
0.010046889641089365
0.010074809680227191
0.010052641854854301
0.010002716839080677
0.009990110273938625
0.010013178545050324
0.01001076546497643
0.009968403993407265
0.009944801308447495
0.009974927658913658
0.010014151365030557
0.01002407027524896
0.010035313527332619
0.010071231097681448
0.010099716885015368
0.010093418980250134
0.01006827840115875
0.01005352771258913
0.01005154601414688
0.010046332873171195
0.0100418536295183
0.01005285719409585
0.010068252646597102
0.010059814827982336
0.010032112488988786
0.010036849622847512
0.010106361448997632
0.010137141644954682
0.01015558408224024
0.010157579558435827
0.010145086037227883
0.010140084623126313
0.010134452133206651
0.01012022804818116
0.010104693963658064
0.010093617902603
0.010085931905778125
0.010081129055470229
0.01008052927441895
0.010083910847315565
0.010090064351679758
0.010104715778725222
0.010132962667848916
0.010155630965018645
0.010148194313514977
0.010123095164308324
0.010106556041864678
0.010098813539370895
0.010086739122634754
0.01006197797250934
0.010027698035119102
0.009997610698919744
0.009979756607208401
0.009978149583330377
0.009996856895741075
0.010014935510698706
0.010007520406506955
0.009999481998383998
0.010014602467417717
0.010014105420559645
0.0099791549006477
0.009954048234503717
0.009947094034869224
0.009926395288202912
0.009903140976093709
0.00990019489545375
0.009905746919102967
0.009907284737564623
0.009905914331320674
0.009904709520051257
0.009906148654408753
0.009910851342137903
0.009923522351309657
0.009941370050655677
0.00994276603567414
0.009919272459810599
0.009895993336103857
0.009899169784039258
0.009925018199719488
0.009947827230207621
0.00994789027958177
0.009940579409012572
0.009965253347763792
0.010014961131382734
0.010034194071777166
0.010024651767453178
0.010054451820906252
0.010132292349589988
0.010181405273033305
0.010162159079918638
0.010117673014756292
0.010085516483522952
0.010064576637232677
0.010055459266295657
0.010059611304895952
0.010067229376873002
0.01006196778966114
0.010018794640200213
0.009947222454939038
0.00987939617712982
0.00983479224028997
0.00984480717452243
0.009868085107300431
0.00988840144011192
0.009925944171845913
0.009992787981173024
0.010061798710376024
0.010087797162123024
0.010063528401078657
0.010021417695097625
0.009985106469830498
0.009957592744613067
0.0099366367678158
0.009921090146526694
0.00991240261355415
0.00991986137116328
0.009951040516607463
0.009985343457665295
0.00999236858682707
0.009980715179117396
0.00998443341231905
0.010003939082380384
0.010006060868036001
0.009985331807984039
0.00997803042177111
0.010007103946991265
0.010048961674328893
0.010068831584649161
0.010065758720738813
0.010063026257557794
0.01007490451913327
0.010096011713612825
0.010114657743833959
0.010130453739548103
0.01014063405804336
0.010127068723086267
0.010090337727451697
0.01006432720576413
0.010078583088470624
0.010129722857382149
0.010180722910445184
0.010188457751646639
0.010147639169590548
0.01008987811859697
0.010041576718213036
0.010010856359731406
0.010007561920210718
0.010044871808495372
0.010072377269389109
0.010105410392861813
0.010073237265460193
0.010022787881316617
0.010027848714962602
0.010006708389846608
0.009964453595457598
0.009918632606277242
0.009899849229259416
0.009891420723870397
0.00986800407525152
0.009846840515965596
0.00984782952698879
0.00984785603126511
0.009818919093813747
0.009778716199798509
0.00976269509177655
0.00977017531869933
0.009779262896627188
0.009797488719923421
0.009838700746186077
0.009872214866336436
0.009872223890852183
0.009866909162374213
0.009872432333650068
0.009864461565157398
0.00984937558765523
0.009860895305173471
0.009887228738516569
0.00989610371994786
0.009890263456618413
0.009877690516877919
0.009852920786943286
0.009823307004990057
0.00981202208553441
0.009844255355419591
0.009908912539249286
0.009980263600591571
0.010015331093454734
0.010030547563219442
0.010050780951278284
0.010077905190410092
0.010096730809891596
0.01008960505365394
0.010060720436740667
0.010032655685208738
0.010014950665645301
0.010004862414207309
0.010003646080149338
0.010015798574313521
0.01004556582774967
0.0100767810549587
0.010079377789516002
0.010057048103772104
0.010036853019846604
0.010031236219219863
0.010042007989250123
0.010056286627659575
0.010045313371811061
0.01004416380659677
0.010010978956706822
0.010002758246846497
0.01002444337354973
0.01004854599479586
0.010060197870479896
0.010060022097313777
0.010046764680882916
0.010013558745849877
0.00998032045783475
0.009927800897276028
0.009907758652698249
0.009917872538790107
0.00990778751205653
0.009858649885281921
0.009819427882321178
0.009822145313955843
0.009834743700921536
0.009822701825760305
0.009796663724118844
0.009789128208067268
0.009816841817228123
0.009870901777176186
0.009920487288618461
0.009928434607572853
0.009893718571402133
0.009858600026927889
0.00985478104557842
0.00987174072302878
0.009884096125606447
0.009885159861296415
0.009876701607136057
0.009851530622690917
0.009807481077732518
0.00975866538938135
0.009733095178380608
0.009750639251433314
0.009791618982562795
0.009823273038491606
0.009841379463905469
0.009851295677945017
0.009858625096967444
0.009881562457885594
0.009920440153218807
0.009951013630488887
0.009970180206000805
0.009986514201154933
0.009988693883642555
0.009980765540385619
0.00997854175278917
0.009960996607551351
0.009923720895312727
0.009925106833688914
0.009980495433555916
0.010017042134422808
0.01000586806796491
0.010003018074203283
0.010031003513140603
0.01005017064511776
0.010033334081526846
0.009991794683737681
0.009962895083008334
0.009973213134799153
0.00999838906689547
0.010003429651260377
0.00999602091847919
0.01000049406895414
0.010019506063545123
0.010036292624427005
0.010038787638768554
0.010031910872785375
0.0100184518576134
0.009999710286501795
0.009992310755187646
0.009990026990417391
0.009954587951069698
0.009900892439763992
0.009898909496841952
0.009948856409173458
0.009972715156618506
0.009948024466866627
0.009928922763792798
0.009939093741122633
0.009946545457933099
0.009933844289043918
0.00992651401204057
0.009941696046153083
0.009947563706664369
0.009916914269560949
0.009883161182515324
0.009895258175674826
0.009943844757508487
0.010005578239215537
0.010064350957982242
0.010067764656851068
0.010050590031314642
0.010051983705488965
0.010057905068388209
0.010026773835998029
0.009962019900558516
0.009920258270576597
0.009932478957343846
0.009965195106342434
0.009980875744950025
0.009980874235043301
0.009973513333825394
0.009956139527494088
0.00993526135571301
0.009920045695034787
0.009912340492010117
0.009916236102581024
0.009920137133449317
0.00990509040420875
0.009894414372975007
0.009924377927090973
0.009970609466545283
0.00997457035118714
0.009925372207071632
0.009867595565738156
0.009838749148184434
0.009825271457666531
0.009800109529169276
0.00977817628881894
0.00978320549824275
0.009796406655805185
0.009787168824113906
0.009758323632413522
0.009739412782946601
0.00975372568005696
0.009788371834438293
0.009801086076768115
0.009772612808737903
0.00973315188428387
0.009723654709523544
0.009757299886550753
0.00981956455972977
0.009873385907849298
0.009874134539859369
0.009815332577563823
0.009789542476646602
0.00975803711800836
0.009758698599180207
0.009767283241963014
0.00978530163760297
0.00981650714064017
0.009818337874021381
0.009838691813638435
0.009859168499242515
0.009907589607173577
0.00996421456686221
0.009993685598019511
0.009994134383741766
0.009973212847253308
0.009940462054219097
0.009924796735867858
0.009939488897798584
0.009959854441694916
0.009967613609042018
0.009968176188413053
0.0099653748748824
0.009959853949258104
0.009955506399273872
0.009954861568985507
0.009954759404063224
0.00994974322267808
0.009949697379488498
0.009970451080007478
0.0099950407713186
0.009993847837904468
0.009978093567769974
0.009974128976464271
0.009978292557643726
0.00997815906186588
0.009968434211332351
0.009946751035749912
0.009927263900171965
0.009921543715754523
0.009913436366477981
0.009892631768016144
0.009872745138127357
0.009860725329490378
0.009849272852297872
0.00983476241817698
0.009822793470229954
0.009825412308564409
0.009849554568063468
0.009879356041783466
0.009892105936305597
0.009892481289571152
0.009896851690718904
0.009897856081370265
0.009887675052741542
0.009887708402238786
0.009912029836559668
0.009948619530769065
0.009993935362435877
0.010041748348157853
0.010064666403923183
0.010066726948134602
0.010095276709180326
0.010114447593223304
0.010135666597634554
0.01010189317399636
0.010053367879008875
0.010032669864594937
0.010016489274566992
0.009987155430717393
0.009978422401472927
0.010020204995526001
0.010074081440689043
0.010132697824155911
0.01014198655844666
0.01011419454938732
0.010100945956073701
0.010124219402205198
0.010148787230718881
0.010149391207378358
0.010142503795213998
0.01013988217106089
0.010134880113182589
0.010125894887605682
0.01011322807520628
0.01009195065475069
0.01007153463899158
0.010076388616580516
0.01010152423172258
0.01011095761670731
0.01009901922312565
0.010097548722987994
0.010116251107538119
0.010130582664860412
0.010134806281421334
0.01015462499926798
0.010201098242541775
0.010241491532651708
0.010224200079683214
0.010149331860011443
0.010081095974892379
0.010056724235182628
0.01005098977824673
0.0100467713130638
0.010054943221621215
0.010067234399029986
0.010077026112703606
0.010113197476603091
0.010172206185525284
0.010196696600178256
0.010171825338620693
0.010137240057811142
0.010106826738920063
0.010075400288915261
0.010049745154101402
0.010037216658238321
0.01002843377762474
0.01004163068253547
0.010089123719371856
0.010126675985520705
0.010114746073959395
0.010073528107022866
0.010046386821195484
0.01006532898521982
0.010122163665946572
0.010153745001880453
0.010116118572186679
0.010043555482989177
0.010008844658732413
0.009981094412505626
0.009989497443893925
0.01003178536775522
0.010088877626694739
0.010131727731786668
0.010145890448475256
0.010147652884479613
0.010155211632372811
0.010167099647223949
0.010184641572413966
0.010213066316209734
0.010243112113093956
0.010257634732406587
0.010244608854409308
0.01020742799853906
0.010167342368513346
0.010141808144981041
0.010139019783819094
0.010170587566681205
0.010225387387908996
0.010269828821765258
0.010297233567107468
0.010306342443218455
0.010278670759871602
0.010237308882642538
0.010225152403581888
0.010242767009185628
0.010257184269139543
0.010258630114840343
0.010257265804102644
0.010251129583921284
0.010238638073205948
0.01023527475539595
0.010243779128650203
0.01025492258137092
0.01027381407096982
0.010297654722817242
0.010305844000540673
0.01029893991537392
0.010304247988387942
0.010334228475112468
0.01036737289163284
0.010374422569293528
0.010347099014325067
0.010300686676055193
0.01026963947340846
0.01027730101486668
0.010286399726755917
0.010241248635575175
0.010164249467197805
0.01012383290217258
0.010128210360417143
0.010131343314424158
0.010106533243088052
0.010076433954527602
0.010086355772800744
0.010130592996720224
0.010152966021560133
0.01014657763647847
0.010156426427420229
0.010189607971115037
0.010212764008902014
0.010214683023514226
0.010212066764943302
0.01021311674383469
0.010206450311234221
0.01017954880837351
0.010138984377263113
0.01009810963529162
0.010055048904614523
0.010015018028207123
0.010012372229248286
0.010065136246848851
0.010087744321208448
0.010112838812638074
0.010097531575011089
0.010077260269317776
0.010073691727593542
0.0100874403223861
0.010108399874297902
0.010118573921499775
0.010102326000342145
0.01006789151695557
0.010043579823104665
0.01003468014067039
0.010022233501076698
0.010018297942588105
0.010049372046487405
0.010090364733478054
0.01009977124980651
0.010089410876389593
0.010092277401126922
0.010108384580817073
0.010123323069419711
0.010130604035221041
0.010120317991822957
0.010091886061709375
0.010074590272270144
0.010088664393406362
0.010110949799418449
0.010122513591777533
0.010139638137770817
0.01017624202533625
0.010214385584695264
0.010222690624650567
0.01020061831921339
0.010179225240135566
0.010180805224226788
0.010201558228582144
0.010219022147357464
0.010218694190261885
0.01021479201503098
0.010223690936109052
0.01023405865766108
0.010231723031029104
0.010226995355915279
0.010225304425694049
0.01020881106844172
0.0101674556103535
0.010120850219391287
0.010103522723075003
0.010117753122467548
0.010123036176664754
0.01010169911198318
0.010081296261632814
0.010069974748184905
0.010037998998304829
0.009981834061909467
0.00993895237450488
0.00991974129108712
0.009890153153100982
0.009841516822343693
0.00981060772202909
0.0098131797357928
0.009821695744758472
0.009817294211825357
0.00981359025463462
0.00982490816153586
0.009843168329680338
0.009860149219166487
0.009882095374632627
0.009893137974431738
0.009851454568561166
0.00981866538291797
0.009774492068681867
0.009776568503584713
0.009839996056398377
0.00989481713506393
0.00991230035549961
0.009918868264649064
0.009941139076836407
0.00996990550076589
0.009986766076181083
0.00999431625707075
0.009993036644300447
0.009980085550341754
0.009971988659817726
0.009981478125555441
0.00999741069157608
0.010002795113250614
0.009994273311458529
0.009981273876037448
0.009966653854353353
0.009950694229919463
0.009946812129346654
0.009950843715341762
0.009931621317518876
0.009887994204182177
0.009865744936978444
0.009892554694088175
0.009936393506359309
0.009958205121802167
0.009962119574192912
0.009961134326877072
0.009947670521214605
0.009925897092325614
0.009920528875663876
0.009928373232251033
0.009912909237900749
0.009868423858424649
0.009835403664037585
0.009841285953298211
0.009868943709880113
0.009887676012003794
0.009889974913094193
0.009891681455774232
0.00986557654570788
0.00986222727340646
0.00988724643131718
0.009911946482025086
0.009923567555379122
0.009940917146159335
0.009973383814794942
0.010004811653634533
0.010014331713318825
0.010001700010616333
0.009993562074378133
0.010010070593561977
0.01003513744333759
0.010025505878729746
0.010009938457515091
0.009974564352305607
0.00992565329768695
0.00986688512726687
0.009815181763842702
0.009791730297729373
0.009786779045825825
0.009778648677747697
0.009768798085860907
0.009764516504947095
0.009765293726231902
0.009766571262152865
0.009763235938735307
0.009766160254366696
0.009795475677819923
0.009848756669089197
0.009902229045983403
0.009935154271079227
0.009934629807248711
0.00990129421465099
0.009853949835523963
0.009817457479657605
0.009819365511648357
0.009865890586515888
0.009916842132806778
0.00993170614936389
0.00989889049436897
0.009849988201167434
0.009830641389125958
0.009844515738077462
0.009858191314851866
0.00985438249190338
0.009842290676897392
0.009837251972639934
0.009843143863836303
0.009844723863061518
0.009828085238114
0.009803999445866794
0.009790683384053409
0.009784709366504102
0.009772396434564144
0.009763497456442565
0.009778931406326592
0.00980582126416266
0.009809661722974851
0.009828105228953063
0.009809662575135008
0.009814661449054256
0.009838986478280276
0.009875202351249755
0.00992149347322993
0.009974314526189118
0.010018961734604091
0.010036148927174509
0.010024809034075589
0.009999085945310071
0.009978270973078907
0.009982349595520645
0.010000021404121071
0.009995038746856153
0.009963758562225849
0.009938397787045687
0.009937785365618765
0.009951264811679721
0.009962019774829968
0.009963812625501304
0.009964469748083501
0.009976016929140314
0.009996620127931238
0.010019026037771255
0.010043711143080145
0.010058955608401447
0.010042472189525142
0.010005971508799122
0.009990385426208377
0.010006530225509777
0.01002852054545656
0.010040823899907991
0.010048095586244017
0.010047458244953305
0.010031449985690414
0.010010023879585788
0.009998487235279754
0.009997408633353189
0.010002546837786213
0.01001238836790435
0.010018787864828483
0.010013541673542932
0.010004994615446777
0.010007989725563675
0.010015935922274366
0.01000770308310166
0.009979379061842337
0.009942916273139417
0.009909653881331906
0.009892477673711255
0.009894001646898687
0.009889039205154404
0.009869429769460113
0.009877472586231307
0.009932223537471146
0.009984390817116946
0.00998638107907027
0.009951452936511486
0.009919237494468689
0.009898899571271613
0.009882629147032276
0.009876754943979904
0.009883197812596336
0.009890710840700194
0.009890041986946017
0.009873391817091032
0.009843867952004075
0.00982822135090828
0.009845622889697552
0.009882494660560041
0.00992145883035846
0.009961587379220873
0.010004658508114517
0.010045086330501362
0.010074342967709527
0.010094611902022734
0.01011381677351892
0.010125953005626798
0.010122544565238058
0.010118242140160874
0.010136571519542486
0.010162215160671622
0.010157753992825747
0.010139171202899889
0.010150786255253478
0.010181218351935967
0.010184559697518126
0.010153582715429366
0.010124205392785371
0.01012358533916995
0.010137603878974914
0.010131356462370605
0.010095430051442235
0.010058979333844037
0.010048126061446965
0.010067638393957168
0.01012567576719448
0.010148572435136885
0.010173042474780231
0.010179241194855422
0.010163630803581326
0.010153884903993458
0.010146389656001701
0.010131970955990255
0.010107546775834635
0.010083194858161733
0.010067541887983679
0.010051358835771679
0.01004298495943658
0.010061798107344658
0.010090867242543027
0.010103342735674233
0.010099710643989965
0.010098252183524892
0.010117184647824615
0.010153488819487393
0.010184175906470045
0.010189661683980375
0.010167832653969526
0.010140701062045992
0.010132695962674916
0.01013721713796258
0.010132496580481529
0.010115588862681761
0.010095830294303595
0.010077312258072197
0.010064836626406759
0.010069603088777513
0.010091152414679528
0.010102207886520774
0.010073260634671897
0.01000717143411748
0.009941137282876298
0.009919857163913548
0.009948644271353259
0.00997305866680108
0.00995304181938991
0.009938648992683739
0.009983442012453452
0.01004087841953151
0.01006904787151143
0.01002790684113279
0.009969423519214616
0.009952894072048366
0.009978642854839563
0.009998786192154512
0.0099884157278575
0.009960088323568926
0.009930477656889708
0.009898374089971185
0.009875344248721376
0.009872796434210613
0.009900138397933916
0.00995107538998127
0.010007373180706054
0.01003143611480482
0.010031708646565676
0.010036497875116766
0.01004697458469309
0.010049139244947582
0.010050709433853626
0.010064789480529725
0.010081424562959001
0.010086794588714839
0.010079008820466697
0.010063687943620607
0.01005699001951143
0.010067244982346893
0.01007001038058661
0.01004129093606025
0.009998928719433024
0.009966081037418917
0.009934980111429468
0.009900096280034631
0.009876943966373801
0.009870607209159062
0.009866671186173334
0.009863633578643203
0.009868578487075865
0.009877565712668002
0.009905183212831617
0.009960814390797167
0.009992510456359014
0.009954755321377889
0.00989084089291282
0.009862295021302998
0.009874753777403385
0.00989447494968772
0.00990874644019641
0.009926116531714798
0.009951133888680488
0.009969939537113533
0.00996312508592382
0.0099429216561839
0.009939409544458613
0.009948162927757949
0.009945039578014984
0.009931301176548004
0.00993038565851748
0.009916960151167586
0.009956101551651955
0.009978097645798698
0.00997943538473919
0.009969548707595095
0.009945374020608142
0.009912520261714235
0.009898281807545572
0.009918894516304136
0.009954946059733629
0.009977246097987518
0.0099859859328717
0.009993510867934674
0.009991824058815837
0.009977959685493261
0.009966781571274624
0.009952253992669285
0.009913464620476589
0.009863249454647303
0.00983879565843381
0.009854614264331757
0.009893977161264047
0.009936862525064498
0.009976170915178955
0.009993267033714802
0.00995153745287098
0.009913281737826764
0.009890360328136012
0.009920901875011623
0.009981807398144155
0.010003723729168997
0.00998032960225828
0.009946132546756416
0.009926426517777144
0.00992967136320658
0.009951510585378855
0.009967010722029955
0.009952277990523726
0.009919628280913457
0.009905304848216475
0.009924541012151167
0.009952459030319005
0.009955584338167683
0.009936677160440013
0.009928230803925544
0.009947554379468784
0.009983834685990588
0.010023525428259746
0.010058208568952978
0.010074859969317913
0.01007384221884422
0.010078394312877208
0.010095238147769123
0.010095941320760176
0.010059187464648858
0.010000248505966737
0.009947589816292748
0.009906899394700304
0.00986561964149587
0.009840862558921798
0.009865094936685637
0.009907136702677235
0.009905196557519957
0.00987006931914948
0.009853620053036138
0.009860403963830321
0.009866458775941283
0.009869360603624954
0.009876950941979885
0.009876282457262277
0.009834770472953096
0.009753802632912994
0.009683170709758998
0.009653499707346781
0.00966528797056526
0.00967710420722142
0.009668673683190718
0.009660259525990113
0.009674510051263496
0.00968833325081505
0.009666745001450181
0.009624022608622908
0.00960500807967037
0.009618962787790224
0.009632564652711152
0.009635248261038214
0.009657127670943738
0.009713667746400461
0.009783667330630123
0.009840344792464747
0.00987626978661865
0.00989585364353843
0.009903366649523378
0.009905385320307688
0.009905866285553202
0.009901956935646012
0.009891522227553651
0.009876937724184244
0.009866858522873372
0.009859237963100896
0.009828944847686216
0.009775102413259447
0.009735381833743305
0.009718873110832646
0.009701572390040382
0.009685331677319482
0.009687742388341575
0.009702184809138998
0.009712418948765844
0.009710720790317283
0.00969298122334294
0.00966706471517682
0.009650486652972176
0.009648878840962424
0.009650589815573768
0.009640575549565256
0.00961930261575617
0.009611753893550486
0.009643561621196568
0.009696281383512542
0.009726125033339486
0.009728108014678582
0.00972752290428616
0.009734761161962525
0.009747938900254667
0.009772558434633538
0.009813466956838966
0.009859157176688314
0.009892604566412047
0.009910878943046555
0.00992498418665491
0.00994925359962508
0.00998644403531216
0.01000704760896042
0.009979526377283037
0.009935357118956744
0.009934235013788565
0.009973728061886504
0.010004099700599909
0.010012084178160876
0.010029529709136113
0.010053759701550006
0.010033432773780078
0.01002543544396758
0.00998280709143728
0.009943746561184526
0.009920313716866075
0.00991179493139498
0.009929673706647008
0.00995737710618414
0.00997272518579848
0.009969093892723322
0.009967856300063431
0.009970269853947684
0.009948951383121312
0.00990724312607199
0.009885616897372529
0.00989378732861951
0.00990497119142674
0.009913563670124859
0.00994629881461151
0.01001031645340845
0.010064416318200528
0.010071320238057523
0.01004814388579689
0.010035868149716408
0.010042573066893965
0.01003978043794632
0.010009283145191148
0.00996871871408075
0.009941101864678786
0.009925252435496077
0.009913151550572366
0.009912498571211473
0.009936149910790846
0.00997955686179921
0.010016691182972864
0.010029679792933167
0.010030881203711033
0.010033536498667672
0.010025107900146395
0.009982067827368156
0.009905109447427094
0.009845372389536351
0.009861215288983658
0.009936081919586287
0.010000466344645248
0.010017653194954618
0.010017335069132969
0.010024850711924955
0.010030300877988339
0.010020971588091924
0.010005025973077864
0.010001979030203074
0.0100082168483641
0.009993799988878891
0.009953354276949539
0.009919972283532842
0.009922461081296206
0.009960694567998871
0.010003559617325663
0.010010635674698279
0.0099856189917773
0.00997378610773012
0.009990760898217559
0.01001243524136953
0.01002103429986164
0.01000871526892297
0.009980935207568108
0.009968460028758272
0.009980550321051851
0.009981510484358296
0.009955852509010583
0.009935185012873262
0.009937809761613608
0.009944755979813636
0.009944840742973611
0.009950957502005621
0.00996972827706486
0.009989883236121386
0.010000893113901838
0.01000192663865164
0.009989960199454799
0.009964012205600739
0.00994896458927542
0.009980557326925918
0.009998758226865903
0.010023281425237656
0.010041177989915013
0.010037112698191776
0.010019235103391111
0.009997985786758362
0.00999569115228951
0.010017835077596828
0.01003953867009841
0.010036827012663707
0.010020780705381184
0.010012146134395153
0.010006689305882902
0.009995319453300908
0.009977727986406535
0.00995488523854874
0.009930503881769255
0.009901790075236932
0.009866727903718129
0.009838269394822418
0.009817162607796491
0.00978334242827259
0.009739554994739592
0.009723110141931102
0.00974572226870805
0.009762332015670836
0.00974285016884096
0.009722445091465488
0.00973710926482454
0.009770087364595384
0.009790535900974647
0.009801421413430943
0.009833532109623774
0.009901188045041635
0.009981363100232557
0.010045922122662887
0.01008414979907684
0.010098213570890947
0.010109258121810854
0.010135136077878996
0.010153101076139138
0.010132718663662672
0.010106501132249833
0.010066307128872722
0.01006140466313809
0.010087464061798527
0.010124059654772281
0.010156216562027112
0.010146706054219976
0.010112667087232694
0.010104306988650932
0.010126165215624497
0.010144336903467775
0.010162110008532182
0.010197907567489893
0.010239272693870588
0.010275725460378454
0.010311659263679758
0.010336815462214871
0.01033203096012585
0.01029138665064238
0.010224120998755097
0.01015209941775538
0.010106112584471702
0.010105747017078101
0.010130174056394025
0.010137789675500244
0.010129612893797458
0.01013784053386189
0.010157438764581457
0.010165325603447855
0.010174484995659441
0.010199402685975656
0.010220881587592885
0.01022141179186292
0.010203444884391502
0.010181161275831983
0.01017829884076491
0.010201863980619237
0.010225421013310552
0.010225478039355949
0.010216517299413681
0.010228196131065488
0.010264124057721346
0.010300905912881717
0.010311352863209323
0.010288552712881937
0.010257597357267514
0.01025323658483103
0.01027754342299886
0.010290865901624783
0.010259909763699398
0.01019774284097366
0.01014749555150047
0.010137671133270488
0.01016063945600763
0.010190769791370258
0.010203884553629906
0.010192354473983868
0.010171434797812254
0.010152804645476863
0.010125134440604597
0.010083432241808623
0.01005303191835992
0.010048847292782739
0.010047384495846927
0.010038064419059084
0.010044857714092359
0.01006583625334315
0.01005829224945046
0.01000533246085979
0.009942119765328243
0.009898838268127293
0.009862873133970424
0.009821100534172728
0.009804590033600107
0.009850974692963064
0.009864742978243158
0.009879053265322
0.009890103347133845
0.00992228638380766
0.009965506908483803
0.00998537364997901
0.009992689131759108
0.010005191107047721
0.010013218185631558
0.010006560300244018
0.009996559470891953
0.010012476885458454
0.010059234841028228
0.01009167603799142
0.010083363498561084
0.010069429945433512
0.010073840002296492
0.010063923698617146
0.010012925741029903
0.009960944721242412
0.009963461164152249
0.00999888507882133
0.009999788224231452
0.009959269869141281
0.009929429984185844
0.009937653033994139
0.009971737674204633
0.010017839435022324
0.010063112557400018
0.010091745421523229
0.010098436851985753
0.010088046847376972
0.01006363465450704
0.01002979121170938
0.010002250758698211
0.0099861641402822
0.009963723284890875
0.00992852337192744
0.009903933403547853
0.009912320312578231
0.009940072192111984
0.009951173542067409
0.009931723625632003
0.009898188203806058
0.009869167612632736
0.009849197266157716
0.009827731499681249
0.009796774027636275
0.009779957159189508
0.009804342045681551
0.009848401525523513
0.009874194998992607
0.00988655618741177
0.009907287656096742
0.009926391418557614
0.009922976851230487
0.009899488906376064
0.00987883227178827
0.009884603809332475
0.009908927199430763
0.009911541778128594
0.009876619330607355
0.009837824704591184
0.0098256986704655
0.009832944755908101
0.00983571406453848
0.009816251142183319
0.009783013246487827
0.009765755080152302
0.009770375556545332
0.009776621732162311
0.009784096440998837
0.009807213158346713
0.009836431373842061
0.009854099850635976
0.009865248820278793
0.009878708239411935
0.0098851327796001
0.009868645557435229
0.009825326268328353
0.009771688869222998
0.009740502432687209
0.00975947501603514
0.009816793608479202
0.00985627596732229
0.009835241592954845
0.009781300113536418
0.009760718737961725
0.009792270355392247
0.009825294701149687
0.009812525530578568
0.00977714586770162
0.009771573262987658
0.009795248156879098
0.009819962502224371
0.009848184185102582
0.009878857620060444
0.009893775653326884
0.009901948104379698
0.009927211250178515
0.00997179990983568
0.010015515341656282
0.010036496913526207
0.01004766848287545
0.01008462798432447
0.010133135579526425
0.010132649495499208
0.010078306649811566
0.010043668858706951
0.010073060649447144
0.01012403640546836
0.010139061383670196
0.010113284247927368
0.010087454613531008
0.010098038935102522
0.010121195666724815
0.010104763112030924
0.010061885666800663
0.01004030334763229
0.01002676144009456
0.009984139481093734
0.009929227391257883
0.009893741947598756
0.00991103777778335
0.009970982033992186
0.010010614818893373
0.010054517455864697
0.010094481772975996
0.010131769827567041
0.010133546747965738
0.010087730180239306
0.010043454482220113
0.010029529420426115
0.010000250551383942
0.009931529256282373
0.009866658726241439
0.009833345791557804
0.009818880673265085
0.009807887825882062
0.009783835242269561
0.00974419487058185
0.009721061368472873
0.009742235156008973
0.009792721264529973
0.009840149161173031
0.009870171997463331
0.00987558334833011
0.00985079794889316
0.00982229704852216
0.009826656822115183
0.00984640966868028
0.0098386532405857
0.00981279328931123
0.009803630915703252
0.009800727043766529
0.009781502517871559
0.009769589689094573
0.009791491852374747
0.009827444959664717
0.009842358239693568
0.009824800351634622
0.00979030286311172
0.009762443578802049
0.00975548525340855
0.009759738750290126
0.009741050489246846
0.009689326375955716
0.00964546337374486
0.009647361554671078
0.009682456287555397
0.00971026292652823
0.009709368189796806
0.009693391690962016
0.00968893375247717
0.009703075726283714
0.009723414091859013
0.009747605964075774
0.009782987093785778
0.009813524703495204
0.009809772486332803
0.00978515594266355
0.009783000191673637
0.009798485602950678
0.009789018201408907
0.009757087721955032
0.009741281458409502
0.009740530230337753
0.009730676134349778
0.009716522807721048
0.009702153637772427
0.009684220395283773
0.009686880451627076
0.009727521570166573
0.009787373084109277
0.009844931226689368
0.009893097979947925
0.009929525875486433
0.009951107783708722
0.009961717795813457
0.009963358866516501
0.009938964341999963
0.0099272819631733
0.00990975316381082
0.00992253701784648
0.009931185472523793
0.00993630925193429
0.009949930696748197
0.009947552465600893
0.009905640779761598
0.009856677352217957
0.009814072516746819
0.009792086565867067
0.009784332240233198
0.009806865182472393
0.009855339324567468
0.009886499709682538
0.009875321127474308
0.009847593678859994
0.009843033924698829
0.009861549825873226
0.009869083934463561
0.009856803372967989
0.009851507402490824
0.009869124456308782
0.009895359155489131
0.00990619298769161
0.00989229048253037
0.009866796670248732
0.009846786692505702
0.00983637734199874
0.009838050904218108
0.009849791236920282
0.009858263676287607
0.009865998602472247
0.00988356802961789
0.009898939150152728
0.009902753642527386
0.00990835987147875
0.009926375510403887
0.009951330763287842
0.009966551704565063
0.009960689134895801
0.009951237933710217
0.009961617386434227
0.009975927061168477
0.009962455994682387
0.009932891024509444
0.009921973540913313
0.009923419386614113
0.009911130950786173
0.009896526787197218
0.009902501994511113
0.00990798662067391
0.009880360111128538
0.009845974455820396
0.009849334032041952
0.009862971156835557
0.009836709703085944
0.009776920034782961
0.009754554468672723
0.00978872133884579
0.009842280223965645
0.009873905659187585
0.009880974044790491
0.009895510347560048
0.00993277429486625
0.009974912055768073
0.010003149477997795
0.010014031195314601
0.01001718198065646
0.010018888431368396
0.01000617007841356
0.009975211818236858
0.009957690925803035
0.00997400958207436
0.009994600849458947
0.009988350349012763
0.00996204836294055
0.009943685166072101
0.009960553459823131
0.010006768458988518
0.010032794900471344
0.010002021689433604
0.009945009226212278
0.009921736755641177
0.009940230221254752
0.009961112595628947
0.009960884879110381
0.009940484606195241
0.009910699122119695
0.009895301598589867
0.009905054324772209
0.009924938599579037
0.009955965931294487
0.01000868782401085
0.010051832053577528
0.010050064182141796
0.010028297523967921
0.010023602850269526
0.010019383218605071
0.0099836311978288
0.009938519537681713
0.009892594303237275
0.009861608918290585
0.009829183047404513
0.009808882881188766
0.009826550425495953
0.009862224969547242
0.009872085723327473
0.009853509439853952
0.00983854106045328
0.009839652980444953
0.009849404491251334
0.009863082602387295
0.009865802435670049
0.009848588504828512
0.009826412540860474
0.009801323266001418
0.009771895703161136
0.009767212746664882
0.009798731927294285
0.009831218890612945
0.009853444169275463
0.009863177821971476
0.0098608902329579
0.009841747413156554
0.009810689634177834
0.00978445572196506
0.009766706444788725
0.00975581845967099
0.009770251907175407
0.00980507253902033
0.009818432518513873
0.009816527605289593
0.009848443446680904
0.0099055017484352
0.009941127264173701
0.009947012602351606
0.009941153131658212
0.00994325116276741
0.009962544462177902
0.009972607999807225
0.00993995224009268
0.00988124510855414
0.009841625690460204
0.009837514818646014
0.009858197452267632
0.00988633029977791
0.009903706046752631
0.009908663565292955
0.009917385568842292
0.009931947935838252
0.00993234067922458
0.009913100594421848
0.009891897599445656
0.009874563027406111
0.00985276249353774
0.009835721206618473
0.009849023424321786
0.009897651665378362
0.009954152973368763
0.009994739952962845
0.010021478043636307
0.010032616420648992
0.010021855506347493
0.010009082213509829
0.01001628592144698
0.010037159918574616
0.010045997843844816
0.010027971392264589
0.010009227016707882
0.01002422892022878
0.010057685525389388
0.01006532101193443
0.010037688241573051
0.009999542959267273
0.00996815443271771
0.009949581562541426
0.009943330270471052
0.009940089606679976
0.00993678966886364
0.009941521683940665
0.009961234398651868
0.009984544911421835
0.009982565258396789
0.009958633115747944
0.009957937998697161
0.010011665370548144
0.010077474848367273
0.01009862825856544
0.010070005835732445
0.010056160053936765
0.010012571731349453
0.010024745782138779
0.010039972043596208
0.010026145337615162
0.01000983654987067
0.010007870964473113
0.010001639692345634
0.009993148088688031
0.010023711752146482
0.010057828651042655
0.010079500371357426
0.010025521289790049
0.009962893364718183
0.00994320486788638
0.009949792203260586
0.009960991127882153
0.009991101297782735
0.010047431371640414
0.010129554726881906
0.010176965846912935
0.010167955916840584
0.010122437198879198
0.010076261936919764
0.010051952552748844
0.010050142927793786
0.010060108987381682
0.01006366645102389
0.010046336831292137
0.010023595133097842
0.010034426386700943
0.0100893377722241
0.010142981094541028
0.010155926177976653
0.010155807563569397
0.010175961261847988
0.010191444371594116
0.010184031354729086
0.010183935414534061
0.010198762823129072
0.010200371965765953
0.010187708673765884
0.010172861820319668
0.01014656416256912
0.010110618965700268
0.010089247514260933
0.010097001551184804
0.010119128859369084
0.010124298315495252
0.01010809013620019
0.010099222963908687
0.010100558880949392
0.010079579824814573
0.010039620350580663
0.010027352081378922
0.01004784022923559
0.010052124578505755
0.01002574287704192
0.010012759100645781
0.010036830386379734
0.010064571419497952
0.010076355788623915
0.010100733319995924
0.010140747121768072
0.010163757510017603
0.01017968319589272
0.01021715227747336
0.010265449422877281
0.01027044326881878
0.010240017416654154
0.010220939562423155
0.010229276078753173
0.010237691986840219
0.010219829563284292
0.01018881801632233
0.010172999795759096
0.010175522604258731
0.010180450921179727
0.010173340615583584
0.010156462267041207
0.010147088976809755
0.010149436393985524
0.010148135399213061
0.010134084218880162
0.010116869809571653
0.010109501453116536
0.010119024504674598
0.010147789436159656
0.010181000935845078
0.010194478536723181
0.01018859561998397
0.01018666711403057
0.010200408718083054
0.010218206911813467
0.010232161636231467
0.010250554216327146
0.010268051231978461
0.010272272012662143
0.010280391288688406
0.010304429040988907
0.01031479460769333
0.010291160960914567
0.010245427211048081
0.010184390506474301
0.010125329163856804
0.010105544964317233
0.010119078335119411
0.01012654158519581
0.01013956339098513
0.010195297072641551
0.010261385376797988
0.010309564362978562
0.010312718760687858
0.0102872112498153
0.010245819598203525
0.01019949582987465
0.01016794693772681
0.010168761293170974
0.01019544716575183
0.01021636346471496
0.010212331655202434
0.010195337590994313
0.010178962153149769
0.010168815553188324
0.01017707374645397
0.010205567775992677
0.010227682570694015
0.010220310363220051
0.010202836330281571
0.010202339235693216
0.010192768252454697
0.01013458232395351
0.010062741660512985
0.010052596075693145
0.010105038710171356
0.01014397777384147
0.010126002047909423
0.01009894288610667
0.010126012463588267
0.010187413727398962
0.010223417949164286
0.010222360182087869
0.010193241585511714
0.010138495300197973
0.01008748534717597
0.010066245390335097
0.010063508619787172
0.010069845466641709
0.010078216423280537
0.010067676034523174
0.010039164250483736
0.01002163908444345
0.010004084015963598
0.01000513364910148
0.010027070227079094
0.010039258569013327
0.010021514849504455
0.009993682107888162
0.009969241209328175
0.009943607994355261
0.009937377410242334
0.009978178297169507
0.010037811464862899
0.01006855166866444
0.010072995520895347
0.010070211335550994
0.010056783334584906
0.010020735005382449
0.00995720412232913
0.009896184287499636
0.009884687145240606
0.009915131974266841
0.009943323696497829
0.009962897801306098
0.00998852020013146
0.010003140062326565
0.00998371136141941
0.009955483837984502
0.009955702939769252
0.009970901539782062
0.00997106813476421
0.009961989561561494
0.009970819968730211
0.010006815037922934
0.010047634565271437
0.010065531018190086
0.010060216694837436
0.010055338294478133
0.010065865318756551
0.010078038924839348
0.010072282708715647
0.010056222493294626
0.01005486430018209
0.01008402594132349
0.010128560311859474
0.010151831841794775
0.010129184694960713
0.010099983556428924
0.010125121455639602
0.010203391838585959
0.010245731804752722
0.010297189593547956
0.010289934701286257
0.01027313734521158
0.010271309957606717
0.010257542449980974
0.010216464484110475
0.010181569849373772
0.01017722443677485
0.010178303553257138
0.010160896750167013
0.010146222432376817
0.01016020387527533
0.010183520098216832
0.010176623747684061
0.010134378245566041
0.010088086657924577
0.010061969729140401
0.010046020300360397
0.010015668328851462
0.009976786512415856
0.009966105037601664
0.009992546003777534
0.01001761921448633
0.01000650083180517
0.009970178980147466
0.009944178982404992
0.00994022811879404
0.00994371401728131
0.009934888691641391
0.009892855092184618
0.009822478006826714
0.009773892553057521
0.009781295111170039
0.009809403555700556
0.009810499106533825
0.009792420519515873
0.009786973474547267
0.009792875642888247
0.009792046630755067
0.009788551890524104
0.009803161101881414
0.009849908642936498
0.009914085092023016
0.009957555138971657
0.009961975152837112
0.009940995418000967
0.00991641707601957
0.009906887748511508
0.009909700349671766
0.009900704612955452
0.009889973402023315
0.009920713369501755
0.009981869278708472
0.01000982526340522
0.00999231291585602
0.00998677193536423
0.010023356729652733
0.010051683787023648
0.0100189813983161
0.009960632452275605
0.009942226326093078
0.009954922292381525
0.00995657684514299
0.009953097476391122
0.009969666391843929
0.009998450935818255
0.010014444566331803
0.01001194145763293
0.01000182293006219
0.009995949701406062
0.010010087348055094
0.010049172333674505
0.010072683501057327
0.010029620769200847
0.01002316941972822
0.009971726012881845
0.009961712351068854
0.00995439189602621
0.00994297456694767
0.009947519961278885
0.009971231920644641
0.009990312677109614
0.009982094911392778
0.00994822027743794
0.009906918675405905
0.009877583751222118
0.009858616568380966
0.009834120877785608
0.009808392005506903
0.009796158990357072
0.009796553449705243
0.009800317322369665
0.009805000070482493
0.009808624212164432
0.009801205983385443
0.009790528744924814
0.009798722682753579
0.009812067209277303
0.009804060409078375
0.009790714838309213
0.00979548108880408
0.009807895872509107
0.009817318295827136
0.009830179362324998
0.009841886655194684
0.009849413288757205
0.009868061903398484
0.009892316345358268
0.009893308645114302
0.009871350000612438
0.00985753468121402
0.009872038543689995
0.009914661506190896
0.009969609652180224
0.010008864785777404
0.010015435946406796
0.00999144186032936
0.009944607658544555
0.009897513600299135
0.00988782155327499
0.009920782537665217
0.009954565232619643
0.009957225502002984
0.009930321101564913
0.009887175773037597
0.009854692016961052
0.009854810569668188
0.009873176644323394
0.009889689185656607
0.009916517277015374
0.009967894706642255
0.010013452987186611
0.010011694299755618
0.009977988312020897
0.009965153888333588
0.0099912803072948
0.010022435592254623
0.010023422129452229
0.009996454800711945
0.009958893118891865
0.009928662069141865
0.009930843234760687
0.009964229038450867
0.009992124665295705
0.010004894960438833
0.010020720977336169
0.010023356430465355
0.010002015581121668
0.010005296709714458
0.010066609848290681
0.010145591079490259
0.010215067937970161
0.01022908950340934
0.010181836830452085
0.010129734507063403
0.010118945653084665
0.010120712433708831
0.010107332291081548
0.010098154724109918
0.010087671939982102
0.010048432879848405
0.010019609273876995
0.010055822938447818
0.010122216825839131
0.0101506430527661
0.010126464383210987
0.01009505167719908
0.010101494126720354
0.010146554603707045
0.010167491445317865
0.010148822733899578
0.010133067701244726
0.010132498570019379
0.010127881508087739
0.010120068924734368
0.010113687611883505
0.010098846845794469
0.010079166289651767
0.010060980805428698
0.010031188958091661
0.009993828164879233
0.009972525442717596
0.009965589336352422
0.009966920032165944
0.00998500087298453
0.00999741856358014
0.009975541540188714
0.009936724981525914
0.009906554227927699
0.009895411238539964
0.009912823498016223
0.009954061914468184
0.00999013545224443
0.009989950229646638
0.009962496391963213
0.009949020745698362
0.009951948263915256
0.00993248121580109
0.009892029371112585
0.009869413425913081
0.009864730214467272
0.009853150098351762
0.009838418639265
0.009839970680186525
0.009866083809174597
0.009900719408178701
0.009905662186210975
0.009877252100268378
0.009868889871286228
0.009901857557706535
0.009927967708790675
0.009913675028365106
0.009882177766412497
0.009869882854400203
0.009887599649373443
0.009923869238700717
0.00996038477635011
0.009979697768576443
0.009982306504389271
0.009982975000748412
0.009979983347002418
0.009959925736766309
0.009929454157827422
0.00991479160147719
0.009926117373397573
0.009945298315724358
0.009958661805139855
0.009966251743026077
0.009966960437595844
0.009970248738536611
0.00998437086935155
0.009984948318451642
0.009943433136213571
0.009881474898429587
0.009863045070087537
0.009912657752865926
0.009972464687889442
0.009987363253021613
0.00997648659045808
0.009971895411144942
0.009959134361706675
0.009919018115615472
0.00987295847851783
0.009860825896030292
0.00990069766063243
0.009968367636902257
0.01001211277092807
0.010006384528242051
0.009983661136357114
0.009982456198194996
0.009975457320688292
0.009925247530918568
0.009878754598321392
0.00989638819359243
0.00994869599235244
0.009974974640645087
0.009974255525739863
0.009975460700225085
0.00997923619695939
0.009968485957942903
0.009940658691339194
0.009911099018063396
0.009888378732139245
0.009862112677656115
0.009825207628309726
0.009791313814930617
0.0097738440730609
0.009755848745116964
0.009713442885549739
0.009659944712184369
0.009619449785677716
0.009595070024952293
0.009610506544122472
0.009699015619698912
0.00973588836262934
0.00978083950933069
0.009755376075627282
0.00974735179101117
0.009798509487882256
0.009855243032798172
0.009854588333982974
0.009812160863075405
0.009793297945288942
0.00982600410352461
0.00988770307507366
0.00994760585948825
0.009983622153522448
0.009985086986562237
0.009964802741305902
0.009951379300327972
0.009955271262442692
0.009958559561055154
0.009948610884603113
0.009938115677796304
0.009945368494372815
0.009972048576455563
0.009998081827070564
0.01000191472703591
0.009987781451782212
0.00997288391692564
0.00996308046975173
0.009958601976977661
0.009943832912249491
0.009895382194081322
0.009859670404111967
0.009865394360385835
0.009894314060220495
0.009879935953067616
0.00984712396399118
0.009859527230728417
0.009907841352978721
0.009933448587544262
0.009907709178514778
0.009857774233678356
0.00983436917536892
0.009853429166832938
0.009889715906465426
0.009923430819762871
0.009944126191549003
0.009935740882065147
0.009898804437834769
0.009854543401161209
0.009824824492679908
0.009825277264462784
0.009851119195809587
0.009876773105934262
0.009886463881703094
0.009874145415378734
0.009837824805872515
0.009803932399954647
0.009806621029274537
0.009834282920928672
0.00983898069593124
0.00980523634236306
0.009773166667437182
0.009776487268973143
0.00979258474893868
0.009774813826661557
0.009724431174108759
0.00970220532384701
0.009748830065364018
0.009823663586284965
0.009852565908804536
0.009824721899349242
0.009794872666243465
0.00979002176085487
0.009786444042110815
0.009768678367836401
0.009742540139704943
0.009707398226018994
0.009661923053208739
0.009628651399398223
0.00963545810431242
0.009670596808427944
0.009692785780644045
0.009686887441202998
0.009678171552950516
0.009690163376508281
0.009717013146728277
0.009751527066109702
0.00978447386296466
0.009768231359776109
0.00968500656192191
0.009607412226032466
0.009599063367350027
0.009652121003018693
0.009723534618970006
0.009776585781946779
0.00978465175954625
0.009768562259851024
0.009748357273638248
0.009738064277917147
0.009756838275352493
0.009794081058353186
0.009810091269901022
0.00979734044522047
0.00979411811218597
0.009825071099912748
0.009874191666021943
0.009917495255358517
0.009940239299321547
0.0099320133542642
0.009902032930403948
0.00987567394739017
0.009857895473251119
0.009842871711589396
0.009842612290522084
0.009865958096925169
0.009897586200386286
0.009912344496697187
0.00990135348518379
0.009878572017187252
0.00986123880255036
0.00985361082595773
0.009843325030524284
0.009817733130184934
0.009793986956356093
0.009801737007219345
0.009828748035943136
0.00983334520016797
0.009814979123184457
0.009816583574283867
0.00985262674628757
0.00988806024659425
0.009894071781309322
0.009889812670880928
0.009915247794706374
0.009966110836248845
0.009994445476913826
0.009985863792244344
0.009974807229591534
0.009985759517876431
0.010010882231872529
0.010030816232319922
0.010035140896216035
0.010022228754824027
0.009991175059694797
0.00995006127981469
0.009922499593812972
0.009929620808688923
0.009963922260794789
0.009998849984258413
0.010023992829956115
0.01004815885797143
0.010071418606676161
0.010078032586025075
0.010064463973976671
0.010057223222684115
0.010078878253698348
0.010101373438956215
0.010083655233029277
0.010044148981105536
0.010029425418470055
0.010039080362766982
0.010032101611141115
0.009986918157665059
0.009927940969355405
0.009892972965026274
0.009891357925953343
0.009907115978421643
0.009925275441491976
0.009935024627484381
0.009929569388041272
0.009907466002041475
0.009862001631408929
0.009801494802813978
0.00975967179518193
0.009751433173660189
0.009762500043725595
0.009781807074323296
0.009808274356182665
0.009836232630768792
0.00985047619091347
0.009845410907873884
0.00984386473428458
0.009869792638346553
0.009902641338994727
0.009895163169130684
0.009845326596405357
0.00986057883943431
0.009887149655260146
0.00994021149002947
0.00997315808897838
0.009979418688453734
0.009976008964003994
0.009986477430211381
0.010017630591755733
0.01005080360919237
0.010083659152733161
0.010127250759396703
0.010163861677283422
0.010170651086373255
0.010159173308638856
0.010153121426701545
0.010159307540161535
0.010177753858733922
0.010202727143187075
0.010214135326677934
0.010205484511097894
0.010200198782840744
0.010213134381920098
0.010219761573243885
0.010190628414275125
0.010142920059151947
0.01011464606039226
0.010103749806294218
0.01008033260004595
0.010035472386516631
0.010019759070128203
0.010014254357665777
0.010016903900541364
0.010044728429056704
0.010052829768974335
0.010019499533809722
0.009978234277805314
0.009953938039252534
0.00993955965852365
0.009933886410435662
0.00994009015033953
0.009962177901761606
0.010000006152549758
0.01002945503569208
0.010048535142559559
0.010091657727025449
0.010131276671309024
0.010140827826689928
0.010112737898016349
0.010097435206407681
0.010099038791377097
0.010082634710706771
0.010045544907916338
0.01001795294461772
0.0100143406027928
0.010021494616521522
0.010020180798601359
0.010008723922073842
0.00999999177409336
0.009995946305571124
0.0099871578568127
0.009973726496100425
0.009974397503538058
0.010005776960169896
0.010045803268440068
0.01005405516596511
0.010028090551495552
0.009996118468698113
0.009983219337882474
0.010008828359423206
0.01006717188283801
0.010114119511563331
0.010116609821561724
0.010092152548022568
0.010091342885280028
0.010149558413540944
0.010232393256155775
0.010263698479393497
0.010230205707484856
0.010193448796635494
0.010191562841646374
0.010196158906910568
0.010170991794439033
0.010128025368321686
0.0101078255509492
0.010109773358562961
0.0100873888109345
0.010045301197096705
0.010056860774056986
0.010140553768724202
0.010224735998781398
0.01026100410032086
0.010268419913481921
0.010266219250625
0.010253149007912726
0.01024230833631009
0.010251251285662875
0.010270977872423828
0.010279778302647173
0.010272877294337377
0.010260138774756343
0.010241820368682965
0.010213214913383126
0.010191670614294707
0.010195355804171413
0.010213635949185118
0.010231213021324948
0.010237330626696349
0.010219908509170636
0.010188530319137499
0.010165664141532034
0.010158939593238756
0.010162510443478823
0.01015735774883069
0.01012724341941066
0.010089803640730678
0.01007661919342354
0.010087002135114743
0.010097105640452355
0.01009146943106316
0.010068396552233025
0.010047731060767546
0.010056051723659039
0.010089059388265013
0.010116248314734549
0.010118841414805502
0.010110720180673525
0.010113082184689119
0.010120856603607535
0.010123838318977505
0.010131641811458394
0.010143306499812751
0.010138987341197208
0.010122476585675031
0.010118333238642663
0.010134439095854758
0.010157518722116947
0.010167800512863322
0.010161179871065542
0.010146840150700881
0.010122314151376486
0.010088264548685402
0.010065101938089356
0.010062175981001929
0.010056605749996379
0.01002500396571122
0.00998254346777685
0.009961479420308023
0.009960360724944621
0.009952169116586447
0.009930732472566888
0.00991239424329251
0.009907959642587229
0.009920225465903059
0.009942475602729246
0.00995147647918202
0.009941676020389423
0.009946441201027483
0.009978847501333803
0.010009837476536632
0.010031366645125672
0.0100550602725707
0.010069198136916384
0.010065892689162866
0.010064192597055807
0.010073413212085143
0.010076555901905522
0.01007271631504409
0.010086085452931002
0.010110310139134526
0.010112665706546977
0.010095751624321565
0.010089892201358452
0.010110444003948942
0.010152643461478874
0.010194168315501883
0.010214218486798926
0.010229085186729207
0.010264752943767235
0.01030285306274891
0.010314759279135615
0.010308794428128749
0.010296109064947814
0.010275551355443896
0.010262112267082558
0.01026930326130241
0.01028677615802735
0.010302358423359692
0.010323014510795474
0.010363101506372914
0.010413451129570603
0.010450013109948485
0.010465856284135953
0.010457443563500418
0.010416287110419944
0.010358280619839207
0.010314654185203836
0.010287269684486091
0.010261886444641277
0.010259907165309414
0.010302989744814113
0.01029768595006317
0.010287418477237225
0.010254250728758052
0.010249502656515688
0.010270710295299069
0.010289138555526734
0.010282710817409679
0.010249642410781235
0.010216968710301444
0.010202126206131652
0.010192617147695274
0.010181211755843833
0.010170054266927764
0.01014645446324721
0.01010311349411495
0.010063549840124324
0.010046395873650908
0.010036843905691057
0.010018793274648488
0.009991549286060036
0.009960752077167854
0.009948487367946655
0.009979996886104346
0.010043935041176155
0.010099149661837146
0.01011646952596493
0.010097594038816169
0.01007732308935374
0.010101745106512681
0.010143653217237442
0.010194165444700047
0.010215751184150577
0.0101885226147715
0.010173125051660464
0.010190042594913393
0.010200021757045761
0.01018484502332285
0.010168085782788694
0.010165659174090251
0.010168399595422671
0.010162577640730888
0.010142837851308286
0.010109042606782168
0.010068106196122244
0.01003931833896786
0.010041928894352167
0.010064770341850817
0.010070395581424236
0.010052625053795054
0.010047453108709305
0.010068783990573139
0.010087470938451588
0.01008733791531995
0.010091181579045951
0.010119224048685283
0.010161529022734612
0.010189223912311718
0.010183285273378716
0.01016624727868475
0.010170337313320487
0.01017989571322687
0.010166004665661603
0.010144612765870989
0.010144358944380656
0.01015683836187236
0.010161945382133126
0.010160415708087385
0.010152220135787503
0.010129401177400722
0.010100205285707488
0.01007784998510033
0.010061625371454283
0.010058082743780688
0.010067945420742035
0.010052879747236147
0.009994215946644545
0.009947427028091625
0.00996785139432177
0.01003360198927112
0.010086532229324803
0.01010345589951612
0.0100985257292632
0.010093110810266807
0.010103548105107621
0.010136921718949452
0.010189942345023155
0.010239964735228568
0.010246638171374799
0.010204245661152527
0.01015599197242409
0.010125533879036084
0.010097779509378598
0.010070734419859945
0.010064806373557077
0.010078485130798072
0.010081707757199182
0.010064612091518939
0.010049914403352886
0.010048694575671107
0.010051894334610552
0.01006735275266692
0.010115545528242365
0.010187518404563889
0.010238428222946823
0.010235528046032415
0.010205543973715975
0.010198356882901861
0.010214127778308466
0.010218123222002759
0.010203199278330431
0.010193183344090357
0.010202410019701347
0.010214917892590165
0.010196533070411533
0.01015075906412676
0.01013936381903477
0.010150349889881909
0.01020319647854194
0.010220989504596219
0.01019922406412661
0.010177054695086554
0.01016372530721128
0.010162256960757076
0.01018130209413357
0.010208586174994707
0.01023077902616933
0.010251621578354388
0.010262375581078231
0.010249590669991449
0.010230490870308131
0.01022507030167617
0.01022313254303299
0.010212606834247708
0.010200536913471296
0.010195618212455883
0.01020147594739683
0.010219324487261474
0.010239293808117509
0.01025427293498069
0.010276952654821798
0.01031226182822138
0.010339743125950918
0.010345164068276062
0.010344919979106635
0.010357083790004253
0.010367504454916344
0.010359323683660477
0.010347570881713182
0.010349192006979138
0.010353345598559827
0.010345435393974185
0.010324915882665663
0.010291088802041486
0.010256037927465513
0.010253437078790738
0.010287200055317953
0.010312464551534504
0.01030324396211654
0.010286448828410358
0.010279689052840695
0.01025850223377347
0.010208121764007956
0.010145634616492316
0.010090446606045588
0.010057667220244183
0.010059783081524075
0.010080960732884704
0.010078918708022683
0.010039164376212283
0.009994293662020936
0.009982346039032563
0.010005226898938418
0.010029906985582784
0.010042814175831154
0.010067583367927
0.010099315874977038
0.010093213405925781
0.01004410430439748
0.009998955238843336
0.009981098283315077
0.00997599748428911
0.009982802924932912
0.010008468661690131
0.01003064060001634
0.0100260524766054
0.010006500127492473
0.009986482188105583
0.009955245529999957
0.00990981655428186
0.009871153524145485
0.009844827003544197
0.009818944252328947
0.009812407090794294
0.009859169276896864
0.009936584188835695
0.009977889506844804
0.009967779642902314
0.009955302244052291
0.009969340809620917
0.009998065357794985
0.010040049913804978
0.010097414192277937
0.010133799624163657
0.010112048635492102
0.010057657514698804
0.010027491231448948
0.010040175273315981
0.010077501474879682
0.010118473295588046
0.0101435578847304
0.010142993251793086
0.010129886779468507
0.010118342409841717
0.0101089025195688
0.010105839378666133
0.010112077319063247
0.010119301114464178
0.010125701647484674
0.010135275835637003
0.010147747820010409
0.010159890914801508
0.010156111461110413
0.010125078601995484
0.010082452425267547
0.01004356521065347
0.010017082606209442
0.010019163587130606
0.010036989835789427
0.010032724280608817
0.010008459226228297
0.009987614833517
0.009961872717831284
0.009928062685066835
0.009907511603087187
0.009900623213034122
0.009891062728129327
0.00987947121495381
0.009871274032630026
0.00986017005634494
0.009849975869292394
0.009862118500750512
0.009909965909318998
0.009987497742986306
0.010066762514179572
0.0101094473071862
0.010106764561496675
0.010093483671080322
0.01010490598040633
0.010129731316119432
0.010133669772185385
0.01011696627130732
0.010105889858677983
0.010108369662193582
0.01011398373870179
0.010113240202190354
0.010099886803654954
0.010089486071374268
0.01011719090747647
0.010174055133247747
0.010211595763685181
0.010221988596022129
0.010230509461835027
0.010242706870194525
0.01025417925673537
0.010269034537486732
0.010290681638289244
0.010313271280610934
0.01032572370255366
0.010326082250103355
0.010321912962244823
0.010313208121806383
0.010293655605055392
0.010264002180192619
0.01022959332796745
0.010196559182368219
0.010175457652658225
0.010170257359277457
0.010165536256972701
0.010153049614746123
0.010152572934748605
0.010173350418917836
0.010193981964839623
0.010196408430347218
0.01017732007894665
0.01013787702540867
0.010090936574852095
0.010060774721205234
0.010059715330135078
0.010068876264849678
0.010059853951679543
0.010042866121511906
0.01006103383959271
0.010118099625688047
0.010159690090222284
0.010151689358754084
0.010125168095109984
0.010124167125904932
0.010151547685964032
0.010183323783567176
0.010197349051013589
0.010175191068556159
0.01012032592552714
0.010062323064776137
0.010028140028007329
0.010040548879187554
0.010098294864874333
0.010152051789918914
0.010164733388228342
0.010154554705368355
0.010145407404052094
0.010133019246859476
0.010110054205870255
0.010085573911201209
0.010088732658186928
0.010130481072701513
0.010161325696390121
0.010180575728882105
0.010143966949544846
0.010117261180421338
0.010122391121694819
0.0101435829710681
0.010168824951397254
0.01016699236468412
0.010102923302911222
0.010055329370079562
0.010009764877613634
0.01002743492485024
0.010056350218364969
0.010061699489597231
0.010047703068703413
0.010030221211491153
0.010021379351383076
0.010012215516762808
0.009979502224596218
0.009935682689538226
0.009895525580504909
0.00988149007083848
0.009897181115811692
0.009923691247822717
0.009938916936516762
0.009931160481646656
0.009905651186127216
0.009879486655117944
0.009868789981119334
0.009877088827779516
0.00989928082562983
0.009923773070331663
0.009933509908150881
0.00992725076735951
0.00992440021247603
0.009938109390204772
0.009963499467121438
0.009982026393990963
0.009964720651041717
0.00992308503948152
0.009866517687914893
0.009869707215111703
0.00994701870251447
0.010022042479831725
0.010037248155567795
0.010021338009973988
0.010027324098628014
0.010074614508775994
0.010137951066717506
0.01016527999774553
0.010144211013102904
0.010111836259020492
0.010096115089254454
0.010108474614098669
0.010147660130169243
0.01017713861190714
0.010170500773238018
0.010160855941940099
0.010170262353494764
0.010164766004309059
0.010130640142597258
0.010098723962437361
0.010086308507015928
0.010084130858303978
0.010081525163259357
0.01007468295050785
0.01005971240112558
0.010029940139502288
0.009991530000697822
0.009969364427961409
0.009981728246202692
0.010024232477881014
0.010077086027013137
0.010111972957383841
0.010108750661602243
0.010084595592925325
0.010087690289365127
0.010127079099183901
0.010141306316945702
0.010094494698569179
0.010037751317722722
0.010013219265965745
0.009989281749585643
0.009940562113188207
0.009901003267150372
0.00989848964731209
0.009908429615898058
0.00990233957883902
0.009894118135562166
0.009909810097888112
0.00993848251993768
0.009948378195986152
0.009934057249920443
0.00991687127505429
0.009912619419628755
0.009913790595019236
0.009907125070458277
0.009898624062770978
0.00989430170855485
0.00987434847280383
0.009830390847055242
0.009794231714913622
0.009785582841141149
0.009782375441864133
0.009765916325850412
0.009743976293830201
0.009729632557136937
0.009734666175208986
0.009773651431314647
0.009844832614762709
0.009911701132077724
0.00993454912560992
0.0099200597894378
0.00990288557484746
0.009889638988533988
0.009876629577483982
0.009886290190042928
0.009919552932260559
0.00994121455354616
0.009946330516831949
0.0099644933862146
0.010005170468939468
0.010050340541638433
0.010087413799483328
0.01010682005668059
0.01008676154888235
0.01002990193781443
0.009972620372427627
0.009935107071651145
0.009913835728075355
0.00990100359194912
0.00988497813232243
0.00986613566870801
0.009859434558311477
0.009863267068285496
0.009854888471309095
0.00982444527442567
0.009793346908409148
0.009785211338894442
0.009797277328325436
0.009816133796703071
0.00982843424542807
0.009815612479578704
0.009767144791549071
0.009698066710261627
0.009656245919177308
0.00966979012475349
0.009719061431242152
0.009747746981447562
0.009744094922207297
0.009735821352805943
0.00973505615023896
0.009742331278976052
0.009758013862883672
0.009768934457097202
0.009768690251512453
0.009770887803751975
0.009781716609140859
0.009794587461510674
0.009804326267912984
0.009803880236577243
0.009793105121934787
0.009798030755482613
0.009834145231870935
0.009854736342094838
0.009814393508713692
0.009767292985925451
0.009737285880837589
0.009749110841657966
0.009791405227733776
0.009841605519177392
0.009872205079300329
0.009882283536717296
0.009879494892666117
0.009861802648520096
0.009839251686353237
0.009825483881868421
0.00981493096682243
0.009798888651421294
0.009782561419997364
0.00977576750330627
0.009780775664839893
0.00978573939180933
0.009773765177233145
0.009751348026329652
0.009747378166066483
0.009768439587205649
0.009792444767663255
0.009808886428363622
0.009811447854153811
0.009781084400601684
0.009726271734107285
0.009690464994637295
0.009699061260325834
0.009730797432130203
0.009752723701531067
0.00976307261735201
0.009772763219662011
0.009780236694496125
0.009782483694143593
0.009780703126452864
0.009777945423265919
0.009769163109594955
0.009742926551261917
0.009705649671377613
0.009670818484155462
0.009641385037684812
0.009642290562624112
0.009706265445565805
0.00975425676908344
0.00980537193478085
0.009797230783151463
0.009778906585415826
0.00979257257306017
0.009823257216485217
0.009831477251136676
0.009813868766650557
0.009801261615939439
0.009817278404952959
0.0098461787274573
0.009875689914915711
0.009879794339649379
0.009852388300932944
0.00981844047550112
0.009803730078274384
0.009808153962949291
0.009803681117482484
0.009778031010646372
0.009755670235026628
0.00974871164537035
0.009738475114572794
0.00971945863799192
0.009701365099754184
0.009679267785977573
0.00964674502494745
0.009616948030889035
0.009608096369775013
0.009625052574556321
0.009670306427869946
0.009724145457148552
0.009790662754094228
0.009809438071679324
0.009771672661881893
0.009748135803965852
0.00977604514802806
0.009798284769058228
0.009761400372954086
0.009710592592600733
0.009655880754580721
0.009660097248852252
0.009687014677328989
0.009700247100554407
0.0097080396162346
0.009724559894530103
0.009734818272991106
0.009729691199027002
0.009721566356020048
0.00970661522471346
0.009677390246652066
0.009657147822435945
0.009672114632558078
0.009724557977169751
0.009797100638970734
0.00986163926194422
0.009904035372892394
0.009929932006634772
0.009945373510709033
0.009965451206080616
0.01000585351837799
0.010041594748618082
0.010033208962995558
0.009994901095051318
0.009980849045095965
0.010005358392372727
0.010033876365050674
0.010052244258113206
0.010068935491144657
0.01006605127477087
0.010022898355964571
0.01001575927482918
0.01002625745604746
0.010054884486598893
0.010082302116788924
0.010094233456766234
0.010098663311218843
0.010085671290289611
0.010055351561168208
0.010045616020215675
0.010071008378872648
0.010082667587557808
0.01005200536106713
0.01002067313529551
0.010021092497045175
0.010026107316371054
0.010010399349266664
0.009996851752512158
0.010007398112211376
0.010026969752507284
0.010046390770003199
0.01008037528838031
0.010125187434023247
0.01014821253833361
0.010134577846620231
0.010114017303567379
0.010113477336708455
0.010116859631380067
0.010109304371289908
0.010102844487410039
0.010093768322840334
0.010061221653595567
0.010015748927835376
0.009995787679217756
0.010009495775448159
0.010021385843865574
0.010012474769027904
0.010012340379180387
0.010043206018162892
0.010081962295807899
0.010107372963102535
0.010128526863409206
0.010148912073345855
0.010155145635362715
0.010143575815018267
0.010126675626961514
0.010122209918918088
0.010133122673723847
0.01013817805913277
0.010131841757101938
0.010145800258032977
0.010188700146973134
0.010211461764993147
0.010185436800820753
0.010159761738032102
0.010178714557550848
0.010206789510557429
0.010201777762267739
0.010185493283206597
0.010178848827490584
0.01015849168295972
0.010121090522734449
0.010097938209073619
0.010095523258205502
0.010089728933526203
0.010081947954604402
0.010106199209112675
0.010159330022288486
0.01020717837032862
0.010217137522995473
0.010187185282120481
0.01013047612272203
0.010120693884091451
0.010072904977714642
0.010054847644641995
0.010052935327403248
0.01006562826805748
0.010102453629951925
0.010151098106289282
0.010182585350703448
0.010191668207990006
0.010204462140100077
0.010236626373371109
0.010271589019102976
0.010282760364934801
0.010260650616837666
