0.010152211943641305
0.010154376145801508
0.010156141525367274
0.010166468803654426
0.010174887935281731
0.010150603872025385
0.010099369245581328
0.010068883625790477
0.010079105853801593
0.01009732851467561
0.01008768961939495
0.010056907370453701
0.010032948733423837
0.010016362556489184
0.010003528007655405
0.01002377136144787
0.010084042625967413
0.010133999196114019
0.010142367502558045
0.010142605127184652
0.010165758773800916
0.010187833149102517
0.010177422284614294
0.010145083764218726
0.01011635249305982
0.010095587993273512
0.01007119637040887
0.010040182144148275
0.010018975956481881
0.010021347996080295
0.010038907263660803
0.010054147497867235
0.01006339159270283
0.010081211770884693
0.010106842242530547
0.010108095320174471
0.010081313884584234
0.010065459537436254
0.010062557927449233
0.010045444425777532
0.010029789294931106
0.010039379124646076
0.010049404157325626
0.010028668383602052
0.010000827196636237
0.010017602550797165
0.010080800806172192
0.010132009003427811
0.010133877269690856
0.010119182067574001
0.010119715122273191
0.01011383032775484
0.010090001285425388
0.010073829861357807
0.010072391830035485
0.010066555093508213
0.010048467441229149
0.01002675541501958
0.010011994790402242
0.01000728398154024
0.010007618145900779
0.010009364942088723
0.010010192103800363
0.010005959260161035
0.010003570658736862
0.010012943912297487
0.01002211575570982
0.010016417396254838
0.010005880664102733
0.010003437238628976
0.010004163081175648
0.01000216192973312
0.009998546150163747
0.009989993227063678
0.009981310268049128
0.009989066869602539
0.01000960674835369
0.010030804867274128
0.010063852406456136
0.01010843854630366
0.010129113553557546
0.010109565933817066
0.010085012864437885
0.010087229890632442
0.010102658303803764
0.010117664663703181
0.01014235762762837
0.010170132308267056
0.010182615115772932
0.010180928726913407
0.010172907161759212
0.010166590880253353
0.010176223711459898
0.010198028279119172
0.010203157642972655
0.010181502231862396
0.0101619593356736
0.010159203935181722
0.01014132053416688
0.010094224727363326
0.010051329702837392
0.010029883992974647
0.010018474970711394
0.010020711231045426
0.01004900186031591
0.010092284702695907
0.010121620893478393
0.01011853340023663
0.01009073442488443
0.010061193651636132
0.010039131770608946
0.010021531480015255
0.010019783536554314
0.010043908564257435
0.010073547480278649
0.01008720087702386
0.010095881021698005
0.010106632385286503
0.010095349462353624
0.010054769446724095
0.010016477859462612
0.01000859154155478
0.010027613490819931
0.010048950822674669
0.01005999745160807
0.010070792174665257
0.010082581762690097
0.010087021882063708
0.010092564517399295
0.010100334933958947
0.010090044274693354
0.01006842976086773
0.010064524750341662
0.010070996743161231
0.010061162310885266
0.010034723359858617
0.010006847258191556
0.009987514393869787
0.009979188984725624
0.00997421404288616
0.009955816873698495
0.009921824390185066
0.009902631040895359
0.009927702998393215
0.009987655088771134
0.010045340736978688
0.010068868470843881
0.010060972105129622
0.010053408991661855
0.010056132038589566
0.010050825763028116
0.010040336020174435
0.010041857875185087
0.01004633026139345
0.010035088859149255
0.010016655086074024
0.010013020650949328
0.010018441083375365
0.010017597607220523
0.010025586624979042
0.010061067085480317
0.010115558123216033
0.010159621783532202
0.01016005658893846
0.010114355139667169
0.010060741602210328
0.010036110190558247
0.010031987727270462
0.010008914137142711
0.009959582320880145
0.0099155184882693
0.009890501232002863
0.009872399829910138
0.00986330842191819
0.00988422601018101
0.00992969806480687
0.009959259940660558
0.009958407641970552
0.00994779688422568
0.009935410662437789
0.00992493734927848
0.009928419862990267
0.009940397997852415
0.00994512528879568
0.009936323696747422
0.009915830001118594
0.009894650768255814
0.009883442043210379
0.009874139945604838
0.009847229100414552
0.00980430060357321
0.009778250523959286
0.00978876260051038
0.009812510974006728
0.009824334398144856
0.009826986639527604
0.00982971340417862
0.009833209783537314
0.009832184129045345
0.009824622803716921
0.009819105564965867
0.009824661499005743
0.00982983771886211
0.00981518478016369
0.009802750388626009
0.00983145623235032
0.00988016017654445
0.009895368202705868
0.009865861638681963
0.009828045803587884
0.009826194017077796
0.009860908503178507
0.00989585051254835
0.009924138659262099
0.00995198512042407
0.009949429939151742
0.009912188553716988
0.009889861586270855
0.009897923415410332
0.009900603070273064
0.009881713954964653
0.00986038651142735
0.009852496353560128
0.009855012279585936
0.009857539768563583
0.00985779199807439
0.009869174036430195
0.009894906673580409
0.009916047584847548
0.009934009973076172
0.009968647634377704
0.01000541387591511
0.010012625165400095
0.009993487839819864
0.009976715656812303
0.009977246360504068
0.009976432815310545
0.009951689718291164
0.009926610908005387
0.009936025300994515
0.009961132338503376
0.009970534665044398
0.00997814561589621
0.010007791945245117
0.010043532762210816
0.010041004981612787
0.009987163179321214
0.00993748414563015
0.009946392884012311
0.009982701626140624
0.009990559780271724
0.009977525594877079
0.009969345290446654
0.009961999065708368
0.009955743636237458
0.009965804850216954
0.010001467132242396
0.010060716150328518
0.010123013963457196
0.010153711582534015
0.010140558166895061
0.010110872997902334
0.010093041426734999
0.010081162806600333
0.010057367909466848
0.010029280972667039
0.010022053922293708
0.010037254482740536
0.010047546392306685
0.010038906465051695
0.01002617843565531
0.01002511648926884
0.010030449162004516
0.010026082725962624
0.010011333697475493
0.010001844809157773
0.010006966211367398
0.010017503109993412
0.010016763046151027
0.010005104164592922
0.01000425792299211
0.010026647999184206
0.01005321649950929
0.010060754285659642
0.010051094150403514
0.010032428073463962
0.010008276669541374
0.009990791364107281
0.009988235114142298
0.009996477438835426
0.010006242864765227
0.010001040268689395
0.009979348564520478
0.009962532913777977
0.009963642884977163
0.009987926776520908
0.010029796331655233
0.010061605999944732
0.010069791971473023
0.010065519765485078
0.010058576776646077
0.010056007689563558
0.010067760788369923
0.010091787490528076
0.010100529487244785
0.010075843776576221
0.010042319974163548
0.010029404521919787
0.010036256308667361
0.01004886518814601
0.010057471682084724
0.010058781165862457
0.010052370581543074
0.010039212091360241
0.010031912634149194
0.010046925770584494
0.01007964603486471
0.010111773509997875
0.010135396821424366
0.010154818013543263
0.01017926768050529
0.010207464508712292
0.010220659099286423
0.010212777524720877
0.010199792151106522
0.010186509359627963
0.01016784792416729
0.01015249426709488
0.010144098908640445
0.010132920761825516
0.01012409612769261
0.010128935364773496
0.010140414737397805
0.010143974556121975
0.010130979877430946
0.010109631126979365
0.010103463968262076
0.010117410267703235
0.01012822068296373
0.010124653716338798
0.010128761602099984
0.010156286805868149
0.010179663664894178
0.010159863805165514
0.010102003929205239
0.01005290868342854
0.010043753052596003
0.010056363443145528
0.010058296772185712
0.010056114841718226
0.010078895693877711
0.01011607576860115
0.010130215761018918
0.01012193514383398
0.010123844444751739
0.010148867632960901
0.010184846211923287
0.010218122836668043
0.01023218002053909
0.010211068640928715
0.010167672493262217
0.010133089714217931
0.010123869185335935
0.010139951538294554
0.010163306952454149
0.010167892096797004
0.010150175230810419
0.010131716147297994
0.01013294306350872
0.010154758675489574
0.010181887582875788
0.010195750168059022
0.01019212802289985
0.010182928177528083
0.010163209819002077
0.01011811593431048
0.010073752842145041
0.010065835189307109
0.010078337290324271
0.010084607377648354
0.01008936192607507
0.010092087145894766
0.010079733961028979
0.010060638384893537
0.010060199279105292
0.01009035665076226
0.010136061161756516
0.010170091351028532
0.010187670561717823
0.010208608618704602
0.010232638862216845
0.01023791498155333
0.01022657536319457
0.010213869811268523
0.01019675529561937
0.01018062643473968
0.010181316927773878
0.010182276035193354
0.010161074049538001
0.010133665782632306
0.010120728064794093
0.010120780877768994
0.010131279145134613
0.010151810022071004
0.010162856187671423
0.010143000964308157
0.010111183970002458
0.010102880315389483
0.01011737396242097
0.010123387991916389
0.010095969189424068
0.010044518902432173
0.01000668307999149
0.01000088932691142
0.010010037434985861
0.010015842269640416
0.0100049928878434
0.009970210742903874
0.009937541185645387
0.009941260864725337
0.00998014020966366
0.010029559781542048
0.010065749374916777
0.010082277811598032
0.01009585132705979
0.010115555985830724
0.01012983733206056
0.01013843568856828
0.010149001800455153
0.010150103092892096
0.010134827945148573
0.010118898389628157
0.010106888868613169
0.010084289566148073
0.010046138133620843
0.010009826429886744
0.010010077629704028
0.010056682304712012
0.010104044252075254
0.01011078840121627
0.010093349114758893
0.010088034453801811
0.01010263645206578
0.01011818940169178
0.010113942904863506
0.010095485369674861
0.010089331275084988
0.010095583170186728
0.010094849487068132
0.010098395654931664
0.010125972013920546
0.010162674232851714
0.0101815097394865
0.010174014727817848
0.010146373865427449
0.010106423771940171
0.01005416505271569
0.009994398396229372
0.009954888980137183
0.009954465571790933
0.009969065400073305
0.009970843060873449
0.00997272064560093
0.009997153497533873
0.010032637831754983
0.010056106618139892
0.010061109270900488
0.010043779908446595
0.01000713261310011
0.009979638902004808
0.00998653884860687
0.010009362928103656
0.010014110668562353
0.010004674339434132
0.010001296973787249
0.010001061210641638
0.00999858952127397
0.009999117592815309
0.009995022263610735
0.009974231858504936
0.009950120107969269
0.009940889074932784
0.009935955989640206
0.00991937666432932
0.009898796282941475
0.009884429334197193
0.009874314279295504
0.009878920648479833
0.00991513106157072
0.009964416082948447
0.009991558322217315
0.010000783130526542
0.010012108566006645
0.010015070207882672
0.009996596372220666
0.00996422685449943
0.00992870780522935
0.009902793768560514
0.009900385738583282
0.009915811077225953
0.009929628882091493
0.009936099224723875
0.009935737358173356
0.009928268308285623
0.009926287835696712
0.009934595264494419
0.00993566038669087
0.009920955945271998
0.009898530574282631
0.009874490847578273
0.0098562766762916
0.00984596126829274
0.009831327762221918
0.0098107811040245
0.009798042853362858
0.009792241639224812
0.009780398007715121
0.009772430349839852
0.009792906941147522
0.009829173452453687
0.009838678350206465
0.009818034208146855
0.009805111376335844
0.009809007808798923
0.00979833262041211
0.009764338509412482
0.009743061747867614
0.009760026227449998
0.009794604819035158
0.00981279206695035
0.009810443532187492
0.00981117895920761
0.00982417730963789
0.009835613444447517
0.009847120734630153
0.009865471113007515
0.009866993729956449
0.00983940231264569
0.009819303858093917
0.0098353642586153
0.009865170049015432
0.009875276481034234
0.009863233977230266
0.009851823200006039
0.009853903328767045
0.009853199110366404
0.00983989263419062
0.009835098213516176
0.009847265335265547
0.009848930757725612
0.009827005548868329
0.00981083826511167
0.00982037904090248
0.0098330338858068
0.009824170634383336
0.009791539337020367
0.009746697329683229
0.009717601785669104
0.00972794137429446
0.009765468331752345
0.00979921486461535
0.00981802299269475
0.009831405623117462
0.009847693684278055
0.009870880903908983
0.009902613464510069
0.009932004732545465
0.00994337460026145
0.009939922015182673
0.009934962688712403
0.009930887232767418
0.009928457469213755
0.009930739797418937
0.009933574049500748
0.009938936867984012
0.009954021488083527
0.009966452301014214
0.00996396594098769
0.009960588528774678
0.009965380870271474
0.009970666775479912
0.009980640304274858
0.009992586774751544
0.009983328280504793
0.009963112197583541
0.009968505166471004
0.009990541622973978
0.0099920829734765
0.009965126931201667
0.00992174684535712
0.00987584528629668
0.009843983314931392
0.009838895057328045
0.009871061646845192
0.009938271802384406
0.01000492114573717
0.01004205955308862
0.010068628881126642
0.0100999078550376
0.010117999908979982
0.010120423118351027
0.010123651629546657
0.010128504043677822
0.010127404013182968
0.01012228554696776
0.0101204985298682
0.010123912175185979
0.010131547416094691
0.010148593038320542
0.010170301984762773
0.010175474585266783
0.010163613668410107
0.010162924581672996
0.010188349850941449
0.010222361540654675
0.010237509284634143
0.010233851466327906
0.010238802791573107
0.010255891082342714
0.01025476910523139
0.010223228441318497
0.010186684662476181
0.010169358282582834
0.010163442397024483
0.010147807667963207
0.010117825280176476
0.010082596852444113
0.010048416949575766
0.01001640510861762
0.009989836674649269
0.009974390350980683
0.009969753219047561
0.00996782467351295
0.009960496824933216
0.009951288427691907
0.009951160686323419
0.009953295825980604
0.009942327219760046
0.009927615706110372
0.009929169730748982
0.009951812548097223
0.009986598410177976
0.010015106096398085
0.010027085992041974
0.010034309056354686
0.01004489915096201
0.01004969047033228
0.010046553816646337
0.010041823843494058
0.010032402048818768
0.010013418049784378
0.00999228768516332
0.00998054824420251
0.009981665717205032
0.010000636699842289
0.010042569926008582
0.010088642763439565
0.010108412801055238
0.010101910610683263
0.01010133373667486
0.010122617626329884
0.010138180166250095
0.01012111006071791
0.010089326057350263
0.010073398377280683
0.010067895093234256
0.010051169811049476
0.010036452820058913
0.010050385985523462
0.010070441839052363
0.010057213586987928
0.010028738004621118
0.010022526220418514
0.010021968480432407
0.009993248211685568
0.009949183341814206
0.009923768296139314
0.009921497026225553
0.009926278282655403
0.00993691708194092
0.00995864429161884
0.0099810488789808
0.00999894418520853
0.01002126262173988
0.010047128287842497
0.010075884978286922
0.010115399016067386
0.01014132374431938
0.010112754718866199
0.010052492554532364
0.010024983027251437
0.010037046410143375
0.010046271710889414
0.010040844423929229
0.010039143478497863
0.010043640572112053
0.010046409675851464
0.01004541123402305
0.010033301999792457
0.01001011194079183
0.00999732399592176
0.010006310699973256
0.010016600174130872
0.01000776700093411
0.009996125446632505
0.01001549941371195
0.010067732974421232
0.0101208079920616
0.01015408044680953
0.010171332969330251
0.0101741094479803
0.0101656230003573
0.010167208113707603
0.010191192654892801
0.010219919399823994
0.010231981044635177
0.010221560994395987
0.0101846612081863
0.010119604162173345
0.01005524606211111
0.010039036152884364
0.010072238030843436
0.010102595002390444
0.010098850561771542
0.010083619827637448
0.010084830189589411
0.010092686937423424
0.010080681309336797
0.010051401553209872
0.010037567170802503
0.01005753421341069
0.010086131823481993
0.010089152924483641
0.010073120809393004
0.010064706535777077
0.010063943393761291
0.010059926338726655
0.010063903047703207
0.010083107767859473
0.010092222187668086
0.010073941805167123
0.010052846972830593
0.010057303885696455
0.010083053901325911
0.010111514712916688
0.010134298907360062
0.010142479311907664
0.010125100874574855
0.010101290750317276
0.010108379527227953
0.010142964121187106
0.010165660042548551
0.010164514393545687
0.010163211089093238
0.010175020686583594
0.010188481353688985
0.010186589951626957
0.010163478774484248
0.010132299060933292
0.010115442177047953
0.010124242583988235
0.010144033950055018
0.010142835341393947
0.010112766050733626
0.010084332447731867
0.010080372913507744
0.01008802215452306
0.010086435078410432
0.010077173196477815
0.01007592439535074
0.010078654288081452
0.010069610996870324
0.010059702965663745
0.010065730226924642
0.010077992649748922
0.0100840020168107
0.010082542537711561
0.010078175446251407
0.010085099984426051
0.010105336116394028
0.010113345859572291
0.010090263402089477
0.010056641476694494
0.010049046870553866
0.010064328011358157
0.010066900918027387
0.01005306655773893
0.01005307250074111
0.010081561105325819
0.010128580753225834
0.010179564512800426
0.010216784254880621
0.010219664593460038
0.010181339518167078
0.010114404420601204
0.010041708275675774
0.009986429548589512
0.009965194006217643
0.009978046577889471
0.009997154815355316
0.009987989543005824
0.009953829220030457
0.009928527444135398
0.009919762865174563
0.009907318338518963
0.00989296534913592
0.009890113102737814
0.009882987259188666
0.009860398839227855
0.009852486583404242
0.009877774792257696
0.00990461413981393
0.009896253688493744
0.009853583659278228
0.009810703539988025
0.009801921640755608
0.009830250735394657
0.00986891852109693
0.009890916791046039
0.009896495541324839
0.009900003198999911
0.009897743491455913
0.009884688943857326
0.009878335498506204
0.009891360925976186
0.00991620146902278
0.009943819893524051
0.00996801327681169
0.009980763738276437
0.009978086460614577
0.009970116410404444
0.00997486846637912
0.009994939347961918
0.010017669157823548
0.0100392539834138
0.010064997421577572
0.010087724402546882
0.010090347587829456
0.010072918022051453
0.01005294319242239
0.010030632978305221
0.00999166772235185
0.009948317307280376
0.00992119226953946
0.00990044430247508
0.009874330424936488
0.009851870398269966
0.009841312719509006
0.009842463850509376
0.009851338060107082
0.009859736836515367
0.009863593217451125
0.009871712824096903
0.009888038218487055
0.009894636822864414
0.009881025409558788
0.009868311932077631
0.009873399706557394
0.009881094424054026
0.009872313581872731
0.009850471628597006
0.0098362546635326
0.00984869062784128
0.009881689858157188
0.009903459993656724
0.009898850369499996
0.009895922380965204
0.009914012061199174
0.009928227846976369
0.009926674210000784
0.00993204586673528
0.0099498891166877
0.009962178997229785
0.00996302423416637
0.009961983545217663
0.009968925529392436
0.009984141178429128
0.009995420067571103
0.009999171177623794
0.010006096415454522
0.01001338224625215
0.010006714391056448
0.009986607200698928
0.00997136719059199
0.009973312010988594
0.009976640603272245
0.009960012414958329
0.009931871433509513
0.00991304746363312
0.009905997075838969
0.009906285273609683
0.009917591981356964
0.0099419648735784
0.009975112017709762
0.010009577146265656
0.010030470170313492
0.010021474012173712
0.00999573571025394
0.009993527135811746
0.010020598156843334
0.01003621080541052
0.010021903020096944
0.010005727619864046
0.010008093686774373
0.010009116280125454
0.009983502872055397
0.009946248270571232
0.0099355008918792
0.009955238330876455
0.009983416174072772
0.01002152618020773
0.010073234468000009
0.0101121457060799
0.010120118143968284
0.010107104839989915
0.010084600925911218
0.010065202594269067
0.010067201259080321
0.010092421398730948
0.010121628227643668
0.010131717239273712
0.010106700964970515
0.010065189802553505
0.010063547698082402
0.010114135171752423
0.010153761190595105
0.010145668413024396
0.01012836509384215
0.01013420640025288
0.010142194584477692
0.010126088097458706
0.010093148235464469
0.010069327767705544
0.010071607050485909
0.010087056484771893
0.010089133547153325
0.010082503611920401
0.010086887802463024
0.010091337928315625
0.010079718010965735
0.010064138383604586
0.010057796447072179
0.010059117245255038
0.010067781171528623
0.010082442447310314
0.01009826758177951
0.010120059967739507
0.010152557586552575
0.010177956293337048
0.010170960745308549
0.010132416636915878
0.010089266723953187
0.010064323670230807
0.010052256411872804
0.010035880401264876
0.010021870217751711
0.01002528858720325
0.01003235818934627
0.010028729352634401
0.01002915419638157
0.010039804661646485
0.010048549285857007
0.010058044471079483
0.010075113610364497
0.010089257910149172
0.010091167965438217
0.010091567161725833
0.010105652224738151
0.010124086629366503
0.010121091908076777
0.01009318707161583
0.010064293558243662
0.010054766027024016
0.010064046957995742
0.010083912796108051
0.01011517626582645
0.010151243195869028
0.010164217969868333
0.010142877792241052
0.010111884549260139
0.010095204996177927
0.01009825550019741
0.010116338134976104
0.010134254074655473
0.010135638022329658
0.010128819211386144
0.010141329972539097
0.010170889490982517
0.01018095232313499
0.010165115384152159
0.010154638793319464
0.01015475305262953
0.010143731682328508
0.010123481791233645
0.010118713888805359
0.010136483024107293
0.010147691738093273
0.01012147418456152
0.010076118455035612
0.010059805714990943
0.010083741686539725
0.010112686232896522
0.010115317122545093
0.010101717478828504
0.01009866821113974
0.010104560137260705
0.010108070280402899
0.010118264813208953
0.010138195166364312
0.010157117231283336
0.010174524795729667
0.01018804823514074
0.010187630683649331
0.010182036292972043
0.010183600967284292
0.010174959579017014
0.010135206800187006
0.010084373956779018
0.010067069205688313
0.010094334449386224
0.010136076154885813
0.010166195336496457
0.010182159803807735
0.010194388449890538
0.010208888086490333
0.01021512727951631
0.010207281579496338
0.01020318504772149
0.010216065797721966
0.010234698575222865
0.010242143727373332
0.010228713062824682
0.010203272872604429
0.010193343635182827
0.010200674475636334
0.010194076464977116
0.010170431958977133
0.010165852200007066
0.010196395805105568
0.010231337350560352
0.010241344260284677
0.01024245320702903
0.01026092009153217
0.010289657727116718
0.010312295716721565
0.010331400049617514
0.010348503933055326
0.010352560157189146
0.010342931812629104
0.01032937680138275
0.01031318697379902
0.010295299363788217
0.01028049889486283
0.010267062677303328
0.010254742004908621
0.010251631940482184
0.010259002490201966
0.01025952553609386
0.010240656937239691
0.010224942315835506
0.010240206223679707
0.010268347130622715
0.010267939211335033
0.010234836239833385
0.010201709708198906
0.010190099528990686
0.010194549451116473
0.010208896056283265
0.010234024674864485
0.010259867758722976
0.010279024905757978
0.010300008261110634
0.010323075470514595
0.010340222105151042
0.010353371794335544
0.010366117500234395
0.010375979181844741
0.010375616264063865
0.01035376423271373
0.010311535792425275
0.010272262818180024
0.01025610750541091
0.010255585638806224
0.010248749256134034
0.010225898064672946
0.010198109674965962
0.010185321795288473
0.0101996864809189
0.010239439324941486
0.010284742651274428
0.01030053043155931
0.01026739610126242
0.01020555707393214
0.010152282122289762
0.010125442680437118
0.010119995744898915
0.010130059627117589
0.010149782067164779
0.010163462811615318
0.010168111779494211
0.010187255737837403
0.010233675281051546
0.010278635458089411
0.010287153203971684
0.010267094866139814
0.010253020743839443
0.010254789012251422
0.010248781150439755
0.010216738723684102
0.010171739070210606
0.010137906912714243
0.01011877387179993
0.010095528949750587
0.0100584272085689
0.010034335089148954
0.010055837950203568
0.010107427407056092
0.010140645237406716
0.01013563089654781
0.010116114655975252
0.010109880277886986
0.010124799280893057
0.010150005706818774
0.010156697171041743
0.01013417120790109
0.01011943113990128
0.010138975247973575
0.010160871553234757
0.010155610491055995
0.010150922024622559
0.010181791215436532
0.010230781730497256
0.010255648820893838
0.01024346900987439
0.010210215677507222
0.010178204643307254
0.010165751029271633
0.010175814825342968
0.010194915713509545
0.010205553887644783
0.010203311773948372
0.010201258143642917
0.010198880187235772
0.010175094606820494
0.01013095978065394
0.010091677025193348
0.010070687239058317
0.01006668160436675
0.01007372872554697
0.01008426999906078
0.01009149698074907
0.010084442133083939
0.010064326076535507
0.010062159699155018
0.010094472037162633
0.01012744161649607
0.01013217261293903
0.010135036583524198
0.010166236443910747
0.010203273582737893
0.010211129585513845
0.01019318011822179
0.010170202919980512
0.010148976920172572
0.010131392306648194
0.010124002621741965
0.010125178442103788
0.010125388326123357
0.010121219141874463
0.010118453514296561
0.010125610219547524
0.010134119396097959
0.01012247080449015
0.010096995671046898
0.010075868660351261
0.010050386559450999
0.010025224938290193
0.010028996970504522
0.010059082228690387
0.010089335688389838
0.010102393358247355
0.010093843133654445
0.010082238973118364
0.010083467008080334
0.010081466974224896
0.010058012789813801
0.010018939479487017
0.009986574648646638
0.009978129717055709
0.009980561936972663
0.009969125878997146
0.009950551714282482
0.009948132432764396
0.009957060486776755
0.009953972839284689
0.009939186169067398
0.00993604720220901
0.009953134286915884
0.00997328138910234
0.009982180104125292
0.009988240187522025
0.01000795946805738
0.010044075830373913
0.010080568005796521
0.010102741117589176
0.010119088505161926
0.010141689934534952
0.010160212217597291
0.010158526313025504
0.010133100326638668
0.010091312718577683
0.010058366589946672
0.010064264376414939
0.010099244136363268
0.010121182498987764
0.010120407178765162
0.010124376544263214
0.010137623840710147
0.010133332554250956
0.010099058805499226
0.01005351571366191
0.010021110691595822
0.01000321892555803
0.009982754898956045
0.00995977383106947
0.00995953445089981
0.009985282968264073
0.010001038844930008
0.009994168463163079
0.009996497754473239
0.010014576613903045
0.010018067107303068
0.010004397988086566
0.01000134006375447
0.010019928459078073
0.01004324336303398
0.010050217871321366
0.010035187327302993
0.010003583275247365
0.00997410225099884
0.009972913092933595
0.009990507719339802
0.009986796497832984
0.009960205112583935
0.009947038458194583
0.009952287569176406
0.00995471000438556
0.009961601055692881
0.009984837141819298
0.010002139306161553
0.01000017236568965
0.01000296229030937
0.010032077571377158
0.010080826160265132
0.010121306857327
0.010120580988004804
0.010078823093790561
0.010050352584803477
0.010074834142578766
0.010112018347717822
0.010116846576565877
0.010111698936671019
0.010121767352102325
0.010137172939721495
0.010159373386995867
0.010193744454300031
0.010214175665751099
0.01019900786341168
0.010173082833644003
0.010168170455144718
0.010168367713922634
0.010146063346182928
0.01011830301489681
0.010110069339862093
0.010112698439043015
0.010111922420328483
0.010103697899030522
0.010088293208973483
0.010074897239683196
0.010070382705889643
0.010070718409260736
0.010072479111840948
0.010075090434402228
0.010080578064080328
0.010097835856722668
0.01012734156451188
0.010150165997911244
0.010148887187242508
0.010123166057746857
0.01008835356333293
0.010075748319504783
0.010108474985463545
0.010162027328042313
0.010188992631155998
0.010183865302242339
0.010174335626652464
0.010171931150835008
0.010176941222744063
0.010197748386999592
0.010232653563143686
0.010251259300857782
0.010220414982177317
0.01015450135921128
0.010104889525100589
0.010093748304061591
0.010104171794373541
0.010119837826350704
0.010135972234420478
0.010152179806027561
0.010163415980059654
0.010160934654995799
0.010159548848168925
0.01018743526772596
0.010228480254299939
0.010235243659699335
0.0102065660583321
0.010181083370698616
0.010167757297167554
0.010153835060773417
0.010145659002009779
0.010150230636354536
0.010156687205890193
0.010154782613972202
0.010149442064575851
0.010150210171705112
0.010153579524485394
0.010155668924562633
0.010163860612083226
0.010175878492882475
0.010178204701514915
0.010165124729974195
0.010144189378479496
0.010126283606514335
0.010114748741034418
0.010118176237447186
0.010147448440548032
0.010182436562608928
0.010185850075213238
0.010159058498684316
0.010144049020018428
0.01015572955366224
0.010159857288235798
0.010139707553898916
0.010115905343554913
0.010096805859357119
0.010077995079336688
0.010065457501914352
0.010058354833163322
0.010048909060424193
0.010046547275269404
0.010064806644804776
0.01009599290904589
0.01011745932046324
0.010114262223942206
0.010091838293010368
0.010068911398993805
0.010063147059408948
0.010074011619435623
0.010078063003020362
0.01006030483287759
0.010034336049575359
0.010013249953044579
0.009995549691375345
0.009984447991009802
0.009983772907871754
0.009988572659203783
0.009993403947446496
0.009995809432584792
0.010001395302824677
0.010014962173299865
0.010028203668771312
0.010042423070408403
0.01006179349962622
0.010063781487988309
0.010042083133012056
0.010028785144677387
0.010030860559782013
0.010019805021584035
0.009984796969220042
0.009950702202040702
0.009959461418911814
0.010017047002911568
0.010064748632721603
0.010065844071796164
0.010060349262785167
0.01007035450078547
0.010065367750357837
0.010043759364634752
0.010036401783581823
0.010051463587442412
0.010074194567278028
0.010092500576283782
0.010108405067585409
0.010129954940639436
0.010151237391401082
0.010159783371491357
0.010164621225558222
0.01018042158568278
0.010191300493897871
0.010171818062663079
0.010130035573383793
0.01009111549705267
0.01005922332406044
0.010031974579906091
0.010013955492759123
0.009993735348107293
0.009955859476467594
0.009914716797647999
0.009900074838660657
0.009920556667493656
0.009956696055596695
0.009984017205424607
0.009995984358247369
0.010000087694497778
0.010006666952976957
0.010018213032744826
0.010023279715096579
0.010023125840816646
0.010037992659490555
0.010067657100735232
0.010087413766887038
0.010090008127735927
0.010093900267966091
0.010103417364880442
0.010097358791390433
0.010067637045867741
0.010042313869344071
0.010049456765409559
0.010070450971834361
0.010069433653261512
0.010058567905798555
0.010080524930963293
0.010135205326369032
0.010175681991968303
0.010172084167134016
0.010139457629993558
0.010112244331976399
0.010115368244005368
0.010145427968818694
0.010171202894998715
0.010165157340234146
0.010134267316898331
0.010109735638834536
0.010109568962361664
0.010121398435439915
0.010127946528373287
0.010135070045944303
0.0101476541464217
0.010147094799904152
0.01012836035923101
0.01011397960362956
0.010109859292861074
0.010094808731228113
0.010062771391822024
0.010039070169441403
0.010052438746206462
0.010102598973317072
0.010148052625590936
0.010151580554665997
0.010132212270982564
0.010118783456273378
0.010106455042259767
0.010099278505658732
0.010105948232812807
0.010104901721933856
0.010085292989388109
0.010071331745712087
0.010073892653454096
0.010071120868669823
0.010048320186324417
0.010016896649030969
0.009992847690591588
0.009985398598946631
0.009999683039495721
0.010028977565234527
0.010053180905524641
0.010067318710498511
0.010097051649354398
0.010160150758456438
0.010233411935623736
0.010276727689197287
0.010277434178860859
0.010256170914508402
0.010230956466402858
0.010206573354080319
0.010193107662489638
0.010195144577883184
0.010198669952806085
0.010191433395957574
0.010178118972107767
0.010165031543001532
0.01014431975549087
0.010109137770486996
0.010074767352780328
0.010063662987668066
0.010077730350894853
0.010102405563229696
0.010118773857830093
0.010105087007395923
0.01005732121062465
0.010004049319541082
0.009984132889658213
0.010010879919864237
0.010057106588501483
0.010088030052138493
0.01009301826590672
0.010074911684496328
0.010048487766180187
0.010038741043535993
0.010049728073645382
0.01006205555750057
0.01006607114803046
0.010067735878983512
0.010070761232636869
0.010071616008644924
0.010059639039682225
0.010033288538688795
0.010022025548387319
0.0100438955926802
0.010061156034935266
0.010040498902089894
0.010006534070707857
0.009990530792856589
0.009985357351833955
0.009977227541385218
0.009972268508281559
0.009971713152481243
0.0099635852209758
0.009945621663937344
0.009927549875574187
0.009916440051747487
0.009912365004420281
0.009916118461405858
0.009927789209177718
0.009939261917024851
0.0099436038301792
0.009944395036436618
0.009952961592935025
0.009977371010463684
0.010006220994982868
0.010020458737853915
0.010020167018519715
0.01001812006928958
0.01002403034362942
0.010037656804779544
0.01004774791537784
0.010053323486354203
0.01006851625512354
0.010088178721489385
0.010085980772273614
0.0100617017026525
0.010044928396819159
0.010046911832178011
0.010052051465027034
0.010054206481436267
0.010067924984032289
0.010096815157448874
0.010117466355441139
0.010107501350576057
0.010069022550014779
0.010029699213337153
0.010022828610381111
0.010040026664501055
0.010041153358761221
0.010030828992603347
0.010048546798061579
0.010087746108183637
0.010103492309572176
0.010083393272943796
0.010060877130599692
0.010066129916813224
0.010089721077820286
0.010106743217911572
0.010110982520272956
0.010108607369475067
0.01011094338609837
0.010127937101060525
0.010153714136686176
0.010180361159145833
0.01020609684754163
0.010214973376132547
0.010191244028974325
0.01015716625843197
0.010141095619183034
0.010130161164561287
0.010112366270041093
0.01010429352056235
0.010108055236050859
0.010106459154048935
0.010092418935382739
0.01007878028205596
0.01008399409125559
0.010097121360013261
0.010093536309432239
0.010088837487855926
0.010109003013931216
0.010134346695849672
0.010135020973393694
0.010124063761904835
0.010137080500135199
0.010176615082891659
0.0102053292945493
0.010197387728840112
0.01016580728115514
0.010138859800063073
0.010132795276585966
0.010142775463173166
0.010153561092447489
0.010153982368065044
0.010142288227798417
0.010128791122697293
0.01012050525052473
0.010105640958063305
0.010079232738353311
0.010058694537729024
0.010055645139655098
0.010065542202210054
0.010077888427767903
0.010082702182698995
0.01008567551150918
0.010102499541826546
0.010127715072594584
0.010137941624270752
0.010130229057976977
0.010126772187650204
0.010136456326581538
0.010138686524005607
0.010118521703407168
0.010094583141617477
0.010088886158773675
0.010093753021210431
0.010086577917682006
0.01005785760236904
0.010018992646364496
0.009991129899863154
0.00999019299633801
0.01000889650429599
0.01001998047111556
0.010016236850060523
0.010013124247780069
0.010014206011546775
0.010016766205662862
0.01002321289270185
0.010029621288413181
0.010029090662719682
0.010021549006924034
0.010013747150078417
0.010010852186242118
0.010008228055667132
0.009998712957603857
0.009986129408935085
0.009982759992126375
0.00998994082212448
0.009992849749978631
0.009984848853200674
0.009978000853443518
0.009974129064939916
0.009957970204995946
0.00993364087655209
0.009924757917178794
0.009936333246296272
0.009952567107975483
0.00995987726491876
0.009955621312838048
0.00994970830040984
0.009954302827827633
0.009965227019274608
0.009973289028275758
0.00998183513409458
0.00999219159130007
0.010001018655020743
0.010006036142585798
0.009993120027938857
0.009956008499721065
0.009920818565879017
0.009910707998787984
0.009912453363649548
0.009897809098474682
0.009857306511839851
0.00981042941682972
0.00978924707043916
0.009803823744878173
0.009829227604204788
0.009840576418209821
0.009842486534034833
0.009844238846562802
0.009833977340022101
0.009806745426030829
0.009780768383061514
0.009764373628422618
0.009756783292395994
0.009775645786430687
0.009832167660351842
0.009894739256706088
0.009922252986580133
0.009924751782091335
0.009935889333719387
0.009948743096319958
0.009946637406246737
0.009946775622665882
0.009963401838904247
0.00998151906649582
0.009984682959038765
0.009975037868134678
0.009962754094740376
0.009954992355778814
0.009954862538725138
0.009957269387086853
0.009955706351902335
0.009954074730630964
0.009952662017894909
0.009937726955395193
0.009908276203786955
0.009889057814143598
0.00989652166608721
0.009920222711516545
0.00994302384671755
0.009953611467499285
0.009954625646350905
0.009965337442699819
0.009984057381516323
0.009980102474801243
0.009956533811055124
0.009951508743688465
0.009966978749725968
0.009970374798867851
0.009951793279033155
0.009936664495617151
0.009949694387614727
0.009973391883540898
0.009973600823432207
0.0099571024463512
0.009949240440037102
0.009949733501998707
0.00994458347093314
0.00992848361027427
0.009910681227920578
0.0099027440615464
0.00990064163808711
0.009892913026269524
0.00988257717806846
0.00988975410000421
0.00992730981321074
0.009973524156957864
0.009997259420342743
0.010003775379154832
0.010003936869325117
0.009982695108046755
0.009949324982007965
0.009939672842156142
0.009953246420482174
0.009965703712077811
0.009972697932971642
0.009975866745226086
0.009972038868581876
0.009966076087439433
0.00996184048592113
0.009948874135734514
0.009926768013974652
0.009925803757505491
0.009966724674450233
0.010028958939947187
0.010084683323511853
0.010121195582905784
0.010119836941594258
0.010062610829481854
0.009975956740090624
0.009921919110929593
0.00992484288988635
0.009954233369790018
0.009983265057671815
0.010011218133149669
0.01003524879226461
0.01005015529692173
0.01007035152404569
0.010106204219628125
0.010136614227667451
0.01013569260132499
0.010097664162749424
0.01005451395874843
0.010001154738711193
0.00997837277362123
0.009982935105217621
0.009996651518158615
0.010017666277708486
0.010055977184092625
0.01009529685950838
0.010104464396135882
0.010086012850515545
0.010073617757298052
0.01008060340769589
0.010083800649736076
0.01006865844479762
0.010044988081790506
0.010019041181076318
0.009991077536251397
0.00996171921491623
0.009932848492171615
0.00990626169834286
0.00987549680750817
0.009841182810487226
0.009825004036538304
0.009846247696550563
0.009894309407100082
0.009935669662663713
0.009953216838184745
0.009962536407401785
0.009980229006614535
0.009999840357340872
0.010006439401768147
0.010002938153920695
0.010012837040703744
0.010044996361248195
0.010069328090175987
0.010061581139452755
0.01004755922826007
0.010056267197942361
0.010068823910551146
0.010055520214373247
0.01002265169750899
0.009991418359568342
0.009965798235498369
0.009946842464851216
0.009941793975885958
0.009948723918059841
0.009956995720276609
0.009961222106358036
0.009972008214099333
0.010001169379102066
0.010035037908237428
0.010044936104677618
0.010023871931480244
0.009994231088785454
0.009975411943159998
0.009967599358642474
0.009964533504098655
0.009960547181544826
0.009952981267124414
0.009941980630392208
0.009934260977897793
0.009938160169404
0.009948491442482919
0.009964665552834049
0.009994140290655196
0.010025721295969561
0.01004328616661951
0.010040907585062087
0.010023231519153342
0.010014114262303338
0.010031142083462327
0.010056123464601115
0.010059845249634236
0.01004751981352456
0.010047414323780686
0.010056424661306664
0.01005216951132752
0.010046527488157153
0.010063691443065181
0.010090378622990101
0.010093871402787044
0.010068361163139344
0.010035579082323238
0.010011601023143158
0.0100004480057396
0.010005108155310154
0.010019475049339234
0.01003075041458942
0.010032959169475362
0.010023920258972793
0.010008871122263372
0.010002271161647513
0.010006501825992019
0.010012135930592194
0.010018679699860512
0.01002664684667252
0.010029831236461178
0.010030474710511043
0.010037163991946728
0.010052092133555561
0.010071496138116344
0.010089059065794572
0.010103548610350116
0.01011922470643185
0.010131865014554932
0.010136604472063483
0.01014803594793193
0.010179556094808504
0.01021441634860821
0.010235854599159211
0.010254432058427482
0.010266963384347037
0.010246320128208026
0.010196639692876487
0.010161079339450225
0.010162323956610635
0.01016969870077446
0.010147066550562158
0.01010759869706817
0.010087162280688062
0.010093560768291354
0.010109284186037258
0.010117836549179629
0.010117065673694015
0.01011595742427744
0.010113985354546457
0.010098270195303485
0.010076300905784591
0.010075495083583519
0.010091407096479089
0.010091222578193993
0.01007616325165145
0.010074557553743944
0.010086017698049544
0.010090618659742177
0.010083420702721923
0.010068023069761694
0.010051932439673693
0.010047050084685906
0.010051907694432885
0.010055384680163116
0.010061252567684278
0.010081442733062431
0.010105918360641225
0.010114406797802076
0.010114612862234935
0.010122142722830177
0.01012428343994543
0.010106813969323412
0.01008423048304394
0.010078293351689353
0.010088505260646342
0.010105574614135549
0.010128642655909062
0.01014461754122749
0.010137124921893701
0.010116581133333967
0.010099289015633985
0.010080064518842847
0.010052308063022793
0.010034852474927903
0.010046021975576878
0.010066271814284846
0.010063766333041712
0.010042059344705194
0.010030907003674656
0.010041273972019553
0.010061526073841379
0.010080764748854562
0.010089440405135975
0.010089388688793405
0.010098440882284194
0.010114466404775157
0.01011453110491857
0.010095535995205865
0.010070562260225416
0.010042906109010801
0.010016820344608277
0.010005019321106375
0.010003124020295217
0.009987481269054115
0.009945581185165793
0.009885310630779713
0.009830080522224307
0.009812910296022891
0.009846919558476656
0.009910468127345666
0.009972340950043871
0.010013640086399392
0.010029038954526186
0.01001796821714379
0.009985567774856463
0.009951573390280829
0.009941106508485974
0.009956573027884587
0.009962362673832104
0.009930921093327924
0.009892062925500796
0.009888462035451084
0.009918255342636257
0.009936488408129662
0.009959394421894103
0.009966290945885702
0.00996443587820977
0.009955328486394138
0.00992624175734818
0.009880461029242725
0.009848449503770097
0.009841691277688368
0.009844396074768155
0.00984797817771323
0.00984525167150423
0.009828075877157972
0.009812472438206897
0.009822728976141662
0.009845829454716295
0.009845492067979649
0.009826143184909597
0.00983032594085671
0.00987854805891402
0.009951408202759922
0.010012885187752545
0.010044700326398015
0.010053808885859326
0.010042539928108454
0.01001420667162165
0.009991208291612565
0.009981973412213846
0.009966444023884833
0.009937125544529407
0.009912217087112367
0.009898814869811758
0.009884657794609666
0.009870440694503485
0.009876742808846756
0.009907439900562167
0.009930268549360334
0.009916219062870369
0.009880962560418993
0.009866280602291227
0.009883143457118422
0.009904929650947452
0.009918332720408216
0.009930006057256833
0.009941798058571294
0.00995031816419214
0.00994523061788641
0.009920398652320727
0.009888738915324212
0.009860968091525138
0.009831757306819781
0.009801984129007906
0.009789123877417295
0.009804465471534058
0.009836754538118839
0.009864673095289617
0.0098770372744184
0.009880037840921431
0.00988447651732713
0.009890989100094885
0.009892341059166938
0.009884369495557621
0.009873367863474414
0.009863769743824378
0.00984596400288865
0.00981928879977204
0.00980309593374841
0.009806940288981422
0.009819662587251515
0.009830697829602286
0.009841569159179926
0.009855454509379342
0.009861066367011517
0.009844160520005972
0.00982165202498436
0.009826753421220928
0.00985046454006806
0.009852753926534206
0.009828662807121873
0.009801960577024147
0.009785743134561925
0.009788392747286706
0.009811311441008002
0.009833883229875938
0.009827306990046055
0.009786038306774571
0.009735857909545302
0.009702542412560433
0.009694034358253702
0.009711380309890955
0.009743622381938622
0.009763930932385846
0.009760823980905116
0.009754952398361638
0.00976696823257953
0.009790704103652388
0.009802835454465822
0.00979025591746904
0.009765621958067641
0.00974276906810701
0.009713287064805627
0.009670672946376725
0.00962800528621301
0.00960614754469134
0.009621038798941299
0.00965361466514878
0.009656137677375227
0.009625483709387482
0.00961149238049984
0.009637075540376827
0.009669874453684314
0.00967880226788111
0.009679187119472773
0.009696567467181012
0.009709816329414025
0.009684995461720974
0.009644208567915485
0.009639585813274607
0.009681752328760921
0.009729770154226571
0.009738230074290186
0.009709037751890718
0.009682220834074542
0.009673197513911873
0.009667277914704755
0.009666858204873278
0.00968782815267332
0.00972447453532368
0.009753411879064516
0.009770787105662749
0.009797740856884047
0.00982978635467589
0.009830966918962077
0.00979753584251739
0.0097619656578172
0.009743470357498153
0.009739498253911733
0.009736684506060555
0.009729347812244668
0.009730510700028389
0.009740832963725552
0.00974878881010227
0.009763713495340198
0.009791726305847988
0.009808147464646026
0.00979226128431037
0.009765497234184295
0.00977057964191772
0.00981222616508603
0.009852675049332902
0.009875572624150664
0.009898856584914028
0.009912010011030361
0.009884224139386787
0.009840938156703487
0.009831896767718718
0.009850087149534375
0.009860555761260912
0.009859826290048659
0.009861845471896231
0.009858272350393237
0.00982669734628871
0.00977254499332048
0.00973280802834779
0.009732023652177305
0.00975960566313006
0.009795554352458567
0.009830602749716491
0.009858259409666061
0.009869006724329665
0.009850938498275355
0.00980234211543575
0.009751456796657294
0.009738723031478002
0.009774950261926279
0.009834253260632976
0.009880162901245057
0.009890370891662314
0.009877439168049023
0.009882401765789837
0.009925211890367791
0.009982222970575095
0.010026538125239313
0.010060862548416481
0.01008663933374919
0.010080271220067516
0.010039580831071362
0.010001402229536325
0.009984071975341067
0.009962782306829468
0.009919835870387033
0.009882400829810649
0.00988069940591231
0.009899342242861167
0.009908172872383148
0.009905245552072301
0.009899903865298256
0.00989059487124905
0.009877991112880409
0.009871877447003498
0.009872360997833311
0.009869634184287861
0.009867181058507413
0.009876709888922051
0.00989899252774194
0.009923967071808875
0.009931930683087557
0.009916578544070943
0.009914599460316822
0.009953856731299312
0.009994243364781141
0.009997817816911265
0.009998951458837836
0.010031383889727295
0.0100687820056919
0.010086803912417962
0.010099632111378013
0.010116099811857565
0.010125783080002292
0.010116304676048458
0.010073750168085099
0.010007015329319984
0.009959976295940578
0.009956172452075408
0.009968564822338521
0.009961053017759696
0.009929920937865972
0.009908952970290557
0.00993240141775459
0.009979294021613896
0.009995977710932493
0.009986314040143043
0.009995432725409046
0.010016728319460527
0.0100132112915162
0.009987172856926917
0.009969901735894382
0.009982329478953033
0.010013323159655555
0.010033532686065882
0.010035173575161024
0.010031221113167703
0.010030011279741301
0.010036578344879673
0.010046378674451262
0.01004003951093182
0.010016176209319383
0.009996148751815781
0.009986385081429034
0.009980225943727418
0.009983632588991896
0.01000393731170334
0.010032054315088317
0.010054812412708997
0.010065280017443001
0.010058763863053172
0.010044659475097433
0.010045211429242045
0.010061005894094706
0.010075815550517292
0.010099422169150784
0.010147343669086695
0.010189628504449502
0.01019120199372992
0.010176107384031638
0.010178446909412742
0.010180450351908803
0.010161718571325765
0.01014149547321722
0.010135735175572336
0.010132527610985563
0.010122605127980933
0.010119923141319305
0.010138349016197026
0.010161514580249786
0.010160906250821427
0.010134497429244221
0.01010325682349503
0.010088806039420887
0.010103290637489408
0.010131820930400864
0.010142543545225636
0.010129870771197601
0.010115197714185342
0.01011710739810951
0.010137547596823424
0.01016045270836912
0.01016580322640948
0.010151053078006953
0.010131130199879409
0.010113883620360866
0.01009823770960793
0.010097190617816523
0.010120722020510585
0.010144538086606189
0.010147589232074096
0.01015007697045803
0.01016295577515848
0.010160363006871193
0.010139519417425618
0.010137084115995095
0.010165449634660035
0.010193785049486905
0.010195127801271155
0.010168288392014802
0.010126267453888432
0.010089370870264246
0.010075440425425767
0.010079984740586951
0.010081018458586187
0.010076283867238089
0.010086084429640324
0.010108672141795979
0.010122536940034479
0.01013609767658636
0.01017017661128193
0.010201136147370561
0.010188005110248923
0.010141056929714978
0.010109005603007972
0.010109679483575747
0.010113655981840566
0.010097576716216281
0.010081131368642672
0.01008793959626928
0.010102474234299734
0.010102398218587041
0.010093679376877844
0.010087129232706502
0.010076870117336512
0.010053988605504856
0.010028632410103456
0.010023688115179539
0.01004601368564181
0.010082391739124431
0.01011423930991441
0.010132093798602
0.010142841452034191
0.0101505022123456
0.010147304331185296
0.01013380054035224
0.01011652245069854
0.01008917553233914
0.010043178300838918
0.009996490135090425
0.009986337220761926
0.01001255315844901
0.01002713262452744
0.010009733682963998
0.009991836650297046
0.009986332226544619
0.009969209244009108
0.009942477692384273
0.00994358874624595
0.00998153530759737
0.010025017447769641
0.010056406196672469
0.010080457522999495
0.010095676052151248
0.01010043706279248
0.01010514863068238
0.010120450975373388
0.010145827170927078
0.010168227597605438
0.010171139473095536
0.010152799534844235
0.01012327003874816
0.010088983845198527
0.01006080343737267
0.010057883870322257
0.010092275445349514
0.01015227772295475
0.010196066041244194
0.010187679673545063
0.01014016410219483
0.010094610988162458
0.010078462802339346
0.010094410807359963
0.010118327378295362
0.010118713243864477
0.01009205304319039
0.010055994259892032
0.010022690457990393
0.00999505439423956
0.009973608882864938
0.009966345680877566
0.009976330435601994
0.009984735099133104
0.009981597622390837
0.00998892221134156
0.010017674260307103
0.010036144751356915
0.010018174512078986
0.00998040814884007
0.009943576594814658
0.009911223620874807
0.009894273444078863
0.009909000138286501
0.009948539956239984
0.009985251586185769
0.010005077959503979
0.010014995464589447
0.010018238204065711
0.010013080178759992
0.010009420696878806
0.01001720284926705
0.010034084422513842
0.010050582219846546
0.010040761512937025
0.009987574161496014
0.009935811106115579
0.009935445520095527
0.009951591313583776
0.009927367273485288
0.009879811765858903
0.009860313525423407
0.009881376790581271
0.009917883130256086
0.00993438032688573
0.009918478190666064
0.009908523166086525
0.009942023998592049
0.009986740230815486
0.009995584706775845
0.009999809527071192
0.010052744254935533
0.010125506905606017
0.010154507415136323
0.010134840048849583
0.010109830127330497
0.010110231996513903
0.010120493473950774
0.010112008228898049
0.010093680144054816
0.010087123947450892
0.01009216314763762
0.010099099822109565
0.010094946686876938
0.010078466894337907
0.010062811539974063
0.010044954860350118
0.010017657146090642
0.009990124481264502
0.009970253948122263
0.00996037050965242
0.009959252530243247
0.009962520682020113
0.00997488183551468
0.009998127942671999
0.010016624875133858
0.010020416906336323
0.010014937821542844
0.010002690760884433
0.009987991249654443
0.009989738034782931
0.010018903866875917
0.010051795094041154
0.010056097959168255
0.010037538324249909
0.010020150091731921
0.009995698269922287
0.009950346536934376
0.009906841301126406
0.009887061340268701
0.009883527217898518
0.009888715454144404
0.009907377018826082
0.009937076868955046
0.009959262455813587
0.009960766017902642
0.009950839595403523
0.009944298134651036
0.009947165440535173
0.009955935261677951
0.009962711550761014
0.009975349460728467
0.01000629663350992
0.010034981205826625
0.01002753889421001
0.00998958877986297
0.009962483263807371
0.009965773737058044
0.009979741980787367
0.009993249336257577
0.010015167226083577
0.010038596721133218
0.01004795097745955
0.010051742910873145
0.010067886834731326
0.010089324407745152
0.010096839460311457
0.010088926836615428
0.01007617216790095
0.010068228713935241
0.010073100849986076
0.010082186142681167
0.010070802707923576
0.010044399719918147
0.010046444060280919
0.010088873514905571
0.010120734253432602
0.01009934272733517
0.010056097198976204
0.010052910962840542
0.010095445002662018
0.01014137700200081
0.010176635610405356
0.010212821043096483
0.010238676446024329
0.010240644512232394
0.010229163862532005
0.01021304697263986
0.010188418170437218
0.010159365509171039
0.010140060383128003
0.010132198164938018
0.010130536707583815
0.010140428813174366
0.010155480348039418
0.010159507525386288
0.010162222182843834
0.010178301949054003
0.010194693880621344
0.010191888571716845
0.01017344135674648
0.010169155942276121
0.01019591876771301
0.010225046628620475
0.010225787630770356
0.010208408725447952
0.010193383278092369
0.010181441294262185
0.010170040961820632
0.01015254044905305
0.010119285396067426
0.010093576709041372
0.010103696067817509
0.010131113476818427
0.010145485310349613
0.010140644622733817
0.010127645846223459
0.010124424787936731
0.010137594384141267
0.01016538264695555
0.010200360825983808
0.010216719227610156
0.01020582788507454
0.01019653883879073
0.010201561959693208
0.010201741385972128
0.010190110123949126
0.010182951630558818
0.010194624378345906
0.010215774987591431
0.010219654783140868
0.01019852718221955
0.01017108362633735
0.010150106874061749
0.010132937903981655
0.01011730773607269
0.010106594962999225
0.010104250368895009
0.010103546578902752
0.010091989536304026
0.010080938679166138
0.0100990256795194
0.010140064160805196
0.010164225965272635
0.010157869782997295
0.010145694883540272
0.010141303492709995
0.010130647205514834
0.010112049402669071
0.010103673193370924
0.010101993172429501
0.01008122561732307
0.010038789014797657
0.010005836999043822
0.010009676563786343
0.010044618613319472
0.010080000606831164
0.010091303859371691
0.010083369945641607
0.010080012407852336
0.010096563072875143
0.010123302068095655
0.010135877843713387
0.010128510367358103
0.010115406197728589
0.010100800360087306
0.010087820109911263
0.010090510244481266
0.0101003236847464
0.010096608323510736
0.010101126389345154
0.010143955203238875
0.010190133292926475
0.0101840236550197
0.010138571180868894
0.010104105370119213
0.010088135785190388
0.010074155353941024
0.010071768738562241
0.010088774219620972
0.010098764676367864
0.010082511657383292
0.010059634044300764
0.010052533323178068
0.01006415243493393
0.010089760489063338
0.010112223743926734
0.010114387721987441
0.01010861437767744
0.010117023260099813
0.010130045489640907
0.010121043508406728
0.01009264390799217
0.01007013420225121
0.010062488763360307
0.010061863638693467
0.010064336254727095
0.010070057783741504
0.010075210351496935
0.010074281212873758
0.01005481656640768
0.010004844145150855
0.009941804998088628
0.0098926881281659
0.009857889356790111
0.009831400205148383
0.009819164187647403
0.009825285399565474
0.00984304748242721
0.009860967006534337
0.009874876353424043
0.009887265785364434
0.009898979059653357
0.009912812411785125
0.009932426924351603
0.009953978747362272
0.009972719906363637
0.009987526178592816
0.009995349667733536
0.009992715219268575
0.009984891607891767
0.009990728007396683
0.010017976715462283
0.010041280804434791
0.010030731854494662
0.009983685652259737
0.009935097130946815
0.009901098075788468
0.009907563098240644
0.009924760145368054
0.009914318311493843
0.009889916960382834
0.009900106466375291
0.009945417382987216
0.0099771372100804
0.009980342547642067
0.009981001309351995
0.009987974299583584
0.009995403561042622
0.01000588889233768
0.010013330016518012
0.010006934489356354
0.009993051493074745
0.009979921129997819
0.009964930708520114
0.009951660006772728
0.009945163892116398
0.009929320234805345
0.009891245763283223
0.009850515014259145
0.009825871287612245
0.009811522393720224
0.009808418335160241
0.00983327591791749
0.009878537205513566
0.009908648080890998
0.009909934148890898
0.009900409327819944
0.009897565122228115
0.009906637467211113
0.009920468897325918
0.009924631947651506
0.009918932889122515
0.009920506238704547
0.009931663607712835
0.009936284220311791
0.009939440201269462
0.009958689133636654
0.009977659315336496
0.009963184886146337
0.0099194095202256
0.009889188742963597
0.00989903140696697
0.009922665990889073
0.00991871339152567
0.009885375739540904
0.009856713393237442
0.009859840004937724
0.009877513577230275
0.009864098366815597
0.009819930375088007
0.009795466422801838
0.009801851242082193
0.009805678819539025
0.009802025514654816
0.009804343143478035
0.009803215968422591
0.00979265031288378
0.009789384449832142
0.009797876512166112
0.009796963232802228
0.00977908874861896
0.009762714167591184
0.009757701334310696
0.009757485275622457
0.009757464213762432
0.00975560411810875
0.009749155654571951
0.009739616579608992
0.009735553299542517
0.009739924077875913
0.0097350245132111
0.009705608467338606
0.009665697232121602
0.009640111371409148
0.009638925017789006
0.009655603537103161
0.009676199742825702
0.00969270262052305
0.009716795933200047
0.00976162904757075
0.009800386758288369
0.009794189955573528
0.009757673148997129
0.00973420578520745
0.009734594295732677
0.009742467170581222
0.009746994987362995
0.009747446364490315
0.00974131075432524
0.009730527056381106
0.009732238717842847
0.009753022337099538
0.009766682265326381
0.00975375038338825
0.009736586350481958
0.009739529725629836
0.009749189587309956
0.009737379243597388
0.00970302484347485
0.009683445014525205
0.009705977406119927
0.009743078593164683
0.009756753402762115
0.00975131630548276
0.009749265438877046
0.009753424590453506
0.009754496443783865
0.009752606501569972
0.009753745172638446
0.009753308178624139
0.009731682252604514
0.009686002032831311
0.009653643445344641
0.009657309512840584
0.009670819251332431
0.009673042974900454
0.009677831205772236
0.009705246587982401
0.009753366695949808
0.009805955024203285
0.009858827127609403
0.009907916863448918
0.009928468550788239
0.009904031666228547
0.009854645375162363
0.009816577034071088
0.009808229835471138
0.00981673511560075
0.009810412476072087
0.00977592817042023
0.009739824059652165
0.009729043800616637
0.009730766919674352
0.009724001411814242
0.009718761466210708
0.009725716458633541
0.009730962401954457
0.0097412324603647
0.009779043508460745
0.009810316992225126
0.009789099225308746
0.009750602951971814
0.009747224976308644
0.00976532670087181
0.009776642969809473
0.00978656989056617
0.00979966850602068
0.009800931344507262
0.009787727624643593
0.009779830342158674
0.009789372456725686
0.009809436082141474
0.00983018875005655
0.009843939043348656
0.009844614691101015
0.009834793700138107
0.009822398298420012
0.009810465368209407
0.009799407449318096
0.009797132755629719
0.009810830233618617
0.009831333316396922
0.009843839416280389
0.0098450223042164
0.009841431968379766
0.009832290529739112
0.009802534104092047
0.009754752535372972
0.009720980164129287
0.009719695068197325
0.009746220384258777
0.009791514935204759
0.009836117882514372
0.009871042479062453
0.009911817638203502
0.009952871022978798
0.009963000235147774
0.009941971781663596
0.00992069325526245
0.009905830866191536
0.00987392685841769
0.009826580460648984
0.009800265454687178
0.009799654966918751
0.009791437980020419
0.009772981867427007
0.00977146886056289
0.009790730567183346
0.009805062945233659
0.009791375059867278
0.009755798621335998
0.009729735602159053
0.009740247738081962
0.009787705701310188
0.009850552153075114
0.009892618211451917
0.009918124898103998
0.00991661277017556
0.009900812982814387
0.009884499612962828
0.009870142203290015
0.009845796575536952
0.009801112766144798
0.009744181243004277
0.00969498711056076
0.009670396295841783
0.009673285051248967
0.009685940921772272
0.00969047954888083
0.009694431539392099
0.009709898314904422
0.00972709473920986
0.009738108137389645
0.009750836672028527
0.009759118560468778
0.009759023061487824
0.009782302200328559
0.009838566518155858
0.00988011819194071
0.009874334927881137
0.00984013655455783
0.009803991101216524
0.009773832180071622
0.009757678650785237
0.009764825396705418
0.009779369932366534
0.00978054958046414
0.009773731108289212
0.009766939738765358
0.009761222624219953
0.009761504040798173
0.009767085085622967
0.009771175672067329
0.00976977522368543
0.009760959998238831
0.00974577086046338
0.009735088084125891
0.00974165347754024
0.0097618953732308
0.009776016597170383
0.00976571393199265
0.009738449443830177
0.009720708836102859
0.009717404809780419
0.009717354025924578
0.009727198758628219
0.009750255385879427
0.009770654772873968
0.009787503331899643
0.009808841306949034
0.009820599396480247
0.009810045486083253
0.00978584305732511
0.009757363662356511
0.009735744394129142
0.00974122000974603
0.009768962254747748
0.009783509444678202
0.00977386825834401
0.00976726874592714
0.009779105335474015
0.009794304876122624
0.009799923094687983
0.009796991541516037
0.009783547343686224
0.009762555520283059
0.009755436985287816
0.009772948863683269
0.009792844644980505
0.009797218667808921
0.009798509321408347
0.009813070652307942
0.00984101383946836
0.009863240259001031
0.009859355263179168
0.009841510955011472
0.009837960770819337
0.009849681709893048
0.009850202581146732
0.009816303473198786
0.00976088271709159
0.009727329348679632
0.009737178202485666
0.009772182651795447
0.009808421585476026
0.009834906589239835
0.009848160850815475
0.009851311617530882
0.00984985163086094
0.009838483347557485
0.009803670996334404
0.00974699690937996
0.00970343136577867
0.009712012741947546
0.009754829839803279
0.009779852437786759
0.009779526934726163
0.009781121824635192
0.009795956291491166
0.009813208226114511
0.009813653951277956
0.009795032922411337
0.009785924229072407
0.009807461353484542
0.009838107853429392
0.009846457277890295
0.00983468464575708
0.009829757096013055
0.009845857479376718
0.009862840070854872
0.009853898076107726
0.009830061352113261
0.009822528128279374
0.009837142383912579
0.009858548649353906
0.00987049427931197
0.009862767250742763
0.0098355125146918
0.009796212879009544
0.009756864535156638
0.0097298252384644
0.009726060304092243
0.009755718862870709
0.009812357514165341
0.009866616802755744
0.009895634027197958
0.009902317258529365
0.009896100338082761
0.009886407416779548
0.009891211625654251
0.009918319260468706
0.009951189521234482
0.009971648427890613
0.009983618683181704
0.009999997086124495
0.010020295401336626
0.010031439990270882
0.010011728758690878
0.009956383930984884
0.009913705382496118
0.009929847099119798
0.009969409625045954
0.009974299852037802
0.009950696945888921
0.009929760757368058
0.009915399668971077
0.009908747465815396
0.009914043403696268
0.009914352686610072
0.009900577765656636
0.009895412180339918
0.009903098163194955
0.009897539793746546
0.009879324466455728
0.009874174686847254
0.009885010590078309
0.009896637382917106
0.009903612512862309
0.009906746424967423
0.009906544256955386
0.009905941986944526
0.009898929842747747
0.00987350223818794
0.00984330068109557
0.009845559684326871
0.009896037839353085
0.009967956995824352
0.010022531951544806
0.0100495123420842
0.010060970288468524
0.010055049266666173
0.010024008756736293
0.00998830097843893
0.009972676292527467
0.00996790572302416
0.009955520291114225
0.009936443966580555
0.009920864354353399
0.009917033077217639
0.00992626562830992
0.009938377509824932
0.009932628512615338
0.009896983666112646
0.009857334132539109
0.009854642691789196
0.00988024267135188
0.009883850126061588
0.009854100277880206
0.009836745777865872
0.009862976468866691
0.009906648992327974
0.009928063128609211
0.009920086849015207
0.009902405359316618
0.009898466266458855
0.00990795305930078
0.009904814730398358
0.00988516531768255
0.009880707026459276
0.009903170871548355
0.009921563599491492
0.009915434140712023
0.009912037284811959
0.009941695487359539
0.009987912741489708
0.01001428960938938
0.010019343378953636
0.010027468444313854
0.010034403087338432
0.010013134047621861
0.009966906295157969
0.009926917756674812
0.00990914943977259
0.009905217302730307
0.009908306741854176
0.00991520537994802
0.009911959830205888
0.009900705149630085
0.009908061313908548
0.009934947236906737
0.009953359075589106
0.009959979185368865
0.009975621463963762
0.009996635729912669
0.009993785656988621
0.009964588368311524
0.00994590798043646
0.009957823129370809
0.009973564498359337
0.009960923416074366
0.009928695991402493
0.009910368251148612
0.00991163779865019
0.009914469023933635
0.009920055002439768
0.009934135953662916
0.009934443595120683
0.00990185555187054
0.009858102808939293
0.00984255131916143
0.009864584887400269
0.00989731191773899
0.009917573399143294
0.009927268605679274
0.009933555712923408
0.009937581019476055
0.009940252109663561
0.009935900513082742
0.00991568339872174
0.00988925016252324
0.009872830518288538
0.009862482830649243
0.009853712240001186
0.009860604119021446
0.009880494343815372
0.00988038258627057
0.009855708519462497
0.009849319736240432
0.00987932167132385
0.009910165927140042
0.009916035615606233
0.009913716943701729
0.009918077762704343
0.009918914376758039
0.009913135666865856
0.00990942407399416
0.009903028440894558
0.009889288059202955
0.009880278328200803
0.009874534234404564
0.0098538944858592
0.009821318796603008
0.009795448809163644
0.009788335156627
0.009800636088475584
0.009817338873399422
0.009823892667191103
0.009820190317695961
0.009813680273946374
0.009813483881298452
0.00981894891592674
0.009813577195163816
0.009788239314220846
0.009757284201914445
0.009735465361736716
0.009719712026417256
0.009706599460914732
0.009707088622963055
0.009730254809837788
0.009769140327116475
0.009811590400058776
0.009851485879626126
0.009880630057305098
0.009880605759099126
0.009850577336037532
0.00982182944077067
0.00981159372604452
0.009807884810725228
0.00980227938038297
0.009788569294614717
0.009761455570114777
0.009734501763014124
0.00971944231307134
0.009702980283182115
0.00967098362976685
0.009636435192078352
0.00962575453100726
0.009642973623704166
0.009664866691455245
0.009673062125220894
0.009677942520938813
0.009694966020761057
0.009708627052605152
0.009697951030684635
0.009673222484998405
0.009655712941894308
0.009652690243674442
0.009662905558943748
0.009685671419138089
0.009713757339632138
0.009726485601859167
0.009704393782885744
0.009650116693228484
0.009589028916088864
0.009546310572186485
0.009528134098509326
0.009532472107093782
0.009558911772910506
0.009590319024864584
0.009595193254062906
0.009563937616767361
0.009525283438852056
0.009516996416496113
0.009534829480107873
0.00954021263634786
0.009527679363964125
0.009525806760648266
0.009542056141654029
0.009562875106930734
0.009571737282676622
0.009548397192265839
0.0094944888795726
0.00944739859784022
0.009447540078544989
0.009506253065774217
0.00959619607310742
0.009667349882656709
0.009692054026527331
0.009689333403948695
0.00968940945691429
0.00969744756934233
0.009706405781907962
0.00971477719838731
0.009725649140309543
0.009738821627106518
0.009744279800215735
0.009738090846221894
0.009730446526082232
0.009726847782731056
0.009723086713347585
0.009713897909969092
0.009703358123078942
0.009706802832661197
0.009721641051582993
0.00970899066189304
0.009642694285139442
0.009563869108678773
0.009531307789729907
0.009539291041437536
0.009546187069499865
0.009543617918388918
0.009551260290900246
0.009570393421454356
0.009569369168020784
0.009530984848970548
0.009490647349739447
0.009485451554646716
0.00949654792668298
0.009488892088411376
0.009474439766490832
0.009493475115159527
0.009559374270029366
0.009644614001736045
0.009703041752800345
0.009710373191628605
0.009694413620745763
0.009699747957056389
0.00972401097533293
0.00972769884741865
0.009698662621667608
0.009665968338958919
0.009649984132265673
0.00963719651917927
0.009614713522605598
0.009593184317927807
0.009585699999006466
0.009594665388576687
0.009615688022458926
0.00963075488456525
0.009620289788581432
0.009595955219119788
0.009587780334986746
0.0096002733358182
0.009610608515795321
0.00960088085499592
0.00957777300849557
0.009562803555745632
0.009573363719973714
0.009612876628525556
0.009660965334624051
0.009693147928919644
0.009711897228844463
0.00972387521993369
0.009724770358297974
0.00972088611801155
0.009719123834511265
0.009709436071570963
0.009681912792148068
0.009650180106982589
0.009639399726875126
0.00964868488139473
0.009655598233221098
0.009651117854518816
0.009648733579088003
0.009677687613293528
0.009742332875030115
0.009786112320143729
0.009760358950588853
0.009700579167110845
0.009672536175930873
0.009680852965684607
0.00968211813713424
0.009663332516793162
0.009652588630560786
0.009663994826842099
0.009682841029716656
0.009694071123376488
0.00969713279278949
0.009706780749838799
0.009736150461249054
0.009770336674991996
0.009784155996749177
0.009781901724636555
0.00978497936273925
0.009798028959194198
0.009811413221759721
0.009817109038121998
0.00981874688877724
0.009826513980515301
0.009834042479051277
0.009828136711148546
0.00982113593374379
0.00983150076586753
0.009845266253687441
0.009839841478969902
0.009828221196075902
0.009828435454983265
0.009813718848163263
0.009760113519150763
0.009705149471992627
0.009691135633038356
0.00970292518264614
0.009715625558746978
0.009739628572715446
0.00977763714385219
0.009802715725963935
0.009807122687343508
0.009817652544006706
0.009848751560784876
0.009886209664400666
0.00991728824446909
0.009938737944466994
0.009945897846482693
0.00993769674678333
0.009924399319570511
0.009920165358344092
0.009923501521116122
0.00991956283687614
0.00991030840203166
0.00991286640171893
0.009932172460248695
0.0099640417273622
0.010001833882415666
0.010035183057188988
0.010061406719032676
0.010079263417283072
0.01007888482650742
0.010057089063338935
0.010024295686744154
0.009992223216686398
0.009964756908593699
0.009940513625042512
0.009918516298057511
0.009898799451766535
0.009886368233710528
0.009888678845018149
0.009901899516116829
0.009913874361664056
0.009918785280315206
0.009921816408168525
0.00993643113062717
0.009965247315121814
0.009986926972633228
0.00998896368429996
0.009991646205307916
0.010013178974622861
0.010036726996768266
0.010032577563542873
0.010003285497659817
0.009986455466132612
0.010000129675026982
0.010014519637916237
0.010004367211367935
0.009983916743658483
0.009975450739730149
0.009994945075595752
0.010049193623708562
0.010110811515478418
0.010139102314133197
0.010135387773625553
0.010135127812391146
0.01015119333867915
0.010160991441225634
0.010148880505003035
0.010130307454383002
0.010119401562260464
0.010101401924621313
0.010073045096360147
0.010072128099855035
0.010118819451890885
0.010180088652996347
0.010216378123732283
0.010215453786076977
0.01019070544396527
0.01016435596975498
0.010147219888167455
0.010147292031906546
0.010167232870589942
0.010186018926324323
0.010194244176382199
0.010217045856406912
0.010268582365242765
0.010321587343933061
0.01032594357151538
0.010265149995684624
0.010185004140948877
0.010126002003671601
0.010082681188359857
0.01005875872913748
0.010069028105353936
0.010086412889650091
0.010078918476356193
0.010061840157723054
0.01005053686327301
0.010034237756626681
0.010015316393692046
0.01000275548431091
0.00999171293573454
0.00998044912936166
0.009971722401678563
0.009965693618869408
0.009968271327670664
0.009988357209367678
0.010024348974693566
0.010068584706168622
0.010112792938016354
0.010135923764901236
0.010122818237869069
0.010092005557380617
0.010073956432752312
0.010085922956932336
0.01012535039219074
0.010172096434980632
0.010211467614863069
0.01024184096371755
0.010261640704702585
0.010273962450446561
0.010286475538741797
0.010290790635626762
0.010271629141643644
0.010239326647715643
0.010211831169435755
0.010186278930632398
0.01016393157071434
0.010150810029590502
0.01013389476807788
0.010110858852276578
0.010104643646627665
0.010121258590370417
0.010140501899877563
0.010147321596741676
0.010141770065529273
0.01013665018370375
0.010142753815744072
0.010147936675930396
0.010147131535923108
0.010155917394440621
0.010163383937906474
0.010151250726776197
0.01014491395209916
0.01016427795169875
0.010174449809128419
0.010147832195507363
0.010119365985738114
0.010130537747172638
0.01016902196686715
0.010196546863298864
0.010195567436749115
0.010174751847516745
0.010153125787619502
0.010142085956176742
0.010139436770696193
0.010138800193089992
0.01012955998419784
0.010099108351860196
0.010053937440970913
0.010019821811001748
0.01000699020572938
0.009998760450398549
0.009994454334955662
0.010012435738462954
0.01003380939597264
0.010027328074211255
0.010006265557603911
0.009984616759466007
0.009948630190920085
0.009907254934078083
0.009898882058914751
0.009939132165163756
0.009999653116101398
0.010044452134752645
0.010065486510284246
0.010075947690056637
0.010088045010343194
0.010100270187249407
0.010107873834203928
0.01012255328358151
0.010152267081430182
0.01017001573345624
0.010142269536154346
0.01007913560140878
0.010022520695347339
0.009996946214232593
0.009996342955855653
0.009998413842404262
0.009986014176392928
0.009973371950909495
0.00998502864735201
0.010006723483093083
0.010010205637663604
0.010011803054949269
0.01004101890954189
0.010069694463163614
0.010052362529095263
0.010011275005526841
0.009991377575788647
0.009988847224740312
0.009992793293204159
0.010012081555323675
0.010034946532687172
0.010036854797508567
0.01002107385545969
0.010005035758949817
0.009987365539418534
0.009962805903051049
0.009944867140147836
0.009943185517331586
0.009947780665243044
0.00995068863616325
0.009958414334105327
0.009977315036812796
0.00999677695450373
0.01000014464254491
0.009992647498147562
0.009996753996238112
0.010016669500619173
0.010038220224669204
0.010052134587895126
0.010043891890672967
0.01000674226670526
0.009973546067485586
0.00997331172809936
0.009983176862588152
0.009964569582371042
0.009914045262848958
0.00986611639498733
0.00985690245172009
0.009887843912001698
0.00992848426452838
0.009948302232660354
0.009948909374652431
0.009961760569131001
0.009998991922475397
0.01003276628558524
0.01003402538015507
0.010004131610039622
0.009970290535129607
0.009949848871910945
0.009931531539186834
0.009912774079712108
0.009909932704176753
0.00992447643307969
0.00995320571004413
0.010002481351839378
0.010054130784701555
0.01006985835498199
0.010046978300670162
0.010020732232369482
0.010008056202204898
0.009991368146147579
0.009964505052194
0.009949582776753231
0.00995977843995206
0.009985457230359316
0.010009552087867633
0.01000834274222143
0.009965179505525158
0.009904942241264507
0.009871264366665855
0.009861685149371625
0.009845962253166363
0.00983691006549634
0.00986683068331331
0.009920493265381082
0.009958081091754138
0.009970063702203333
0.009973330117063597
0.00997264239937067
0.009954823463922367
0.009925335126463325
0.009902893147664144
0.009886291571892797
0.009871952899266035
0.009868098761653527
0.009877831597113982
0.009893166985129938
0.009900273062521591
0.009893940872279927
0.009880177036393434
0.009856614188756795
0.00981764086172916
0.009776954705594108
0.009758562282659113
0.009771316474070773
0.009797613839618862
0.00981368714477867
0.009826134024187923
0.009854614688083529
0.009879711917601525
0.009869655794464052
0.009846683723153546
0.009848558789817616
0.009859759035753085
0.009851508155697956
0.009834644915536046
0.009830725070787593
0.009832993552554398
0.009824182483134792
0.00981231230776757
0.009816860320279374
0.009835796330589801
0.009845103964908048
0.009827059193048627
0.009798102515051142
0.009782084519974888
0.009775687125511467
0.009779409877955914
0.00980552390567027
0.009839094154303894
0.009850452141836285
0.009835339749697596
0.009809634259436279
0.009781020105583594
0.009750968100270256
0.009735525068826974
0.009746201045345515
0.009758483665063978
0.009750255016842856
0.009746452574618161
0.009766091377241538
0.00977460662019439
0.009747578741516917
0.009719016917515547
0.009728120126528666
0.009771577150095254
0.009815445009153337
0.009826946957036852
0.009806146650807932
0.009785161475883796
0.009779085033806041
0.009772185611072928
0.009765984126133845
0.009773346009897068
0.009779833911452443
0.00977309538749978
0.009760387449059636
0.009747320774476976
0.0097455722943414
0.009764244927791878
0.00978438540128991
0.009785238263430075
0.009781640445580705
0.009796938657527789
0.009815242020413279
0.009809340703068301
0.009789498223690317
0.009773766455473377
0.00975282115279697
0.00972258864203468
0.009704939080402255
0.009711274143774063
0.00973339196294546
0.009769353161100298
0.00980971158714965
0.009827119732508436
0.009826953357551247
0.00981735992594622
0.00983028244227171
0.009855508825276048
0.009856395568931475
0.00982676211046055
0.009807500228052959
0.009820718589471653
0.009843168769730255
0.009861608436331153
0.00988611014210619
0.00991965640685521
0.009951946848304942
0.009965252681868151
0.009952606821898372
0.00993331233272329
0.009927121235523372
0.009926753814797849
0.009916133794467897
0.009896146146347746
0.009876419255742803
0.009857757480349392
0.009840095458785073
0.009832420273451135
0.009838010942330585
0.009850369693012909
0.009864148973720148
0.009875098330667242
0.009881433098344132
0.009885468045249582
0.00989022752852179
0.009891906682169065
0.00987963231629692
0.009862112081609666
0.009868145389482379
0.009892420371761546
0.009891746991779655
0.009868781008990482
0.00987774518551305
0.009920348861487582
0.009949646219611167
0.009959865489508956
0.009970306530594825
0.009980971887707711
0.009986172618810088
0.009981261821230873
0.009965238280128687
0.009948973671998828
0.009947907854802906
0.009963212303118781
0.009972533799009397
0.009962814518949016
0.00995117832091637
0.009948571269633248
0.009942248276202008
0.009922192548401654
0.009904764933744446
0.009916613810928539
0.00994396308902651
0.009943231233628468
0.009921425356296823
0.009928584772860632
0.009975137985311449
0.010035757257137448
0.010091298120096326
0.010117666772566735
0.01009460442001
0.010044423582730815
0.01001386965624988
0.010021723508834839
0.010048748120898381
0.010063081437256188
0.01004738947376609
0.01000984986894764
0.009974577580578625
0.009955891886493191
0.009941345286788418
0.009925912003964185
0.009934164051664994
0.009969371485058219
0.009997319878311827
0.009998228778131306
0.00998770553385839
0.009992227605544031
0.01001745822140947
0.010040605920366943
0.010036409588064999
0.009994517095619812
0.009925242435419932
0.009868490087101237
0.00986529307672754
0.009909827879164368
0.0099536300112959
0.009966445772442966
0.009971990864723921
0.009993244496872649
0.010005871399771422
0.009991819193819538
0.009976075302110985
0.00997633477440104
0.009980361254420131
0.00997627609060146
0.009959417766658589
0.009938009376637637
0.009937457802006975
0.009958815159043297
0.009966051488881932
0.009940375206060708
0.00990011499146931
0.009865782791748642
0.009846073458902538
0.00984410704113543
0.009854869323316962
0.0098637841490563
0.00986114213708788
0.009862937001744286
0.009892296681646257
0.009941024819854647
0.009975970298983157
0.009975809752941132
0.009953590389341117
0.009938439696561545
0.009940269703511148
0.009946773033589125
0.009947656105505303
0.009954583060462027
0.00998115757945925
0.010003920407034456
0.009986084725242109
0.009940254263347015
0.009914599496405573
0.009915696036769077
0.009904976472025737
0.009873571761418135
0.009852483654394745
0.009853497351286933
0.009866069619311019
0.009888586362358183
0.009919563677394763
0.009945380366407335
0.009953238292364403
0.009955384110799059
0.009979231931501999
0.010015254638856276
0.010023429072462023
0.010001249121269212
0.00998881366220303
0.010000845636241137
0.010004709755303338
0.009988368613412603
0.009982800163561479
0.009990141164744273
0.009976648396113888
0.009942474833223969
0.009920934928813949
0.009918366513447836
0.00991374714882113
0.009911220845533536
0.009932903394801542
0.009964142721146345
0.00997190079302527
0.009962713189888745
0.009964298949344084
0.009976437507430092
0.009985871514072642
0.010001718531129881
0.01003886149614118
0.010081337133888155
0.010092099513858557
0.010063100859988482
0.010028057794552297
0.010015044901520014
0.010019186038989573
0.010025727710453793
0.010033289586426691
0.010051239244639874
0.010072224470786751
0.010067537390859797
0.010037050852552055
0.010021015009842814
0.010038078448269516
0.010057733382564039
0.010046046758070588
0.01001622860203497
0.010013154005864635
0.010047321838792414
0.010082125368062406
0.01009007365675643
0.010084517612122
0.01008519678376615
0.01008446563151665
0.010073969509685412
0.010065890320111065
0.010066145717864856
0.010064344322308898
0.010051145306788386
0.010024951801169664
0.009995763362385333
0.009990157413994893
0.010028767664916814
0.010079400131944567
0.010114419269375502
0.010107674393802881
0.010094061590498313
0.010121596856042742
0.010175791302463039
0.010188797573791817
0.010141876986017451
0.0100875075859949
0.010050663617439568
0.01001198786078021
0.009977742742048577
0.009965659340377898
0.009962400385411456
0.009950718444306403
0.009933412895770743
0.009920145955402405
0.009913279243046419
0.009909199710236863
0.009913655127165839
0.00993317729793489
0.009956911973422394
0.009976411034585908
0.009995522085810081
0.01001740814303048
0.010047026383690537
0.010078105109278113
0.010085563419852405
0.010067723939428105
0.010056669497862459
0.010062368045328184
0.010064332084730267
0.010057158238487319
0.010048060235567391
0.010035409471020102
0.01001693461672403
0.009994798321276904
0.009974246581550687
0.009967900707852095
0.009988833918469027
0.010020816957112402
0.01002617451827973
0.010007103119278327
0.009996811986202375
0.009997151778079569
0.009999592654639854
0.010015943242469802
0.010036198105663061
0.010027499867137522
0.009992162390844897
0.00996603309060447
0.009961058903718368
0.009952518361387774
0.009922032249160112
0.009888174606021493
0.009887213765177877
0.009924059078330175
0.009959858319489286
0.0099666511581745
0.00996158312773332
0.009957507913932205
0.00993063249392435
0.009871267646085471
0.00981080901576206
0.00977204795810394
0.009747098163934424
0.009738828372210264
0.009763219628948718
0.009809417604701593
0.009848485590191558
0.009867244276683777
0.009867268396774306
0.009854285184992477
0.009847137017641217
0.009868713383330032
0.009912465795641765
0.009946189034963027
0.009950458868406713
0.009937315842835233
0.009930727510945871
0.009935666350647807
0.00994097392191179
0.009940469729481266
0.009931713972473517
0.009915176253998651
0.00990393943968229
0.009910151880467311
0.009932861280394717
0.009972993183182552
0.010026012039743364
0.010058944353368134
0.01004387705004774
0.010008612450910732
0.009999124216847122
0.010010324446484446
0.010008574723033235
0.009991612856974825
0.00997778968187049
0.009968490874161944
0.009958728644996882
0.009951091560069472
0.009947318981867284
0.009950645782519132
0.009954609558917582
0.009936886462382973
0.009894124148413539
0.009851055670296774
0.009835070620756597
0.009861392258899286
0.009911855997052044
0.00994685682700947
0.009960910539375619
0.009982172800228
0.010022536979522555
0.010055489271180704
0.010044447029940784
0.009998764949850738
0.009965629124781116
0.009966544405324384
0.009989075126359239
0.010009797620587051
0.010005879652453586
0.009979283168213442
0.0099621943582315
0.009975489885546267
0.00998969163163565
0.009964154501212762
0.009919935062061996
0.009910574415698647
0.009934017710620538
0.009944810890592634
0.009936452561523765
0.00994336865376681
0.00997165156295523
0.009992739707231522
0.009990876761730761
0.009969956824788824
0.009948606546968221
0.00995059362379834
0.009968285027425736
0.009977375576272606
0.009978999746963382
0.009983648193301633
0.00999406874878332
0.010013426347868518
0.010035248765489087
0.0100452893122565
0.010043829452479258
0.010037128244293854
0.010017133686924353
0.00997995924553834
0.009948185256216675
0.009947799125220626
0.009975655906600878
0.010004663254367187
0.010013715618988499
0.010007984746480361
0.009999898419482633
0.00998256636899896
0.009954760768450796
0.009941342411329969
0.009954033135436476
0.009970390788512305
0.009971979057881981
0.009966847714968025
0.00995875463122502
0.009928438724018633
0.00987397799268365
0.009838675319915637
0.009854912582086399
0.009895259173354133
0.009922088054008783
0.009933396892156452
0.009939757883548736
0.009948203136445954
0.009953939388506115
0.009942557103931904
0.009929101245943458
0.009941806909628212
0.009964557255152613
0.009965643284376711
0.009954076453577727
0.009956110790371895
0.009969307314604521
0.00996965515660122
0.009948721887776629
0.009929407456656918
0.00993693203665316
0.009959842888638376
0.009968835392501206
0.009965027724392712
0.009970472916029394
0.009988113330909982
0.010000024805776775
0.009993657685117795
0.009977094024652616
0.009960214141756296
0.009938418754609301
0.009911847866605967
0.009892769808648155
0.009888987400336191
0.00989694074727595
0.009910355131141841
0.009930329796625302
0.0099543604219798
0.009972204318037256
0.00999027290265076
0.010024783395929262
0.010070212313439696
0.01010477746836841
0.010113627628888934
0.010099215098889544
0.010079039200209082
0.010067636080784724
0.010064426530152559
0.01006399572477676
0.010063902399269863
0.010064259036444128
0.010062938386108727
0.010047602634876966
0.010011438140645623
0.009968323312932625
0.009930619391379878
0.009904251779662445
0.009900367917725816
0.009909752714447677
0.009915083511732519
0.009934292020043358
0.00997472628718242
0.009997820416465401
0.009988394988467916
0.00997937737382017
0.009995443365769461
0.010025486160302535
0.010039605393540114
0.01002841618610546
0.010016218173550442
0.01001627973979339
0.010008416834753007
0.009972859341651201
0.009923378014937043
0.00989990595728159
0.009919054919155314
0.009954708985751494
0.009984780282247812
0.010008905798895285
0.010021200586343183
0.0100212496612221
0.010024972311221063
0.010032243585446849
0.010031485203653575
0.010029960137326271
0.010032475638436154
0.010032107551814988
0.010038255412364378
0.010052713672630489
0.010040375452954322
0.009988338304683566
0.009946680975845083
0.009949503579409793
0.009968659563455731
0.009982101354980842
0.009997212438611314
0.010017399939242751
0.010049370527267456
0.010099736553383991
0.010148502143565566
0.010163837721338496
0.010140503089642152
0.010105303704040124
0.010083708052989096
0.010083245328860357
0.01010280017973855
0.010125509089557455
0.010130993921775371
0.010125975185073912
0.010123447441728786
0.010112269324017688
0.010082053228979931
0.010054375032195821
0.01005725996568799
0.010087051151786
0.010127207278274
0.01017269238946028
0.010211060787551105
0.010220536305569112
0.0102010073477868
0.010171222249045968
0.010135563549119979
0.010097510851919652
0.010082581591559574
0.010095639552455396
0.010103649384109303
0.010087751228129492
0.010059687733883039
0.010037994669983164
0.010032716210698709
0.010039718779735267
0.010057454272173345
0.010086111288983375
0.010104236766928808
0.010096209293697029
0.010080749753396958
0.010075926227727905
0.010082063861191273
0.01010645151603967
0.010155744336079806
0.010208391023334117
0.010232631291728467
0.010229128444334492
0.010218487902311607
0.010202090759994462
0.010173251115484163
0.010133625892922282
0.010095055955462158
0.010084075054619461
0.01010403239983134
0.01011845794506371
0.010111117189517245
0.01010441463557072
0.010112452561734243
0.010125838933745399
0.010130134399514646
0.010117533798329532
0.010096046418184415
0.010092550305416807
0.010122420308180153
0.01016126513830386
0.010178336973767728
0.0101742859557271
0.010162537974538281
0.010150334087666125
0.010146249376703054
0.010154856831068173
0.010162530770758167
0.010157654489157722
0.010158197251148521
0.010170286258216947
0.010160777926212177
0.010127120786346495
0.010114674856886267
0.010138992302818223
0.010165486594196409
0.010164401058573276
0.010141451765084639
0.010116786127910019
0.010100395034532994
0.01009086059173569
0.010090215413365513
0.010108221670379862
0.010140430277679115
0.010162262297235429
0.010162380058318377
0.010159203850198537
0.010166723250877112
0.010175476006697864
0.01017657756106928
0.010174643729114904
0.010176101818215101
0.010172462170012296
0.010149781126528978
0.010120298977708444
0.01011097580078058
0.01011794681660831
0.010110439554555341
0.010083562660729512
0.010071300502168014
0.010092750593321398
0.010118033920880407
0.010117177028441802
0.010107699113432319
0.010111408237135038
0.010111210719915107
0.010090767015935854
0.010066028306027874
0.010063109714537858
0.010092257907381282
0.010125721965450793
0.010122429738985375
0.010093584883725271
0.010082566895289347
0.010094655333086849
0.010108628191519529
0.010111873362911866
0.010095478149596602
0.010061325720744207
0.010025155019247904
0.009996971643995494
0.009982041415059938
0.009989100932143629
0.010014714318094775
0.010034759992267937
0.01004128607804887
0.010061827262397856
0.010101692674215883
0.010124629142228513
0.01012053778860718
0.010112262377515436
0.010103107680333779
0.010083849666407331
0.010059041978092865
0.01004589720047079
0.010055930305970833
0.010066170978825539
0.010042464417638257
0.009994979420443997
0.009964192638872191
0.009958626017905772
0.009948491115355864
0.00993185359518975
0.009948326287558302
0.009999797394266352
0.010036565851187333
0.010038017313927412
0.010031630714656785
0.010036703533260152
0.01004449870903045
0.0100418122834526
0.010030315220355988
0.010022349405335262
0.010020267964573577
0.0100232716742903
0.010037616059416905
0.010053283196175471
0.010048200788442046
0.010020646876655518
0.009986404150258749
0.009959198384312912
0.009949627540772782
0.00996109148603864
0.00997828294057399
0.009980411300202831
0.009967135287588462
0.009955109594156965
0.00995372333098203
0.009959906543372199
0.009974223065655678
0.00999789720401168
0.01001360843423754
0.010007851191330701
0.010002185381017626
0.0100120832643006
0.010011314795119687
0.009985643548425287
0.009963290244340896
0.009967880436452106
0.009991200071526691
0.010007345699705184
0.009997621669899672
0.00997684762114659
0.009977209114003927
0.0099994018569123
0.010018180025508628
0.010020201798761263
0.010003746887668967
0.009980409210547804
0.0099781724892091
0.010003921673633159
0.01003028562758118
0.01003765796078369
0.010030945078469813
0.010016875372966751
0.010002635087585077
0.009998523556860164
0.010000169036211447
0.009991585430689155
0.0099671377253253
0.009942937379237264
0.009939479541499168
0.00995055576087907
0.009953178779687733
0.009934754157438875
0.009905543641652912
0.009899695593630894
0.00992805146612227
0.009953322955407202
0.009956348378909751
0.009962691089604049
0.009979151070583612
0.00998007934074849
0.009966188699472696
0.0099637787474785
0.009968541453126818
0.00995587867219001
0.009930001416942105
0.00991651124553755
0.009926100561860949
0.009950913882348686
0.009981139979790896
0.01000006303889677
0.009989214108791201
0.009966179677285254
0.009967499299673364
0.009992870755959303
0.010016329468926414
0.010021250353893264
0.010006037801504135
0.009981407662853598
0.009955963647225872
0.009933218499645591
0.009925935533829033
0.009944309551501647
0.009978120070882142
0.010009378240210936
0.010028165020048618
0.010031531918793917
0.01001235154340975
0.009968017915962264
0.009929245577659458
0.009929248471744359
0.009954226625850424
0.009974535275250673
0.009979396656854078
0.009970557251945138
0.009957690112059936
0.009948043521726504
0.009945785683812573
0.009954424821771682
0.009964399698656052
0.009964125106344
0.009958532691234723
0.009958340536104515
0.009969263101229444
0.009999090625206009
0.01004374357056804
0.010071445371722802
0.010066201112931595
0.010051245199283585
0.010041070838924497
0.010029839073540643
0.01002375915646553
0.010033817377407104
0.010051147412741556
0.010058550637913867
0.010054310456616804
0.010046748134773225
0.010032428241102025
0.010005031725158915
0.009981509489007294
0.009976185755804182
0.00996606045635417
0.009933464518981054
0.009903340162709355
0.009900555022759362
0.009919482945697382
0.009942512989509851
0.00995003383490257
0.009938341305823996
0.009936115031596273
0.009963018831331282
0.009998045766260476
0.01001546904211864
0.010006010906072333
0.009964979130309075
0.009912855852162466
0.009892910402268171
0.009913855183403939
0.009947414406342432
0.009979170527076349
0.010014161638682708
0.010049673517933115
0.010070057275006547
0.010061437361873687
0.010035406510578469
0.010030261412030086
0.010061044014291838
0.01009227248490788
0.010088530597276985
0.010060493518831209
0.010038811466656625
0.010035257461713626
0.010048392850439996
0.010075321955373511
0.010103367518167943
0.010116211412241682
0.010115235955454408
0.010111225070431828
0.010105737815611065
0.010100365766556934
0.01009569848421961
0.010086657989304512
0.010082474055234342
0.010094792495947332
0.010109045943245291
0.010110558490268887
0.010110271497396753
0.010118205233011395
0.010127249502111225
0.010131288229022175
0.010133596124360338
0.010136240854626522
0.01013443554402329
0.010119784999405966
0.010084249031497166
0.010038188074249775
0.010017420816002414
0.010041272874223068
0.010086989023257047
0.010119988325750456
0.010126139455242083
0.010120387750212102
0.010125935644609854
0.010143828069558367
0.010155319791520014
0.010149452443001791
0.010138065203791484
0.010140063278377055
0.010155182807939128
0.010160506768152118
0.01013680974021554
0.010099127410212532
0.01007864010403864
0.010077079533366486
0.010078638022532687
0.01008267841185443
0.01009232621290721
0.010107689760625363
0.010133753600530326
0.010157801486784593
0.010158285095822067
0.01015535504440777
0.010173585336888209
0.010189329357817769
0.010185640839627013
0.010180583236506209
0.010185597814852372
0.010195477264933289
0.010197117623174563
0.010179173441138119
0.010149702246999369
0.01012650680495426
0.010114807351492346
0.010107816036324949
0.010097302646609024
0.010081743896007538
0.010067335950443521
0.010061616059392691
0.010067244633100927
0.010079405719880015
0.010092468644725159
0.010105681568384171
0.010120414973935113
0.010136013120645658
0.010146922622807324
0.010148223176365719
0.010136125962017104
0.010109170720679685
0.010091250120894983
0.01011697678710334
0.010173003803938627
0.010209169369190932
0.01020882950280793
0.010194457320030778
0.01018316747737117
0.01017237215070054
0.010151523711392656
0.010124730922980234
0.010112409363500774
0.010117587043205277
0.010125380018725991
0.010130712018581107
0.010138846556656063
0.010151191868353636
0.010156683878740295
0.010145332699175924
0.010126036062138155
0.010114838206209242
0.01011531011085026
0.01011898240656592
0.010119675080059096
0.010124595509842039
0.010145909572020172
0.010169181772507727
0.010160383601905777
0.010126637290231883
0.01010778958676383
0.01010674074641429
0.010098256497876719
0.010084417478647084
0.010088393061887474
0.010108970617875458
0.010120988427661359
0.010113326665014029
0.010093519171932712
0.01006641292013228
0.010030781684909016
0.009995208822656422
0.009975258631166072
0.009961378799052909
0.0099324865010567
0.009901967687765136
0.00989204595447518
0.00989859049441293
0.009916969968471676
0.009951003870228306
0.009999745128443465
0.010059659219114109
0.010112972450442612
0.010125542370369658
0.010093891022261232
0.010063395951874554
0.010058856953401118
0.010050548665458337
0.010026350209955126
0.010017444289987907
0.010032221634173766
0.010048319820780307
0.010055100021418184
0.010049040656303987
0.010027941546868533
0.010001186586450786
0.009980817504692823
0.009978372175246476
0.009993829281302168
0.010000731084728614
0.009982966828392819
0.009961361468303948
0.00995431381976232
0.009956168975913898
0.00995970978983678
0.009960920233279467
0.00995393275283277
0.009944461290724576
0.009941238721366971
0.009937039227224886
0.009923365715658293
0.009900460932403803
0.00987845623982139
0.009879476499045269
0.009908756010700017
0.00993988790200092
0.00994613706949167
0.009926373738562689
0.009903504726244136
0.009899334236979484
0.009912574038607999
0.009936762194847688
0.009975908886408433
0.01001651795115322
0.010031533678993582
0.0100315049814526
0.010039786413544789
0.010037853294052183
0.010011396622285246
0.00998806169256568
0.009990192857803776
0.010013271705247462
0.010042103801388293
0.010052401542197912
0.01003078239504248
0.009999258070020006
0.009988791906507685
0.01000878630205989
0.010048788010608404
0.010082612206460909
0.01008739675511606
0.010065502097131685
0.010031530820997432
0.010000623473897576
0.00999109698459506
0.01000520094879903
0.010023979094112291
0.010042403701227158
0.010070302928797901
0.010096247135661542
0.01010312545695342
0.010105599159142003
0.01012272628257051
0.010136666500475257
0.010121454660547898
0.010083616998745128
0.010044510725419968
0.010018952781101688
0.01001840538578108
0.010038820737972855
0.010050687921466305
0.01003706467919983
0.010024139712331816
0.01003130643744953
0.010042889759643004
0.01005208132788539
0.01005739473272115
0.010044036461040377
0.010020110938930883
0.010013182195834816
0.010027536083944142
0.010050050156423821
0.010069648161297663
0.010075468189315871
0.010058499000733719
0.01001923413365148
0.009979838959407062
0.009967055802699179
0.009974184213206172
0.009978444197913631
0.009979842337779701
0.009985066250665113
0.009981833399506286
0.00996184118441306
0.009945502907503396
0.009955533564789221
0.009976603778777644
0.00997304730815813
0.009947718080366031
0.009937395517481492
0.009949730390217156
0.009956247933441773
0.00994480708381161
0.0099376717035193
0.00995018994435668
0.00996057239244692
0.009949227633187547
0.009936164300888777
0.00993905398529023
0.009941441819537431
0.009928850028663873
0.009903161133406684
0.009867608970962465
0.009842783897183835
0.009853889985242859
0.00988028157968074
0.009884398924186825
0.009872905178926885
0.00986710759694688
0.009859236994525417
0.009839425298850983
0.009820023053325713
0.009812470132019371
0.009813624505186453
0.009818574856035411
0.009827592071378604
0.009841990759596228
0.009858382503734902
0.009876656457781791
0.00990450414014049
0.009934577347012237
0.009944780840305612
0.009932584457565098
0.009916869874577969
0.009911225961986929
0.009913708821404726
0.009910792686278001
0.009888728148071095
0.009850796388927847
0.009817000894108786
0.009800106841139496
0.009793748537776991
0.009785632726270706
0.009773138496093452
0.009767365347361192
0.00977594205760397
0.00979083166923374
0.009812439382076264
0.009854484635870903
0.0099083154683467
0.009942479258170352
0.009940458864439278
0.009917119321180508
0.009900550360325723
0.009898513574153184
0.009895293581066653
0.00988277089316398
0.00987052102573216
0.009871871371287852
0.00989323676447384
0.009929463401203976
0.00996203641872853
0.00996541920118034
0.009934420791687444
0.009899831735529005
0.009891675489488988
0.00990720561123453
0.009934087796136738
0.009960691728629172
0.009963359668618069
0.009938755724579095
0.009920999511377886
0.009931698807049543
0.00995047350297682
0.009945964805083349
0.009914724585833028
0.00987958506331779
0.009862275818595662
0.009869167285505681
0.009891304926713928
0.009925313059939071
0.009976628536824137
0.010020364263327792
0.010028277849778533
0.01002689158776775
0.01004660855862312
0.01006490620202385
0.010045556032564492
0.009992031190777198
0.009945099139586092
0.009921867586672305
0.009889344692928716
0.009844123605871573
0.009848188533214852
0.009915934648597613
0.009967068085679785
0.009955036755418405
0.00992423246963881
0.009910027993610128
0.009902093939017505
0.00989925526548177
0.009905832260847092
0.009908576168818399
0.009906656161183492
0.009924059896729887
0.009968517228262499
0.010010529808932916
0.010027489790227264
0.010042129672365263
0.010086050144163892
0.010140576824778692
0.010156576758017764
0.010127471484011039
0.010092283728299662
0.010078058239305392
0.010080480957403779
0.010084178349934518
0.010081935768248514
0.010076064537279307
0.01006464398582466
0.010050047654658556
0.01005105719785206
0.010073600545292721
0.01009675053297542
0.010104228497948498
0.010102022557985037
0.010103290817933158
0.01010769308079034
0.010105622383998708
0.010100929512409493
0.010097580158617347
0.0100738590862602
0.0100155882188119
0.009954870919464155
0.009931833120062947
0.009941517567494885
0.009959058159729466
0.00997929931851104
0.009997201912337914
0.01000263812020421
0.009998711115913465
0.00998529797536321
0.009963306412100793
0.009957455440890044
0.009980457297060638
0.010006834517698735
0.010013396294089033
0.010003171300049872
0.009990158944856376
0.009982269167667255
0.009972870401106775
0.009958125166594983
0.009948825081810355
0.009942361374851317
0.009917923377361148
0.009880617059534415
0.00986117507214658
0.00985871057258919
0.009845219551352783
0.009821531003108248
0.009809398778015748
0.009813083270564675
0.0098224442161154
0.009829606858547777
0.009829632389592008
0.009819629755802452
0.009810059084556996
0.009810126215452328
0.009799250891664996
0.00976578772882931
0.009745148753281682
0.009760852623730897
0.009788472427753731
0.009810094200074672
0.009829347444465383
0.009837513342499733
0.009823195427889004
0.009796494490001351
0.00978002839605324
0.009781690784730018
0.00978313292376697
0.009764722586842254
0.009732195597607643
0.009707978876540437
0.009714092736830935
0.009764658153289928
0.009839700784068555
0.009884532178984955
0.009883431777125225
0.009881677081575618
0.009895931049250066
0.009891400726046414
0.009865382882999256
0.00985758773633279
0.009879069977905601
0.009901080428389832
0.009907096029492095
0.009909996001515537
0.009913619966246187
0.00990257115685381
0.009884049301035702
0.009879556358791888
0.00987869136617519
0.009870313429273666
0.009876829369459302
0.009906171852489933
0.009930301426211373
0.009927720976993442
0.00990477628656663
0.009883251464925706
0.009883343855617567
0.00990851757582277
0.009943142305128277
0.009959862724645063
0.009937004854436963
0.009886099308496342
0.00984917780268006
0.009852822226239368
0.009881760560674593
0.009913279312895611
0.009943919759243726
0.009967557643540204
0.009975986243225633
0.009980975061189383
0.009996662042103708
0.010012389303883538
0.010007381460163743
0.009987587986979634
0.009975823488784953
0.009971689010271803
0.009966499174479395
0.009961817839648574
0.009950258180033415
0.009932992787798866
0.009929054270032793
0.009935935153625905
0.009935743359383195
0.009936718149110674
0.009958409701939673
0.009995734711410478
0.010034512476995588
0.010069349164841696
0.0100895050377585
0.010088061121059581
0.010071964308153838
0.01004217138630338
0.009995268541388214
0.009935711479047314
0.009872746798209845
0.009827295233262702
0.00981851276010275
0.00983216867200099
0.00984840399469249
0.009874493401730433
0.009907819689251482
0.009920832593925297
0.009905136444140226
0.00988860429613851
0.009896080123726279
0.009918402194743976
0.00993020284222439
0.009923658011248336
0.009928253259276971
0.009979620911180972
0.010058766389265656
0.010111723112640903
0.010123845622874796
0.010119133986299857
0.010113422620343045
0.010110450144857168
0.010110087558859959
0.010102509764255956
0.010081374397268519
0.01005816033226438
0.010043661133386195
0.010034808018244802
0.0100318203761708
0.01004546792479232
0.010083017135038973
0.010131399040110409
0.010151282654842362
0.01011691159917973
0.010069429699797183
0.010065071148565039
0.010083942770725116
0.010075827612308786
0.010051546813920141
0.010056451120181008
0.010088637119624764
0.010101286838762462
0.010082088361959904
0.010068756976397707
0.01007670555729419
0.010070571969263255
0.0100286288454663
0.009984612622065469
0.009975664671510459
0.009997619923669845
0.010025496933376416
0.010036919311387464
0.010028776151593775
0.010024780585663393
0.010040610448922961
0.010051639745943248
0.010022926218807697
0.009970254664076493
0.00994080735836178
0.009929891305509954
0.009902622059453279
0.009870888304430992
0.009866884131915866
0.009884772055083885
0.009897917573107406
0.009902513686101884
0.00990697338944301
0.009909935275791213
0.009915776310954243
0.009926284729735925
0.009928588157054037
0.009923493645619601
0.009922738850582391
0.009920717274071648
0.009905937036965042
0.009885342959314584
0.009879970629699529
0.00989266212680377
0.009897649539634585
0.009885993708157912
0.009877410888439044
0.009874814556678758
0.00987530868849717
0.00989894229802303
0.009948568663094192
0.009992766357026995
0.01001556808128953
0.010035176053643227
0.010055772552732378
0.010053351244423539
0.010032378116156905
0.010022861144971102
0.01002214576699771
0.01001376423984766
0.010002624244662002
0.009992109102895483
0.009972928864881396
0.009945170765276998
0.0099306815629825
0.009946558261290192
0.00997578009730205
0.009995947758434341
0.010009406484896318
0.010019917042227463
0.010023610859643668
0.010024770265445113
0.010028933318099007
0.010031162565574049
0.010025470961118117
0.010018634136067704
0.010016263640718535
0.010006414788076654
0.009979433346306904
0.009943387142848224
0.009914119873428717
0.009909981396049261
0.009941884088329972
0.009995447526453063
0.010038695180555805
0.010053342796163633
0.010051245703361928
0.01005281904595904
0.010060799771454186
0.010067190465051681
0.010066033822949976
0.010054919311078265
0.010037202623207122
0.010024059916613624
0.010033308657584712
0.010067753460025414
0.010095060204621404
0.01009182640351355
0.010089850183576346
0.010120575818000362
0.010161016129422933
0.010180065757595003
0.010173196198884397
0.010141272326000034
0.01009539197315462
0.010069511057808995
0.01008048998308368
0.010097606289200485
0.010088500055717304
0.010062527742702514
0.010046571134589613
0.01004903064458631
0.010050819519674405
0.010029089244781061
0.00999817980104126
0.009995052481535822
0.01002004325389862
0.01003864747006446
0.010031741271959618
0.010012018888955936
0.010002890719333664
0.010007509235292674
0.010009615336311981
0.01000485387747176
0.010002536566462368
0.010007085308898241
0.010012312788749114
0.010005667179357261
0.009987788853468373
0.009975937872659414
0.009974221765296533
0.009977717635920272
0.010002525694435462
0.010055946254869923
0.010102425675140693
0.010113609028048814
0.01010449736029841
0.010088422166882082
0.010068847002694383
0.010066629807697609
0.010083428107900545
0.010089046348584816
0.01007505398360081
0.010059934264281764
0.010051993335364386
0.010045005696592852
0.010038928460562601
0.010046746565494686
0.010067454567179083
0.01007865931140259
0.010074845117051154
0.0100707462860737
0.010071694937068968
0.010075660092988983
0.01008728883229196
0.010112360395723954
0.010138315318617969
0.010133296102285385
0.010084963050903752
0.010029210274806246
0.010011393413878977
0.01002475269837305
0.01002979023149237
0.010026035654591396
0.0100450388120953
0.010089046257780865
0.010128058746922762
0.0101360352919437
0.010121318973833695
0.010127525163115934
0.01016250067972578
0.010172012955881654
0.010136625847080723
0.010104784381110222
0.010106168071506544
0.010114299363922328
0.01009792507160455
0.010056835026480257
0.010011995236855
0.009987278849584981
0.009984065319877118
0.009975974812405183
0.009946687575429679
0.009905565528897568
0.00986670602695085
0.009847929563838988
0.009864860663656145
0.009898252149578185
0.00990667405189015
0.009891136080259457
0.009891865260433405
0.009912063336232678
0.009924922094214708
0.00993343768059276
0.009948503695195541
0.009953213824192063
0.009925952550256625
0.00988514767959714
0.009880935450783
0.009910450569586829
0.009910971829667688
0.009872203570557759
0.009851828899700195
0.009867624090984463
0.009881076259771361
0.009879360689083114
0.009883674384327605
0.0098934553633444
0.00989127806853503
0.009885796437738464
0.009896012778626754
0.009922463039401919
0.009962362635415048
0.010009721813257783
0.010045405896380543
0.010059100099606439
0.0100632119551301
0.01007259717094712
0.01007740654051304
0.01005601135082543
0.010023435122566298
0.010019395533017814
0.010041857046307995
0.010049883991014212
0.010027644980000331
0.010001138902734965
0.009992499648360536
0.009996352994348853
0.010009779821848497
0.010041278295684606
0.010080624572001397
0.010101015438558535
0.010094221944455058
0.010072752335108816
0.010050680945860223
0.01004405455547385
0.010060281557962299
0.010084044063696639
0.010096144524868577
0.010090757423313335
0.010075204886961729
0.010063219625735656
0.01005891848122701
0.010053453121799975
0.010041575976647437
0.010029564822325483
0.01002535690786317
0.010029081015381962
0.010029308280209079
0.010014914133353158
0.009998410162515937
0.010002844887785613
0.010025148544227704
0.010036194749409333
0.010021414880175144
0.010001464112428948
0.009991250202292577
0.009983466895064338
0.00998623488470912
0.010011044685961678
0.010038638970581815
0.010045295397285372
0.010038652899675071
0.010039412298938259
0.01004409063491039
0.010032583797583356
0.010002792761661113
0.009978220461634919
0.009985811474034562
0.010025162008823828
0.010065129548311234
0.010091850579483435
0.010122935797553509
0.01015333696617745
0.01015678858733736
0.010141255209455267
0.010142057269113137
0.010174495476530866
0.010219058025395498
0.010245141321793199
0.010249232586938889
0.010248040299629793
0.010235415262868627
0.01019809425692074
0.010152505313744769
0.010130146098090336
0.010146577536361293
0.010179613594664261
0.010191304478794336
0.010180148164508865
0.010169246214209124
0.01016375980223529
0.010160256953677163
0.010156728306319564
0.010143235333962365
0.010117842671461404
0.010102515569888055
0.010116706272820011
0.010135861969320103
0.010120726727182046
0.010082951673539356
0.010059879256878047
0.010055910386145115
0.010054808455752209
0.010047828445676714
0.010028253260534256
0.009996599606238306
0.009980512218317018
0.010005913830827922
0.010053195663494989
0.010081416264874861
0.010080522175412625
0.010082485548919067
0.010115595086244867
0.010152083082357422
0.010146548708435147
0.010113741816021503
0.010101171359419823
0.01011302049504593
0.010122219173936173
0.010119696445763111
0.01011160229681991
0.010103066681185737
0.01009884938946925
0.010102679890114813
0.01011934055830352
0.010147822014987469
0.0101696473127231
0.010167019095970318
0.010146491461200639
0.01013037382508628
0.010125526911579072
0.010111082559451461
0.01007800638093613
0.010051770770223812
0.01004530671518296
0.01004006623988971
0.010027854102663696
0.010019482945790515
0.010022940939525143
0.010039773317985237
0.01005560977035202
0.01005122391623445
0.010041852784343063
0.010055219287751242
0.010082706026732922
0.01009603844722733
0.01008181671379134
0.010051087012980133
0.010031872736290097
0.010036922389408573
0.010049027855275198
0.010050974722253159
0.010044943335233257
0.010039616781286896
0.010036480206763372
0.0100334729522001
0.01003649625228718
0.010052028512582183
0.010068422011099755
0.010063506976002827
0.010037222426617518
0.01001652384409681
0.010018244984094054
0.010030165150528774
0.010032566129229963
0.010026626439066605
0.010031546158716083
0.010041499591898173
0.010018861021380871
0.009958030461566523
0.00990298332995735
0.009886859703110531
0.009905681168893352
0.009941239077597856
0.00998232291196473
0.010024942538002506
0.010058950470993295
0.010079673556610942
0.010098659025970846
0.010114022567868232
0.010099600615212694
0.010050815209979191
0.0100118910940364
0.01001314595923759
0.010014133843360468
0.009971211773809045
0.009914102886104956
0.009900645645102487
0.009932881721761077
0.009964044659864158
0.009976933123543858
0.00998981850920245
0.00999827526975423
0.009983109986642376
0.009955890101846308
0.009949476467445493
0.009960024683969095
0.009947912398492917
0.009921858190791681
0.009930927058449016
0.009962029654998332
0.009962157047120855
0.009940114603377879
0.009942423269385471
0.009965363910887391
0.009969256984768436
0.009953962536528707
0.009956630632514134
0.009979090075939894
0.009974297813605516
0.009918229656759649
0.00984644666314125
0.00980057337670587
0.009780493726721034
0.009764897932764144
0.009747667798073963
0.009737252622144296
0.009737380462465807
0.009751163633773104
0.009783653074409813
0.009824336082674563
0.009857997866347432
0.009884409377118573
0.009905177615582943
0.009920072111999616
0.009938390507595613
0.00996173385414295
0.00996719386894256
0.00993937355116941
0.009903648160398007
0.009892255786107853
0.009901765428949147
0.009911650059511884
0.009910634099505843
0.009898642015177756
0.009880208660615609
0.009853968942770734
0.009826121418736875
0.009826544147217646
0.00987361571053043
0.00993463079095818
0.009960974286077545
0.009954480613814667
0.009957616458414122
0.009983994356589391
0.010005488066235557
0.010004631015472115
0.009994323273422196
0.009985727915773169
0.009969542012549936
0.009937397522153333
0.00990462614223361
0.00989270065794699
0.0098981436539907
0.009905291860923171
0.009916005705017597
0.0099339243886061
0.009943133977940307
0.009932525070616975
0.00992000434314832
0.009931844775564969
0.009964210181497037
0.009985261266119778
0.009979267630260438
0.009969220324419438
0.009982051808619871
0.010004666555905714
0.010008946037851274
0.01000131354900077
0.009998716544359923
0.00998838260769844
0.00995880926027894
0.009933304855367168
0.009933906081132591
0.009948086943477392
0.009950450570322573
0.009928619088605047
0.009894018133636565
0.009870753781870007
0.009859722559340298
0.009847494695568457
0.009847292555496096
0.009877963450271636
0.00992261924315244
0.009941623982740566
0.009922460854286328
0.009901185067137703
0.009900430442066864
0.009892933710943907
0.009876262489706278
0.009890954602742568
0.009940886694239452
0.00998950880835764
0.010011800742940977
0.00999861722579226
0.009960113286506384
0.009921600759262218
0.009879376359749585
0.009873475411441178
0.009890514764701947
0.009906192142516375
0.009917319250525906
0.009933885916834697
0.009958279090933502
0.009987640553154051
0.010015758139779792
0.010025518336333335
0.010008488118182867
0.009978970161173493
0.009953597139101475
0.00994327468215488
0.009946959918597714
0.009948302445700392
0.009947168516227976
0.009962399830110371
0.009992231919895858
0.010018365796422585
0.010038023887900635
0.010057258239248768
0.010075526919681579
0.010089443003525957
0.010093417334137484
0.010082876196829602
0.010060875351773574
0.010034267690498382
0.010013966689584777
0.010012917099520563
0.01003019615658559
0.010051042101113126
0.010063780804630369
0.010068708211183547
0.010073363705305382
0.010080353143857792
0.010088596766581758
0.010101738632656634
0.010128072187071666
0.01017280007014051
0.010215783098246903
0.010221411070087925
0.010192591656232253
0.010168175448197871
0.010164443716639653
0.010169957930920646
0.010179205883760005
0.010187864302424713
0.010182255315594375
0.010162104805931448
0.010142765935743227
0.01012741522747092
0.010116052899975329
0.010121978210518136
0.010142506181728095
0.010157311238581315
0.010163430982502178
0.010166376581182704
0.010156450502108783
0.01012730669695884
0.010095720734680071
0.010080732584465296
0.010084011575672775
0.010097242714837194
0.010112932024057955
0.010126873655244707
0.010138654152397066
0.010158155870158225
0.010188821704359726
