0.009915187082951889
0.00988268559332937
0.00982732795062475
0.009795748681062833
0.009794401570688933
0.00979183203424327
0.009783357507549226
0.009787663847673685
0.009791851497720928
0.009775814623571933
0.00976665141293779
0.009787393359001726
0.009802289913641288
0.009780809682561085
0.009747902329545468
0.009737006314098835
0.009745727874105796
0.009742240820778535
0.009707823464414105
0.009669216251932084
0.00965517211239785
0.00965598011855036
0.009663367941975594
0.009684383588610217
0.009707839632174
0.009723571467911824
0.009746201888192444
0.009770721850218251
0.009762503266101704
0.009722099145874382
0.009693630727706477
0.00969939912785776
0.009716603793203831
0.009714398586656897
0.009685049090767279
0.009648208651924506
0.00963927099830471
0.009669921207241715
0.009709872340317815
0.009739519231952726
0.009765069789718837
0.009778979469556361
0.009775198159040883
0.009766232039546595
0.009765717848204077
0.009778429323341697
0.009787526900181547
0.009769723867066205
0.009727368508465587
0.009684597711311653
0.009657514621503651
0.00963984570116736
0.00962616779259406
0.009622885182034224
0.009634174651000648
0.009663889691000804
0.009706847093766555
0.009736635723384098
0.0097402265178971
0.009740359045099466
0.009754297353792936
0.00976632718811743
0.00976106901653111
0.009756384008796885
0.00977177700959146
0.009787850100547075
0.00978582042385824
0.009783411540556699
0.009791138868313282
0.009796784857753664
0.009802210096968338
0.009815651143435388
0.009829925931990146
0.009838328841142356
0.009834100652951747
0.009807596318423747
0.009775163400918245
0.009767945881467312
0.009783299072878435
0.009794938456034288
0.009797436313237994
0.009804035405395553
0.009821847692364827
0.00984765643137507
0.009871206717798486
0.00987730005173944
0.009861562575679272
0.009848676355322822
0.009867813283344731
0.009903499567881226
0.009918381505412981
0.00991316844127141
0.00990291969035752
0.009882024140097201
0.009856732810148969
0.009848916667979211
0.009853279764065519
0.009834884001174942
0.00978162752580829
0.009732947304146365
0.009725841901963577
0.009744110974716023
0.009752219765214249
0.00974595287349075
0.009747593223582953
0.009765423415228725
0.009782930597430095
0.009792338140541687
0.009801891735987738
0.00980646197218448
0.009797982295276597
0.009787757886806503
0.009785635864827781
0.009792079163016752
0.00980788350221701
0.009827790522249415
0.0098458804609254
0.009861955739324912
0.009872651487821713
0.009875548963900655
0.009873759957263245
0.009870091796619818
0.009872268597828224
0.009892241517081856
0.009924136378103868
0.009943304775515572
0.009945381098659709
0.00995314642903395
0.009968662996543571
0.009970888626994565
0.009961497763870284
0.009958261989522725
0.009963951165555046
0.009971846854314207
0.009970168097643181
0.009944603580515831
0.00990270892274566
0.009871680850628763
0.00986032047192566
0.00985248455312103
0.009838976424653083
0.00983164090430364
0.009844234723132103
0.009870552422944457
0.009888035168405623
0.00988120389985852
0.009850706775905564
0.009804196858312934
0.009761644358513876
0.00974939725245349
0.009760776741895825
0.00976809448795393
0.009777513695880771
0.009804871464148164
0.009822296246420592
0.009795123870717362
0.009741496096830815
0.00970908543211408
0.009712039572186769
0.009726323749637231
0.009739530197111889
0.009757742329966276
0.009772560326382518
0.009775471257744356
0.00977544739842415
0.009777102986117826
0.00978284260374494
0.009799790178658441
0.00981420470867306
0.009797092074295506
0.00975584584637545
0.009733330683084206
0.009741741345496848
0.009749873859109357
0.009735638262936845
0.009712027781642974
0.009703014803817496
0.009709379443665966
0.009713556978385895
0.009711395881604403
0.009710804182104767
0.009707808138336986
0.00969739982392639
0.009690525776240974
0.009691632671747356
0.009697025052737444
0.009712195859756322
0.009728845866629855
0.00972680069040507
0.009712716885842384
0.009709646427072584
0.009717119875131176
0.009713887060061098
0.009701298511354253
0.009704723884351552
0.009718443133169784
0.009718310823664068
0.009715918438741937
0.009723343137884512
0.00973042966099456
0.009750467566773295
0.009799611627822741
0.009851555494824424
0.009871266150148585
0.009859154922887683
0.009842558305244893
0.009841714280191809
0.009855852334294469
0.009875318015692755
0.00988905285601504
0.00989391233655624
0.009899855687981471
0.009907610331429168
0.009904527238104492
0.009889302178053186
0.009876669571967795
0.009880803916603327
0.009898073248332367
0.009909746696939692
0.00991228802362457
0.00992600565077737
0.009948992407880724
0.009946106187999248
0.009920469080097973
0.009916646693600342
0.009925973336212337
0.009897411470301449
0.009843916641548276
0.009825285563711077
0.009843855513026937
0.009844151574652642
0.00980055570951663
0.009751094629755243
0.009740744386799633
0.009773556524887681
0.009822980577591806
0.009854902530787513
0.009862212440930307
0.009868650095304474
0.009872278881957755
0.009856183577794582
0.009841912769479677
0.009849787425482646
0.009864574141101912
0.00986587565857917
0.00984823315171525
0.009828527099452913
0.0098273130110465
0.009844187514390796
0.00986877309391275
0.009892027961323038
0.009907002516556532
0.009911790613550693
0.009906788354273886
0.009887711077462882
0.009856733784545213
0.009836834631860256
0.009845355580328032
0.009868621194036677
0.00988087171688676
0.009871702578384428
0.009853068391093985
0.00984179308754392
0.009841865178896115
0.00984992215409875
0.009862648030975833
0.009872185436543078
0.009871655580354854
0.009873238510917872
0.009892362906830385
0.009913443576078863
0.009921130400616675
0.009930432983674109
0.009941298769554123
0.009939719343092292
0.009940461824880913
0.009956227012444287
0.00996510046068579
0.009943260529544204
0.00990137975779362
0.009871225727256388
0.009859442558372393
0.009844181590015069
0.009819820467382669
0.009811736464034765
0.009840774110052734
0.009884537155739963
0.00989668802707456
0.009869162935065106
0.009835033052368089
0.009810761285480111
0.009789710780605674
0.009780364114558324
0.009789583949605003
0.009798670536838472
0.009798923576017842
0.009801187489647417
0.00980752607109025
0.009819549098610878
0.009845862704096361
0.009879939404781908
0.009909696348477154
0.009937978929374367
0.009960871577495709
0.009964340840233489
0.009957795048831031
0.009960610509151592
0.009958003050414846
0.009930735287489369
0.009911490060621872
0.009941762927919626
0.010002505894517526
0.010040994249284268
0.010037567863473668
0.010019133919849993
0.010008428029250354
0.009988311991328373
0.00994482906651683
0.009898389544105157
0.009868592893471941
0.00985246260999702
0.00983843848691322
0.009820887597743421
0.009804966499796137
0.009791432712227106
0.00976152517949231
0.009712687433930113
0.009683562056161464
0.009697050650138407
0.009722884071525186
0.009724558355519547
0.009705729625420646
0.009691148720448836
0.009684530955273657
0.009679704399313777
0.009693744909018278
0.009737949529662728
0.009782556693535298
0.009800993916578592
0.009808675518725067
0.009828638619510457
0.00986344474600628
0.009900592622580006
0.009917793809436262
0.009906752171227709
0.009894692100351677
0.00991345798363909
0.009958541002124548
0.009990917306859047
0.009982401803135872
0.009954183887457476
0.009932387820445001
0.009898221298353747
0.00984314103377983
0.00980488782399334
0.009800728844711558
0.00980419068131596
0.00980013858876191
0.009798667109571398
0.009802356474101543
0.009799555920762941
0.009789326739264652
0.009786987246479839
0.009794680648483337
0.009799514504848048
0.009802845653612167
0.009807319379178807
0.009798260211246088
0.009783825111808255
0.009804882688913495
0.00986452611279674
0.009915358383441344
0.009933932176791132
0.009942933777347207
0.009965863757533952
0.009996080320561304
0.010013130005681888
0.010009714426705613
0.009989962748950348
0.009964564804686233
0.009947326916735619
0.009941214142600074
0.009931249017827213
0.009905074223643168
0.00988348949002102
0.009889466919703408
0.009904313361039386
0.009911936123389751
0.009930267763556912
0.00996098899981007
0.009978450695052743
0.009976338165579364
0.00997262003016658
0.009977494737831875
0.009990747179836034
0.01001388433505781
0.010036409118911252
0.01003986328607425
0.010029549652244896
0.010013791113160551
0.009979435567511246
0.009936534620355814
0.00991837410372682
0.009927383550675586
0.009949030817952008
0.009981142575852572
0.010017013582400978
0.010041422572685406
0.010043961056508123
0.010026299270102755
0.00999763744417578
0.009961967370472849
0.009928153958171607
0.009916626155609265
0.009927819700678811
0.009934569937177002
0.00992668817169033
0.009922560208942742
0.009928030647570267
0.009927209547022357
0.009911577594466507
0.009896073044510558
0.009900107072899117
0.009910526317544282
0.00990468202275224
0.009903110377490521
0.009934761686017736
0.009981356532080099
0.010003656392218545
0.009992437375476584
0.009977177809923887
0.009984936001710593
0.010002355589531362
0.01000387424370274
0.009987208381062374
0.00996370914275758
0.009942654788028448
0.009920617985771969
0.009895328360144048
0.00988342029042542
0.009880365080898628
0.009853260606760159
0.009806298193288966
0.009776460281573236
0.009772063192212955
0.009772694453131408
0.00976707881432958
0.009764123574132099
0.009771143053658306
0.009782209394033998
0.009792536686873063
0.009799565646098927
0.009797547756461427
0.009793746988289059
0.00980935949482955
0.009841928876703605
0.009857478293124586
0.009839111613109708
0.009809330569114537
0.009796753785340116
0.009805467764381319
0.009823366559576243
0.009839576659724117
0.009844546832609921
0.009836432059528307
0.00982411787728779
0.009813584071816877
0.009800286650424823
0.009773890469223261
0.009740083267679438
0.009727592144627125
0.009745943152811378
0.009768933382583783
0.009780966563848779
0.00979430818464607
0.009814072164008394
0.009819212417351082
0.009795736755477265
0.009772013764595612
0.009775728771928697
0.009785968966316432
0.009781683715991675
0.009782899933634326
0.009803093172376976
0.009818147293990477
0.009805182928685098
0.00977330277324654
0.009749710770556703
0.009749147407710552
0.009765218296088278
0.009789144279202446
0.009812728425022215
0.009823813895927742
0.009821689298842102
0.009822623605141417
0.009843480130657554
0.009880053099477664
0.009905693223699927
0.009903522338718176
0.00988109370577149
0.009844447054201738
0.009790732057299465
0.009732745462097228
0.00969713719910942
0.009692008898127824
0.009700860866578296
0.009705435715150089
0.009704222910804673
0.009708303415682167
0.009714359840145334
0.0097020020079799
0.009668238392332568
0.009636022169142961
0.00962028923095204
0.009612749440129846
0.00961104016751051
0.009631518848473207
0.00967449560528621
0.009713685663882643
0.009731548700947314
0.009730227487161756
0.009718083366751671
0.009705232030246407
0.009692495561903342
0.009678816730156541
0.009685381363378837
0.009720204675104469
0.009744907014537603
0.009729929609457032
0.009694492507260294
0.009676054698647931
0.009691671006148681
0.009723857700591906
0.00975029968423769
0.009768529345747083
0.0097683417936787
0.009737705846782773
0.009702078526606784
0.00969498472288251
0.009713958987267688
0.009734844993799925
0.009730913041858002
0.009690545902121811
0.009642330133356154
0.00962228246149607
0.009622935925144703
0.009619942526333034
0.009612304823240264
0.009605838668067008
0.009598764341790229
0.009595207418315113
0.009608305690344423
0.009643565493170171
0.009682455688016489
0.009704687925986945
0.009723305751103908
0.009753133154008537
0.009775134611409157
0.009776360735995695
0.009765313001116738
0.009736854784423486
0.00968907862319611
0.009647526673506945
0.009630823294864968
0.009634677408030257
0.0096528612379916
0.009678121046163142
0.00969773952732794
0.009701213053194806
0.009680081479018554
0.009639459700556472
0.0096066678466741
0.009597537014633417
0.00959694568417035
0.009587990377331152
0.009572040109196678
0.009560079606017098
0.00956804939196445
0.009604921304853633
0.009649206389440224
0.009671377498889341
0.009676638555247337
0.009690486883046105
0.00971425475552678
0.009722745176404715
0.009710671602515503
0.009704571650363505
0.009709543568314985
0.009699018802493811
0.00966906280722469
0.009646323766792192
0.009643479897640646
0.009644020438427105
0.009629822592251003
0.0096065827854909
0.009590125888353214
0.009578089301940054
0.009559508418897167
0.009538969090208411
0.009529619776876642
0.009538884168723599
0.009563290855148808
0.009586929578799754
0.009594249570509418
0.009578487197868525
0.009541265037842094
0.009498858682345599
0.009474864167859778
0.009483471045969053
0.009517811589175836
0.009552123226458207
0.009572162515250966
0.009584285819437354
0.009589828654425219
0.009586787302978336
0.009583183021750302
0.009578562130918726
0.009564290314447135
0.009561012230115011
0.00959614316234365
0.00964181664865464
0.009644034629454836
0.009600665806792676
0.009558754316531122
0.009545318959280848
0.009547376648988574
0.009550703772110864
0.009547856769058853
0.009538971720030532
0.00955195693182759
0.009601685502566397
0.009647483933949843
0.009655497630592435
0.009648828158387914
0.00965617088950239
0.009668268826790154
0.009663202930241824
0.009645869008963928
0.009641280269715936
0.009653945283498616
0.009672135851578787
0.009695035357726738
0.009719421287300065
0.009740500081097708
0.009765284763416275
0.009789374123793096
0.009796809306135402
0.009792254131752998
0.00978995009791106
0.009779573753476142
0.009742520103463903
0.00969217590871267
0.009665857467334718
0.009675598033936694
0.009689482755493372
0.009674268767703324
0.009638039773562923
0.00961424933746457
0.009617248441791161
0.009631141375284641
0.00963368060416542
0.009622567925835029
0.009620512139517813
0.009637475803028792
0.009652557532535865
0.009661717476556078
0.009684385594446211
0.009716628353344277
0.009739752708701416
0.009753407038515434
0.009761418163543567
0.009754242403432726
0.009730309740407393
0.009711644503986462
0.009711249669780955
0.009708242834312842
0.009688916361192242
0.009672715585911646
0.009671065082075074
0.009679104698589071
0.009701278344728052
0.009736940253060312
0.00977399002527818
0.009798671220196412
0.009796269672224299
0.009780001220060513
0.009791552708484232
0.009832628936273978
0.009855069130426273
0.009842186531750485
0.009832688412861898
0.009851388691458851
0.009875673697097227
0.009881290872581303
0.009871030941139907
0.009847499423194676
0.009809887359151616
0.00978833059896715
0.009813437748234718
0.009855309735285119
0.009872155109187588
0.009876252037938684
0.009890222618123517
0.009909472434083
0.009920865101739763
0.009909109449945391
0.009878001008182764
0.00985996852745302
0.009866073775338009
0.00987658037338406
0.009891546096187085
0.009925391171127557
0.009962000366067513
0.00996926000691019
0.00994427976431325
0.009912782934261486
0.009894895309116691
0.00989545518765226
0.009912758024875075
0.009932016471866518
0.009938025287119671
0.009937698740977795
0.009942377557745203
0.009953200560994446
0.009968765651574358
0.009980644105235114
0.0099810774915386
0.009978972827084362
0.009985437173163518
0.009998586653964595
0.010003166114911437
0.009978809762978927
0.009936899706954137
0.009921848605154082
0.009948041398311035
0.009983438408235089
0.009996813347097486
0.009983950118767097
0.009955129768932237
0.009923547490034252
0.009907356774201617
0.009918003642233088
0.009946924083633348
0.009978420739062131
0.010003512437688187
0.010017337737372145
0.010017759109614418
0.010008975167293101
0.01000075323972851
0.009994938155869023
0.009982309443876148
0.009965584867168219
0.009953403187682851
0.009941098387353122
0.009937053077155724
0.009961875886656344
0.010003164156805723
0.010023834267631173
0.010007729778299107
0.009977570411283523
0.009979836024576798
0.01002884014742449
0.010078678478021175
0.01008948743226938
0.010071388282813131
0.010040400401921943
0.010000141360796988
0.009965101006673648
0.009949115817435086
0.009952381595503539
0.00996816122555174
0.009978876523673534
0.009973290998023004
0.009965449615847319
0.00997193371411413
0.009993459095712752
0.010015639882767572
0.010013667625607924
0.009978306690463797
0.009936380893923341
0.00992394243949093
0.009940977329388262
0.009952140249079094
0.00994316374300979
0.009941239877371118
0.009953652393305675
0.009954112634295598
0.00994705401128158
0.009959648188669235
0.009979788619093597
0.009974736119620502
0.009951154650188983
0.00994565277476795
0.009968956292141229
0.009991552091669291
0.009988186192931608
0.009977196515537799
0.009985628575086593
0.010003839279524982
0.010015766816213727
0.01001963451737538
0.01000573909841478
0.00997558687115088
0.009956338086631149
0.009972333206096664
0.010027546463534235
0.010091190362581983
0.010115179173881187
0.010096937144408003
0.010079244984081016
0.010079822319094092
0.010075113024795428
0.010051722964271903
0.010032562176929787
0.010050703089218587
0.010107347457669676
0.010170822266954928
0.010217065713368357
0.010234449757263064
0.01021930860588327
0.010198143732268364
0.010202177411410957
0.010227334162918851
0.010257101813331247
0.010284433430060745
0.010294484653277322
0.010271796017186717
0.010229660705663264
0.010195022858679294
0.010167532007908448
0.010135793387889861
0.01011585196480155
0.010118732381379232
0.010121334462892264
0.01010889388155192
0.010091209741076454
0.010074227042496204
0.010054995440877974
0.0100294938927982
0.010001400588080286
0.00998831211356446
0.010001313030952587
0.010021158977178857
0.010013056279858575
0.009972551676910371
0.009935712872538716
0.00992949755047448
0.009942807595944032
0.009955739340512082
0.00996541069005616
0.00997540480340831
0.00998461109236814
0.009986248026834801
0.009970074398443102
0.009950068452162668
0.009966696999035775
0.010022035527508705
0.01006289618788287
0.0100549191609025
0.010021094732219354
0.010006498055299745
0.01002193017397076
0.010027917290572078
0.010007674266817049
0.009992985356366262
0.009980974852805958
0.00993989804876037
0.009887854530243203
0.009862997020827607
0.00985994462389499
0.009854966758284718
0.009850047489162534
0.009855776745826005
0.009862408493645489
0.009857919224305078
0.009857853173743934
0.009888169332407415
0.00994054165435955
0.009981560240266845
0.009997778207762167
0.009996765272226184
0.009984703415539116
0.009958125032717362
0.009921053596772254
0.009897541276877746
0.009892246189992874
0.009883194651920349
0.009876535343937575
0.009892721818760037
0.00990728154196404
0.009886534855468199
0.00985405484912917
0.009849007116863505
0.009863796293502673
0.009870550251798704
0.009858311768621206
0.009834318773355335
0.009808632808271796
0.009780723394360393
0.009756807314697653
0.009750888226553798
0.009759682198055088
0.009769834076287225
0.009774335765978321
0.009778853349853307
0.009797240206971765
0.00982245255378075
0.009831647912506014
0.009823852176778019
0.009809594678226858
0.009787168772891163
0.009760531929787248
0.009746181403752417
0.00974801460863091
0.009754185858182609
0.009754205560311676
0.009743902283953504
0.009722998001379893
0.00969916425528936
0.009694253971101716
0.009721909842919558
0.009764973294222727
0.009797811028547584
0.009810268260771408
0.009805030021816492
0.009786340141436084
0.009756404156796634
0.009727765254210681
0.00972188648651354
0.009741264870390296
0.009767192016588523
0.009793765888316557
0.009823512930888683
0.009835600743535906
0.009813308150041848
0.00978397676255554
0.009787298631854355
0.00981954651651904
0.009841317700920626
0.009831412604544312
0.009803542330628261
0.009783447866793723
0.009782716155750677
0.009790474477922544
0.009799152340274304
0.009809253599960356
0.009807260450907051
0.009787996649974958
0.00978073283098638
0.009811304926406592
0.009855176196433604
0.009869490836281329
0.00986258521443233
0.009874339631060138
0.009895642804913223
0.009880328997969628
0.009830286295618862
0.009796181221026927
0.009806395445484667
0.009837943768361583
0.009845169917680323
0.009822860716376454
0.009818210421362892
0.009846210342366248
0.009865107885561884
0.00986144267488271
0.009868113822303713
0.009890511180274189
0.009896569622214883
0.00987926070112735
0.009867183058522641
0.009876594913657754
0.009893508164677768
0.009902674597688019
0.009898997320560739
0.00987105093547143
0.009824627959169448
0.009804806372849272
0.009835185927804559
0.009876328742830082
0.009882206552429124
0.009855732863070444
0.009835909494431689
0.009843989214859903
0.00985971705056727
0.009865377249661833
0.009869180812966078
0.009869390716776252
0.009851654466474428
0.009821298373863101
0.009796961394604295
0.009783321307040752
0.009774042742792517
0.009767307528527454
0.009766608584905044
0.009777665571309626
0.009799003693042324
0.009817421573679895
0.009830278203589842
0.009853071204852314
0.009889806832652538
0.009926212105201558
0.009951157484902069
0.009957120354520156
0.009935306281549856
0.009884412568062544
0.00982467518071644
0.009794287373078987
0.009802457561017946
0.009812501253327355
0.009802183668361976
0.009793986182194203
0.009810413712402806
0.009839099025120958
0.009849010491743684
0.009824423767859115
0.00977528069051914
0.009720769020495935
0.009674014388583601
0.009634209669893607
0.00959564121440053
0.009570269937394188
0.00956962961005047
0.009572167691076175
0.009556988830445335
0.009546049648197368
0.009571150488918647
0.009630004650680347
0.009696681259665638
0.009749265345744789
0.009778520653489976
0.009783723343862221
0.009769538514083251
0.009748595885466784
0.009738985563162715
0.009751190919196233
0.00978205704013817
0.009820787539938465
0.009856204696698114
0.00987975041149184
0.009882378545589744
0.009859244319377467
0.009826770592480898
0.0098148317146115
0.009830771393608303
0.009858205195050686
0.009881973608862608
0.00989034128957428
0.009884255551733077
0.009887522372882812
0.009915429494576529
0.009946997278602794
0.009957742799306288
0.009958278983831406
0.009960681820521131
0.009945265407441183
0.009908015227410942
0.009886709166457876
0.00990229964721948
0.009925163193838672
0.009917746183928102
0.009881331298965962
0.009850675662746652
0.009843439616961405
0.009846029579639435
0.009858256677398458
0.009890072380658239
0.009924875776050612
0.009942612564191221
0.009945011569652707
0.009936617410276086
0.00991713638883084
0.0098912905191537
0.009867332477588206
0.009857456770259888
0.009868528885999695
0.00988052254775539
0.009875429081730544
0.009870418556965887
0.00987762097036466
0.009875490250997244
0.009849542129086331
0.009820983383106068
0.009812345426762476
0.009819123124470934
0.009826771398074925
0.009819759376114234
0.009784546325681731
0.00973569176858291
0.009717173657845706
0.009744338766904549
0.009776260324288159
0.009781823579687625
0.009776673353044316
0.009781348379328847
0.009806616331916302
0.009854087326675653
0.00990165705792606
0.009926056422991679
0.009927427842048928
0.00991851688362658
0.009912281912984327
0.00991062660003081
0.009903863279614598
0.009894248858327046
0.009898011761251838
0.009917440904537216
0.009936974443262444
0.009946559636155143
0.009948761243140324
0.009944459658581763
0.009932573332916946
0.009923084693728015
0.009928717780858277
0.009945347532629966
0.009956205973867326
0.009954380240524188
0.009952567169675604
0.009962818528292701
0.009968625776236877
0.009946737409336492
0.00991024634684436
0.00988803023356013
0.009887419181177392
0.00990555872558616
0.009941040494013578
0.009977612073998898
0.009987351652234792
0.009967228326713666
0.009947374374605715
0.009949488878482952
0.009955697369296104
0.009936490092659369
0.009898242217022925
0.009871986814541742
0.00986318600247614
0.009846017621457577
0.009814894833834843
0.009805921396473422
0.009835397223941982
0.009862593470606952
0.009848869383567944
0.009811178862582893
0.00978591423947364
0.009771827077493071
0.009756024059606716
0.009756413396680728
0.009779775778297336
0.009789211875759065
0.009763746104435995
0.00974290495738387
0.009766152285737916
0.009814567632274703
0.009844933587592095
0.00983861762448214
0.009811984803527594
0.009797200883040204
0.009800850441679358
0.009796677948907017
0.009782246004324407
0.009787661918671801
0.009802832329878584
0.009790824764641002
0.009771144200349226
0.009787043151445686
0.00982396925566718
0.009834840911207721
0.00981468781013973
0.009799559372477234
0.009802031129365786
0.009798566037788987
0.009784520160173997
0.00978470933972858
0.009798668345902116
0.00980158637277782
0.009803785404656082
0.009825271734734997
0.009837547645438462
0.00981908112182282
0.009800470336340367
0.009806644142372534
0.009832329202909022
0.009861761644715443
0.009875483908690513
0.009869055600138382
0.00985821417416446
0.009855540791759267
0.009857270151842385
0.009854759962763637
0.009854248529300093
0.009872900596819818
0.009912510361755267
0.009955795165151358
0.009992834923323243
0.01002714486210607
0.010049483524635434
0.010041162178386003
0.01000981071498245
0.009976865941425786
0.009941561737796291
0.009904126503970474
0.009880361513933168
0.009870519526302815
0.009869001936167479
0.009882711976533756
0.009907718967879191
0.009919423676328733
0.009896340555278584
0.009852987971389665
0.009830716996220871
0.009841348795453087
0.009858558467822149
0.009867372172884643
0.009868890250800177
0.009850950191030279
0.009810238513164222
0.00977624254184775
0.009779582601040601
0.009816887956112623
0.009854816402075812
0.009873930047033354
0.009890719568356871
0.009913970052730292
0.009927474510623141
0.009931485193083062
0.009938971103401854
0.009937619685661047
0.009910441999090835
0.009869175602216274
0.009830621536821127
0.00979690047330223
0.009777195206843316
0.009786422146717086
0.00981669656583108
0.009840606630314141
0.00984574758564122
0.00984685773961246
0.009858689443208278
0.009871712260646745
0.009867031126050278
0.009851930802688003
0.009853945021750405
0.009880429384065793
0.00991104808752425
0.00992155642947182
0.009905605523381383
0.009878183158580214
0.009857804405037314
0.009851683198940009
0.009855266369413584
0.009861797099001706
0.009873748576501385
0.009890299877151848
0.009894615665543824
0.009884806500049309
0.009885793203720824
0.009904086769092829
0.009916800872888416
0.009911946788197384
0.009902327579911798
0.009908701418899
0.00993953773053363
0.009975364139536395
0.009990048558684066
0.009987148210639134
0.009981958259595558
0.009970065681263804
0.009946782763581723
0.009926833901554346
0.009925828063860536
0.009937288580695168
0.009940096796490251
0.00993422333500348
0.009944843917619437
0.009973470905097202
0.009988956939196214
0.00998112529166974
0.009965719820465893
0.009946342695038767
0.009921656576916576
0.009906063517555595
0.009912808894878253
0.009929293686291203
0.00993283043964766
0.009923930498771369
0.009923521043965593
0.009941602000035346
0.00996106466744095
0.009965457040816545
0.009966609720140695
0.009977949997410179
0.009981733486056328
0.009957684859400615
0.009931090115569531
0.009936425784835591
0.009949691098881885
0.009933741649147123
0.009908104033675045
0.00990575777599588
0.009926025931490586
0.009958843358326704
0.009985892705153675
0.009983267246279865
0.009967368296347558
0.009965454953489826
0.009953660215251148
0.009904856835491955
0.009850770275807007
0.009839413394220174
0.00986344187404029
0.009877228253753857
0.009862577409949154
0.0098340760380961
0.009810122024500743
0.009803508955519647
0.009815670661628246
0.009831408552126959
0.009833443422103301
0.009825511578237639
0.00982430143863894
0.009832300232956186
0.009839753353735431
0.009840119156287984
0.009828730056760833
0.009805943811079488
0.00978328077821061
0.009776773662306368
0.009798335512168705
0.009840449609328061
0.009871566173387691
0.009871813517529518
0.009863584769191221
0.009878353355452419
0.009906324526527897
0.009914010136853904
0.009901388075668364
0.009897322956239804
0.009905310426838697
0.009907354838214815
0.009907671032706275
0.00992550521856174
0.009957516887225211
0.009974012105958536
0.009961994749028235
0.009946425585076213
0.009941615252755583
0.009930196836357937
0.00991449274471961
0.009923006102908402
0.009952936443733051
0.009967970126308501
0.009953897087834776
0.009928012436721473
0.009904530900530516
0.009884328761836514
0.009872730006463826
0.009882545947330073
0.00991066316375509
0.009936673678457736
0.009944339672802015
0.00993246677564457
0.009919635347323492
0.009922616278054193
0.009931545432191342
0.009931438129860908
0.009927138942293823
0.009934651972725988
0.009957458054414019
0.009974904307164252
0.009966676906915382
0.009942051421385259
0.009919987668981776
0.009895869848551229
0.009864234644919635
0.009846152851823718
0.00985423924983479
0.009871272412128746
0.009881280991248787
0.009878778455313295
0.009864860874367878
0.009852116543333978
0.00984313279390335
0.009830082615371794
0.009822011044016109
0.009828551956452429
0.00983679002383724
0.009838581829098985
0.009853426148183644
0.009894826676463709
0.00993824448552914
0.00994426975492388
0.009906152805779129
0.009861332012806088
0.009837544867768883
0.009818963876459747
0.00979261388303712
0.009770004795864224
0.00975755334016867
0.009760556053370237
0.009784489524317905
0.00980666367453523
0.009798699808306992
0.009771576615748926
0.009753151871263981
0.00974325867719017
0.009733146846992896
0.00974566858378239
0.009802677627885715
0.009874605665681884
0.009913815661566332
0.009916733475401998
0.009913191483356058
0.009913331464631484
0.009907830518204718
0.009900305490009486
0.00989746245671995
0.009892298023914918
0.009875948855187744
0.009851219288539142
0.00983538499684073
0.009836160341510549
0.009831845759181305
0.009808538014767691
0.009783727066824212
0.009764151877025142
0.009738458145875484
0.0097238674829714
0.009750135191716254
0.009801484440686181
0.00984179004910402
0.009869626841973513
0.009894025874091312
0.0099046090466436
0.009894411147106439
0.009873435107292607
0.009858400837983936
0.009857154858764261
0.00985691349953413
0.009846200934844092
0.009840240097837523
0.009847735515795647
0.009847605959512293
0.009829307962208987
0.009804932825500146
0.009787998552201315
0.0097932987625245
0.0098221763712354
0.009848224840825424
0.00984716584905982
0.009825167447561399
0.009803658582968637
0.009791997872525826
0.009790071211755276
0.009801093599526212
0.00981708214036189
0.009817371277604252
0.009805426829261705
0.009805323507171124
0.009819213504670188
0.00983168211649172
0.009832817813148723
0.00982117768493481
0.009808995715575293
0.009810966559452936
0.0098185783426743
0.009814098922070115
0.00980708337854594
0.009814526539994404
0.009822890772484242
0.009814638626994564
0.009801923409104346
0.009804215126205235
0.009813189513515681
0.009801170047139748
0.009762522373348475
0.009717577224364504
0.009679179521044716
0.009655114907072857
0.009657480379100889
0.009677285351790488
0.009690466742031277
0.00969545597443357
0.0097111655655317
0.009744788006646559
0.009780535403406248
0.009799051639856771
0.009803230098914355
0.009814765219343826
0.009833286214852705
0.009829896026058122
0.009802199761616066
0.009787262538447977
0.009803954539820551
0.009829150398727506
0.009842831749701873
0.009847275719512254
0.0098356562491972
0.009804667354328557
0.009779185042716562
0.009767137198941782
0.00973857554490678
0.009691510261036455
0.009672225865069778
0.009689653259702027
0.009698027464328334
0.009697176357731223
0.009733757345238701
0.009790478720096871
0.009798587418626993
0.009756829700199888
0.009729583106236532
0.009749174419557676
0.009800640580942854
0.009859848137712107
0.009903944536345079
0.009928738246671856
0.00995469385641627
0.0099847915279679
0.00998706356040202
0.009952433487633243
0.009924741607392207
0.009929992853431031
0.0099435195827391
0.009952585706487297
0.009966562560293823
0.009977661379380151
0.0099726149009075
0.009950379523215815
0.009914277960779145
0.009873781126225367
0.009843177555594593
0.009823315266985447
0.00980109206517227
0.009778929060557858
0.00978205430903472
0.00981789904879406
0.009861120203277096
0.00989017407526262
0.009895513380179181
0.009871942374156789
0.009831522279419004
0.009790822494542226
0.009759443473303691
0.00975081669865176
0.009767608017427846
0.009794269996928052
0.009819570634281263
0.009833825316745788
0.009825567706720904
0.009810006823390722
0.009812726381933317
0.009824833325110376
0.00982486916007474
0.009820925218518824
0.009838748269248753
0.0098717881902121
0.009873441386735066
0.00983421780867502
0.00980220198747702
0.00979727330384776
0.009794805924175308
0.009787318032467738
0.009789034285349772
0.00979463548748754
0.009781723846681417
0.009753294087713584
0.00972983519663103
0.009711914109066128
0.009702346824342385
0.0097212323686108
0.009766165126347915
0.009809493940556422
0.009843210418475792
0.009878842238103971
0.00990298156393692
0.009890244113048539
0.009853406734764576
0.00982963664806448
0.009836517049698158
0.009861926756566391
0.00988007698324509
0.009875577406492085
0.009856189161073416
0.009841083247447386
0.009836972135817633
0.009836679145228117
0.009832925301743671
0.009816111649852246
0.009783278281101957
0.009760497092502192
0.009781550880288705
0.009832993936724961
0.009863443023059517
0.00985820613335818
0.00984746209695004
0.009850695573259145
0.009866787147475407
0.00988761457731016
0.009900520654628053
0.009900905335089192
0.009892409780295566
0.009880592426052317
0.009877650877460837
0.00989019776810892
0.009908340433612465
0.009917627656832337
0.00990898085059598
0.00988523691194132
0.009859586075181141
0.009840419419342652
0.009828184769721702
0.00982234391150996
0.009821905143326148
0.009826126061379909
0.009833146719029174
0.00984069601399824
0.009855792286107317
0.009887320646084845
0.009925387394614517
0.00995014924905263
0.009961703872540965
0.009980384090449662
0.010010765863116831
0.01002894713776186
0.010027110896771774
0.010032765584765003
0.010045026807347313
0.010018937226850539
0.009951616728212685
0.0098921917763073
0.009858603596221656
0.009838364950846881
0.009839420584030449
0.009866436416050419
0.009895877209492027
0.009907235751161352
0.009900150467874482
0.009885550573235377
0.00987611897988245
0.009875345723703504
0.009878389212535693
0.009880177757004276
0.009880838127573953
0.009891379796899856
0.009913538915570825
0.00991882500355132
0.009892984706675633
0.009874757787911222
0.0098981976963114
0.009934433625312522
0.009936137731419875
0.009909036507597193
0.00989163308753632
0.009886798784136772
0.009877113064285369
0.009875822387402877
0.009892852812772617
0.009905120478942991
0.009906278805574402
0.009917011696379631
0.009937191943172365
0.009946393376449123
0.009940791230183094
0.009930888999952004
0.009924151375889778
0.009929158254526555
0.00994693195912987
0.009965551786590367
0.009978612734703346
0.00998645878280513
0.00998987201252021
0.009989300353918224
0.009982356886612252
0.009974137308308855
0.009974078756058588
0.009982906359946355
0.009997285951394588
0.010006091248942538
0.01000069540576078
0.009998442495707423
0.010012098561273887
0.01001967155491002
0.010003157209139317
0.009975605197250843
0.009955208235187456
0.009948615131434054
0.009951736108632758
0.009953306699171662
0.009956933794310317
0.009977389669511467
0.010001272818772122
0.010004275855608284
0.009996950649656356
0.009993263074429706
0.00997139107901603
0.00992388030863367
0.009891915117623284
0.00989938639686443
0.009917352043557912
0.009923061496810987
0.009931809882400557
0.0099556991038844
0.00997629574732855
0.009975136568536982
0.009962341580539942
0.009948652420425787
0.009926421977579593
0.00990869250963442
0.009927404271438718
0.00997574269073084
0.010011017012875528
0.010010830874089152
0.009987877601524815
0.009964465199736879
0.009952344526536762
0.00994474307866767
0.009928926524007693
0.009908009932842106
0.009899254071060569
0.009913283818168566
0.009935534693067894
0.009939976778114215
0.009924822447355836
0.00990597166819498
0.00989052037941292
0.009883349684532732
0.009889468880137428
0.009905577087774873
0.009927928246324881
0.009950536674587056
0.00995849136612378
0.009945326818851755
0.00992627491708845
0.009922753212740644
0.009939531458076089
0.009965375385945663
0.009991626638220624
0.010010761512676254
0.010016737543046474
0.010023988782195374
0.01004762296914123
0.010076013087527827
0.010093025462701917
0.010092543329810723
0.01007127457880415
0.010034777972614393
0.009995951508171856
0.009968895970378071
0.009965458031510934
0.00997597690206021
0.009976076853927224
0.00996761160902679
0.009972900334978475
0.009990182227920742
0.00999621710856445
0.00999061793787405
0.010003642335068435
0.010044946540147067
0.010079958694986998
0.01008871984668076
0.010093775229761378
0.01009925095946528
0.010079208497190848
0.01004578628228046
0.010048039493849501
0.010094336417969316
0.010143442045664414
0.01016528501175344
0.010162996323779226
0.01014991250820458
0.01012897270382382
0.010098934951238335
0.010067924194736406
0.010047567111905664
0.010048920086119325
0.010072242876049131
0.010096442586509512
0.010102826568763703
0.010093590712640434
0.010080260657705366
0.010076793592888862
0.01009415538981557
0.010119661225471645
0.01012356353807263
0.010103288965765386
0.010084489377913997
0.01007537763682194
0.010067187348613515
0.010064736563945189
0.010069768704706803
0.010066993639338762
0.010058695737970993
0.010060354261659086
0.010061596551677212
0.010050711351213977
0.01003867389052175
0.010029095102800057
0.010018195903394372
0.010008091959170996
0.009999198185978457
0.010000457869609817
0.010022388347424567
0.010051973585505039
0.010067527402425185
0.010066028650617226
0.010058889905922115
0.01005242444574833
0.010047232432989404
0.010048378703650086
0.010054646242642774
0.010053179477108643
0.010043844581814483
0.010039382569957525
0.010034287851303815
0.010023496320936829
0.010031328526092693
0.01005637130816467
0.010046593943843617
0.009985226632561534
0.009925789055414498
0.009909260134445503
0.009912874428555369
0.009909131318563595
0.009919206339400261
0.00995794375659898
0.009979897434823215
0.009951052665710449
0.009915925448294729
0.009931259035365656
0.009988978076726197
0.010040163996163755
0.010051898143719882
0.010023131762864068
0.009978977059945464
0.00994970916188322
0.009940088589210062
0.009938304454553872
0.009943147390149534
0.009960414341185242
0.009982445648638531
0.009990034999791533
0.009983987594023348
0.009979800883447751
0.009970338691491634
0.009949286399642005
0.009941964620957151
0.009960833658697084
0.009975377484224737
0.009963973076082766
0.00995690971147269
0.009986039290670306
0.01002395587740466
0.010028422521427273
0.010008679406018928
0.00999820592114702
0.010003869903739542
0.01001047068508342
0.010005714431172237
0.009987439982360229
0.009965848255669698
0.00996163544477895
0.009974785507656634
0.009971672801766545
0.009939402821473778
0.00990982801420614
0.00990280303871259
0.009895819463999943
0.009865692736348138
0.009834806224098429
0.009844233192270622
0.00988385574775748
0.009911982849007472
0.009925879429792984
0.009940080657834187
0.00995308558573015
0.009975342688849196
0.01001627092133276
0.010054164243629203
0.010059543414972722
0.010022603193065152
0.009965448195580394
0.009928938491502776
0.00992692617001012
0.0099388016120065
0.00994789736228995
0.009955472962465137
0.009967643186682836
0.009985681764082982
0.009998314972035587
0.00998420467833057
0.009943006609100849
0.009909156148787589
0.009905409303028136
0.009916254087584094
0.009927661651745438
0.009945997660979628
0.00997017894173041
0.009985350443748757
0.00998975970200263
0.009999031581683084
0.010018282319651916
0.010034686647122726
0.010037981753703207
0.010032937629148364
0.010024244579253718
0.01000975317088887
0.010000018959399313
0.01000068377237767
0.009994146547978745
0.009975611915579066
0.009958884458756074
0.00994242177112028
0.009913834613980725
0.009880325295962394
0.009862843642476946
0.009860779758309946
0.009855200664605945
0.00984636373934336
0.009851897506741807
0.009873561265412717
0.009896244303090497
0.009912548757856712
0.009925997729878873
0.009937302812468261
0.00994089270941913
0.009928424415411427
0.009903353708796202
0.009889397971564904
0.009897005128441378
0.00990535027696751
0.009900539146037772
0.009894317949656397
0.009898040640400722
0.009902137675089762
0.009885648678755387
0.009845576228108256
0.009804759176913648
0.009788137105060742
0.009800574018154293
0.00981849588919431
0.0098178954818286
0.009814172176411375
0.009833558255340904
0.009867607409833
0.009895551067311317
0.009912298402050511
0.009916906410362572
0.009906900136265905
0.00988853554124944
0.009875646699219942
0.009874264872632921
0.009872005505021661
0.009849843817064538
0.00980989374453202
0.009776868403423577
0.009766809202264994
0.009771370292874053
0.009775450198212639
0.009779988555237651
0.009789003189653159
0.009789094798034057
0.00978006023564376
0.009787751875119283
0.009812604556791484
0.009815352814039216
0.009774386294884608
0.009721632181899621
0.00969828970497474
0.009702746840193868
0.009713046847609803
0.009721853299997746
0.009725640509277583
0.009719717693515121
0.009709630222059786
0.009704538128571584
0.00970480521209538
0.009704609195468948
0.009705668829847127
0.009719501241343097
0.009746993915177882
0.009763187845237553
0.009747955452185124
0.009730065640760586
0.00974703076761216
0.009780064979568124
0.009793605733430013
0.009791899704141542
0.009795862997416407
0.009808932135347276
0.009818187952041625
0.009809803953394293
0.0097824716148898
0.009752997339237481
0.009742492318619043
0.0097493099514395
0.00975375979905948
0.0097521292779129
0.009752950140973554
0.009749115745071322
0.009736110960366204
0.009732682169415056
0.009743447815999388
0.009740461924811825
0.009716225565643982
0.009703297483501955
0.0097191729885526
0.009749838304705917
0.009774901060154662
0.00977389002800919
0.009753846103558316
0.009751301842043177
0.009772044202545658
0.009792470070533455
0.009809358852216975
0.009816334588686004
0.009786801029695197
0.009735084432177245
0.009714904323918744
0.009737899876199663
0.009769715811125934
0.009786700922995805
0.009786194261396304
0.00977261455496773
0.009753468667622656
0.009739653979195281
0.009745605007046833
0.009773836868116632
0.009801022969186305
0.009797559708822519
0.00976651887409389
0.009743269925238565
0.009747093311743811
0.00976892858510837
0.009797368462895974
0.009822184364311396
0.009836900641676038
0.009841776618268341
0.009832057219464332
0.009805919954087585
0.009782309444854037
0.009782582024345175
0.00979631840949878
0.009798347821924836
0.009793253159150481
0.009797249485272915
0.009797909950139001
0.009778422453673557
0.009746939315227791
0.009716211999766529
0.009686158180702478
0.009657603548839688
0.00964607507456094
0.009662028071470558
0.00969038627925329
0.00971298795309849
0.009723702620249242
0.009717423766851425
0.00970184760633856
0.009703379068523645
0.009729087402811275
0.009747339515015482
0.00973849588772282
0.009730606192024425
0.00974789517116733
0.009772527161985636
0.009779511708766222
0.009775911609176546
0.009793369234539568
0.009832143508829176
0.009847807048354298
0.009822010656353086
0.009787613725056871
0.009770826861495153
0.009768102712696418
0.009770540941972286
0.009761698134243489
0.009723166892072185
0.009674190677469597
0.009664725167676807
0.009718165603699163
0.00980022209463641
0.009848082123789936
0.009838898322777822
0.009809392396127804
0.009794809928862377
0.009789255501236766
0.009776714290492237
0.009760505091398954
0.009750815987354144
0.009754383492982015
0.009770652432925998
0.009776615074370056
0.009752285975264386
0.009723595044342802
0.009728322646114975
0.00975976548739709
0.009787310584215447
0.009794759068172424
0.009776921414304524
0.009743824281031266
0.009722658388782293
0.009725314242532477
0.00973870265763253
0.009751523594604804
0.00976822231663391
0.009792198879877105
0.009805424773367122
0.00979289114358835
0.009774357788264751
0.009775241892784834
0.009792853624094277
0.0098159332992509
0.009846849732566625
0.009880983394104988
0.00989286509109661
0.009877499194117264
0.00986198366386816
0.009855348769342527
0.009850332500645891
0.009856463769683615
0.009878834986593574
0.00989883824950084
0.009897836474701762
0.009881558106280863
0.009871550193056465
0.009875105965184048
0.009872936389874666
0.009844041138421744
0.009799021667568013
0.009766726207453757
0.009760678866878153
0.009781849373830483
0.009817864805227146
0.009844200434163213
0.009857689533382653
0.009873218031134456
0.009892941446742043
0.009907391837332398
0.009904850274324417
0.00988658469519578
0.00987159346579574
0.009867605625186116
0.00986919421935454
0.00988186359521933
0.009911335180513561
0.009942515201400966
0.009951383929001167
0.00993874498293735
0.009926654441514984
0.009917625307571143
0.009902629486750811
0.00989382689120248
0.009908371075289324
0.00994442389230244
0.009982654944760725
0.009997482961043715
0.009980452564777807
0.009951029093936086
0.009931750335963442
0.009930798196000979
0.00995124765438959
0.00998175359563902
0.009989155621733517
0.00996166625060141
0.009933214938500896
0.009932993885595352
0.00994986438541673
0.009968170031206681
0.009984127859352156
0.00998747649602592
0.009986766724614427
0.01001448702183552
0.010068123451201245
0.010102946003898978
0.0100974911369849
0.010080290818586945
0.01008516592090018
0.010108786103082822
0.010117102446965873
0.010086229098960757
0.010039849891327321
0.010022305212914943
0.010029699099250137
0.01002045018482022
0.009988715521758422
0.009967936226166785
0.009977153758518398
0.009998136898502707
0.009994946484221145
0.009960627791006118
0.009929674414452165
0.00991931214928627
0.009907805674010887
0.009888012839946897
0.00987959734397009
0.00989035704289563
0.009904785415856168
0.009907881170511246
0.009913617668207735
0.00994168671546504
0.009968955963850022
0.009965675141429528
0.009954436321277172
0.009969288606662303
0.009999453696655109
0.010014435334596783
0.010003403092268855
0.009978621130576357
0.009964130336884409
0.009968749126419424
0.009976113040465862
0.00997508657281287
0.009969379750546068
0.009961228284519166
0.009956417662324383
0.009968312862329185
0.010001125202979893
0.010048439792590215
0.010102636556839571
0.010145796984434128
0.010160235464572906
0.010154390566749499
0.010144893660908564
0.010132414118852467
0.010110009234631434
0.010081195905804634
0.01006610841723159
0.010074311362113803
0.010092254547635094
0.010112289198441432
0.010129003146430478
0.01012397563434206
0.010100645888596773
0.010092355639208107
0.010109601197764278
0.010124088684096932
0.01011360956239514
0.010087738023139536
0.010065829041413963
0.010054593388922513
0.01005277044372633
0.010060304760700092
0.010070381814148276
0.010066167406039312
0.010045102112926543
0.010029588676989078
0.010032675846014171
0.010040417116833851
0.010043895855778829
0.01005730741424486
0.010093738610157743
0.010138700044481084
0.010163766628829762
0.010161888774018735
0.010147243964020163
0.01014108224422671
0.010161830172874033
0.010194566664285958
0.010200033956207335
0.010172934104921295
0.010145267033949494
0.01013277048128657
0.010126019931631163
0.010126478064339608
0.010137225274229422
0.010141740377293899
0.010128249968402088
0.010101119051687419
0.01007089696242474
0.010051262252964079
0.01005433711106889
0.010078681303421036
0.010104598436737434
0.01011532081873156
0.010112461968092248
0.010112035260535777
0.010131687499815599
0.010160566415870563
0.010161818164633588
0.010120944377267732
0.010065811085514725
0.010038287490606307
0.010048003275878728
0.010065514721209184
0.010073441363638268
0.010082548974314704
0.010091994906542823
0.010088467966997996
0.010079023373546079
0.010082712249131874
0.010103049477329477
0.010131947383051738
0.01016672390513122
0.010205425249878317
0.010233670870075002
0.010232652281410992
0.010202469275100157
0.01017248404212296
0.010165000734850764
0.010158024843549355
0.01013096993905492
0.010107366604497656
0.010106070695910603
0.010111695152008906
0.010110311824828386
0.010101280487142504
0.010088918164838106
0.010083591840229928
0.010083520548650995
0.010073963780887424
0.010059482649667188
0.010054839591030032
0.01005216708756052
0.010041554741328583
0.010040722879348324
0.01006228212499991
0.010084852497093379
0.010090227436739952
0.010084327207878233
0.0100703513645567
0.010047796028666199
0.010027552162064239
0.010017171842046082
0.010009026016341523
0.009995964082190768
0.009988121296046301
0.010005310031119733
0.01004685245687142
0.01008680135011673
0.01011517049279064
0.010146941454149783
0.010179888693382964
0.010191663050791248
0.010169892102712765
0.01011755662970245
0.010053367774235085
0.010000368324108421
0.009966222209623083
0.009952335697598756
0.009957595593295992
0.009972937372513115
0.009988742806017399
0.009987744565587492
0.009953715773299336
0.00990020454279147
0.009861541086575016
0.009866615335922688
0.00991199237294495
0.009958224965957925
0.009981476919492707
0.00998835990903899
0.009984450672054663
0.009976957534672693
0.009968812379520386
0.009949711265508086
0.009931067869765685
0.0099397957441397
0.00996721358736977
0.00998454658081755
0.00998258352628909
0.00996256259502843
0.009935225007357076
0.009925326411612333
0.009940594021463767
0.009958509636344388
0.009957574023865164
0.009937293708790094
0.009907345970859752
0.009881484979996458
0.009869140046648682
0.009857967753196134
0.009832344931783154
0.009807712349575013
0.009808383962372318
0.009818761977367103
0.009802439238410444
0.009760011079488323
0.00972480772412382
0.00971979107009247
0.009742665636586025
0.009773229752900079
0.009789870983222499
0.009789788157213479
0.009793057915521786
0.009815013386541978
0.009837771939346566
0.009831809280440211
0.009805853951256722
0.009802559324307368
0.009829445563955232
0.009848647711332887
0.009850303799612447
0.00985946915927343
0.009878626259742306
0.00989159313379787
0.009894506961572916
0.00988362507428974
0.009850658477516845
0.00980601564864628
0.009762536684283986
0.009729470583843068
0.009715864298632368
0.009728457091841846
0.009751909943297506
0.009759057858027519
0.009743138991761952
0.009730365396244452
0.009746140325441957
0.009775785447563976
0.00978950010263361
0.009789819699944928
0.009792610667645932
0.009788029961055145
0.00976385134505108
0.009735295762075111
0.009716140517266467
0.009693991781678051
0.009655487922718748
0.009608284048736095
0.009573018363444135
0.00956369900610298
0.009579769839765504
0.009614738237578422
0.009655617704847828
0.009689425930846483
0.009712044806219637
0.009715269629377871
0.009702183965127915
0.009695748601807282
0.00969667814555578
0.009693318066420034
0.009696916110115125
0.009701267330674454
0.00967764996108599
0.009640797631582244
0.00963416177779436
0.009663615094032138
0.00970604105037637
0.009743730446789414
0.00976480962242931
0.009762070541037247
0.009736868572654203
0.009705686576198786
0.00970108392997645
0.009733788806479425
0.009765199514804408
0.009761432466330006
0.00974372967844829
0.009741421777289361
0.009737960484344513
0.009703867480857298
0.009649662139127031
0.0096122565085534
0.009607458238024265
0.009620383800938725
0.009629520172020421
0.009627064075320959
0.009624866052763536
0.009636356757255271
0.009652828730177134
0.009661895170575007
0.009675553543493151
0.009697478218004107
0.009697413417743519
0.009669201080687344
0.00965288506471552
0.009668114548549055
0.009690745240077377
0.009695956205250695
0.00968447599792853
0.009666859266581014
0.009649157600942999
0.009642864258494229
0.009657684591365978
0.009679532245500014
0.009679455487057566
0.009651910207467154
0.009625804848037661
0.009625055859796703
0.009646438261261209
0.009675501255551354
0.00969541194033809
0.009695840968051926
0.009685388165526092
0.009678865163587035
0.009677282809279859
0.00967902060248889
0.00969129801960662
0.00970879837870598
0.00971225743414834
0.009699405862484127
0.009686047347495333
0.009673263382865116
0.009637234383262694
0.009571043510222808
0.009515270363772288
0.009506566527998075
0.009527522732969373
0.009549909454071893
0.009572870929259807
0.009584384128684178
0.009559440688462928
0.00951063379761763
0.009471964128315448
0.00945794335217215
0.009470471877139062
0.009496372693683952
0.009506343244574965
0.009489260081900285
0.009466559098800644
0.009460889414185658
0.009469131189398468
0.009479190967977048
0.009488935066619887
0.009490631876979023
0.00947166619123891
0.009445301056839526
0.009435153497615829
0.009430966046638787
0.009414083065930754
0.009395670185331256
0.009391257524257526
0.00940263777738437
0.00942522705066949
0.009450031805317848
0.009473342531127854
0.009496921398676932
0.009514133408665658
0.009512778203934431
0.00949214153108187
0.009463819736847654
0.009437155917985364
0.009420423632254824
0.009428947017295287
0.00946816969430074
0.009517303296597675
0.00955219190567732
0.009571483039762825
0.009587448430247605
0.009605350762140006
0.009616051011253148
0.009612694485113024
0.0096095566439908
0.009617447550408543
0.009622769036795945
0.00961987687041983
0.00961781949386932
0.009613546972395852
0.009602918877499178
0.009592768256552517
0.009591971208574251
0.009601646164664999
0.0096098083560355
0.009616080762352795
0.009636133239837363
0.009660452245734632
0.009660030375234782
0.009632383059943095
0.009602686489233746
0.009594315458089113
0.009611136971507221
0.00963698921375908
0.00965304976562038
0.009655226496979594
0.009653677741298453
0.009660545972874388
0.00967624074080959
0.009688942458014936
0.009690155766438693
0.009688976521138102
0.009705668817041442
0.009739916742546484
0.009756215430097654
0.00973289621877484
0.009711083578877152
0.009737105478998274
0.009778641351731494
0.009776434280211107
0.009746756383683532
0.009746621609665454
0.009774353770771994
0.009785065989708528
0.00976780329598114
0.00974671974312514
0.009736368245212361
0.009733411801280454
0.00973515086225234
0.009735290721291676
0.009717926057055593
0.009690473802620544
0.009688454546267166
0.009722253722138703
0.009757387909339742
0.009755537633318455
0.009714829470030963
0.009668756241444499
0.009655484842369333
0.009686166639439761
0.009734466823283583
0.009778237529098987
0.009814403257332743
0.009838249841704965
0.009832377742277458
0.009803996453993023
0.009788427512394265
0.00980041132424958
0.009806382430251687
0.009776686502154916
0.009743395834229887
0.009752264447743074
0.00978448421577923
0.0097925199160818
0.0097818895871751
0.009792909728130326
0.009834179596509784
0.009878176853526384
0.009903445915551857
0.009918629142921418
0.009938275162130594
0.009949358179001137
0.009931823993101717
0.009897516027558595
0.00986993154976517
0.009845208349870517
0.009804515518480912
0.009754942676518113
0.009735162977594882
0.009758040421875194
0.009782284102402627
0.009777946621179581
0.009764857935952023
0.0097723731957376
0.009804792886134237
0.00983856811420992
0.00984432531753555
0.009817227794555947
0.009779221678618341
0.00975418216199614
0.009749381869332864
0.009758002823218703
0.0097719378140755
0.009789520722115412
0.009803854046622292
0.00979967241641134
0.009781865640543402
0.009776102100731805
0.009791825620923192
0.009815874274354429
0.009832302900031209
0.009834276125766338
0.009828737364150584
0.009823546222178266
0.009816272818716243
0.009809766417602077
0.009806891346815973
0.009789780803257599
0.009753538323566317
0.009729957329109312
0.009733818081440405
0.009743085806258022
0.009744148626923561
0.009737270327750593
0.009731031061382964
0.009747879396891222
0.00978269150480628
0.00980212799855508
0.009803769640857354
0.009809742578072473
0.009822562882909551
0.009828425261657685
0.009826873686397447
0.009828253546729684
0.009825709249125793
0.009810210240539163
0.009797585302731022
0.009807257291395217
0.009834013765212148
0.009853984366636724
0.009856244362890721
0.009851232734508813
0.009848726850468665
0.009851086960406975
0.009855318560730665
0.009854809613898396
0.009845246039330959
0.0098269420908764
0.009805934288306162
0.009785201393533498
0.009759541515959426
0.009729767796816304
0.009709937109146267
0.009711968483170495
0.00972843037219718
0.009743902788031847
0.009754271542187781
0.009763933070935309
0.009777875045547262
0.009794749775901437
0.009807255582418293
0.009814493175363169
0.00982782565522939
0.009856310853501781
0.00988877423806116
0.009909847666276618
0.00991993973380886
0.009924990343861281
0.00993288736557588
0.009952983710682019
0.009975441406713798
0.009975383112905547
0.009956910737091675
0.009951354895019904
0.009962503383867442
0.009966625974047929
0.009960400281706826
0.009966229754500091
0.009990846734726801
0.010011392100714146
0.010014509245520458
0.010007899086922407
0.009996105845784769
0.009982811574591324
0.009979597225319594
0.009998381430050359
0.010036760800285266
0.010070549383526669
0.010073196874000132
0.010049176474567503
0.010035952922189608
0.01005325468024239
0.010076641214545816
0.010084422081708908
0.010084972290787846
0.0100860738044139
0.010084310608217493
0.010081348362145946
0.010076484783785417
0.01006115325842984
0.010035462515661493
0.010010339175350965
0.009994416938861833
0.009988448683870957
0.009984616617439315
0.0099729178880807
0.00995888811768964
0.009952814744319766
0.009944932267535478
0.009929640754126012
0.009920199373736978
0.009914637287147343
0.0099036546878051
0.009906920586945488
0.00993503098958172
0.009950532017974183
0.009934404689120128
0.009924166823038831
0.009940357712330296
0.009957714522024617
0.009953862662659957
0.009930438427254558
0.009899439153959974
0.009869132165331394
0.009846415696665644
0.009840658007888123
0.009850027835927904
0.009855185503838584
0.009842407413525506
0.009828718471108005
0.009840889263432472
0.00987625214504078
0.009906286724144594
0.0099096266948618
0.009894495878834278
0.009883568740915507
0.009880254990421236
0.009873287967639043
0.00986577782779932
0.009870997791877016
0.009881821292219683
0.009876100851688534
0.00985719153075479
0.009852546473266556
0.009871165031800046
0.009893955995794386
0.009904797982890158
0.009907342146616429
0.009909132935572416
0.009910244384082034
0.00990728966658935
0.009897458765190095
0.009882139477413147
0.009865455029066652
0.00986260112724267
0.009899743007263168
0.009972497775452211
0.01003942710114643
0.010072838737396523
0.010075462245149538
0.010062504281522706
0.010046343413414434
0.010024013636866584
0.009992173532955348
0.009967273946385831
0.009963058981811627
0.009965421403758229
0.009954622789518908
0.00994052037014626
0.009947882684646175
0.009965421842643991
0.009948238398646937
0.00988983979448676
0.00984747956506908
0.009861827607965097
0.00989715007483028
0.009901236749719829
0.009878791538067162
0.009861590035725384
0.00985028370982036
0.009837408288149163
0.009842066636774689
0.009873846784466877
0.009905711199389771
0.009913078382378444
0.00991329736658372
0.009944422077387572
0.010004139663651586
0.010038988364394754
0.01001775025506504
0.009975111688254401
0.009957811529748142
0.009968209508806468
0.009975515964906662
0.009962144362507388
0.009942483995109797
0.00993115599732846
0.009913884359411896
0.00988052596570924
0.009857643869472667
0.009825896283145993
0.00983405306818895
0.009850137614412233
0.009862770675681531
0.009890946653904394
0.00993038954678923
0.009947310148272664
0.009931553197093308
0.009911516905995087
0.009906808944651856
0.00990926823229529
0.009913002555258572
0.009922407156554982
0.009938721576472744
0.009955950559815392
0.009962896762881429
0.00995914630475454
0.00995922864181921
0.009965824290411547
0.009965957747772336
0.009961611949838698
0.009968176283873618
0.009986891070147975
0.010009261416271328
0.010021332248579711
0.010006728626322
0.009980089452583343
0.00997110604774207
0.009970848225057125
0.00995545138255693
0.009933921492192894
0.009922841801308096
0.009909620432881638
0.009880501464940607
0.00985606441507116
0.009858094931114465
0.009869008976966142
0.009860659776022658
0.009838409516960382
0.009830206910846755
0.00983695633127354
0.009829197957878932
0.009802397969178856
0.0097833220846951
0.009786180172814057
0.009799383875215426
0.009803894475335256
0.009802267025224864
0.009816251369193197
0.009847133432049304
0.009875429380917922
0.009895225502550602
0.009912502147490159
0.009922522557899357
0.009918504589004442
0.009915464291116222
0.00993700657854788
0.009977455594344065
0.010005849814042449
0.0100048806425184
0.00998438487527892
0.009969038455747068
0.009973120520589874
0.009986082445830107
0.00999892606632784
0.010014425551053136
0.010021164317149668
0.010007940344512462
0.009992571376496926
0.009990549712674691
0.009996737857582047
0.010009828875772654
0.010017752966377884
0.010001835168804974
0.00998223245376721
0.00998751856153831
0.010003479780862108
0.010004209007602185
0.009994955072179436
0.009998539392836393
0.010017968436004594
0.010036518059205263
0.010045393966138363
0.010041612847708166
0.010015033334493637
0.009964248818578198
0.009909860778134317
0.009878350318176672
0.009881905796937644
0.009910650566453114
0.009940416528843343
0.00995539294439368
0.009960504783084616
0.009965012924512849
0.009962496054358781
0.0099499839625787
0.009943740876624361
0.009946548407897353
0.00994852400617674
0.009959753445582465
0.00998702357406728
0.010006532251136378
0.009998271437361837
0.009980237310519441
0.009982409444637597
0.010008393046446145
0.010034959506010637
0.01004154660156928
0.01004099530284293
0.010053867935203015
0.010068783308379353
0.010075186679605394
0.010075246044434607
0.010048101394204423
0.00998643334605731
0.009934024291578681
0.009922016534255817
0.009925142814172432
0.009920601405901834
0.009927703003631905
0.009958065003156663
0.009989108562003822
0.010009177325991913
0.01003489808179438
0.010071545402752236
0.010097638263832778
0.010100676860893144
0.010100511481286958
0.010113370486069471
0.01011542379972525
0.01008195550297387
0.010029015270993114
0.009980627390323207
0.009936884242342785
0.009896537178428843
0.00987947530578822
0.009898202939657494
0.009932948448695243
0.009965778730111197
0.009989434404997156
0.009987672243732959
0.009966410537017509
0.009957135224249214
0.009970338919665665
0.009988598730415106
0.009993518873816356
0.009987135723931714
0.009984855484217405
0.00998815817059949
0.009989707113709301
0.010003304729470983
0.010042739741038531
0.010081862332299352
0.010092193221207708
0.010082497954135761
0.010065083956578746
0.010036496877437457
0.0099988516618032
0.009968276725849136
0.009960226592374966
0.009965637237764896
0.00996006821282208
0.009947897417005152
0.009951899739680812
0.009963027156190947
0.00996286685578525
0.009966832763748244
0.009995102238608524
0.010035127953160554
0.010058556211879477
0.01006157130235806
0.01007239640224725
0.010107187485555186
0.010136427517281846
0.010126786514883862
0.01009599587530829
0.010086311417398974
0.010107218666234985
0.01013656026800163
0.010155164595926181
0.010156393592478708
0.010138746621087193
0.010111318262061105
0.01009324872167781
0.010088688881369308
0.010073865678859874
0.010026383601361885
0.009966777027584613
0.009945958488387988
0.009979371459921822
0.010027871426427738
0.010045952522195875
0.010021242474904284
0.009981776358326897
0.00996898500015959
0.009989164784783497
0.010013586253626272
0.01003795143449679
0.010079228304093704
0.01011379696545191
0.010148172145709395
0.010134966992773116
0.010117082927608862
0.010106473363703117
0.010091184807242826
0.010082530520157888
0.010093179895775392
0.010107738402439281
0.010097156707197429
0.01006269763223827
0.010044856143649668
0.010058074995176866
0.010070474667008967
0.01006600280641578
0.01005536503624171
0.010038395600859076
0.010016513371374458
0.010012236792827025
0.010026401480427011
0.010023893264587969
0.009997436369303614
0.009975596960866823
0.009959142029983922
0.009931580560514703
0.00991561834118329
0.009940028378041461
0.0099839127343148
0.010011496673105285
0.010022445115027949
0.010035758471349254
0.010055136878509074
0.010073087943019345
0.010093467294937
0.010123236411018297
0.010147476198617368
0.010141003906028345
0.0101092885422986
0.01008799857692793
0.01008738567819819
0.010079816038487479
0.010060136980609969
0.010055379335535691
0.010063281812472269
0.010054485702421517
0.010028839848237112
0.010012142808409407
0.01001780343358405
0.010033473508665338
0.010036547346971928
0.010029750985559076
0.010040486191865056
0.010070316063938663
0.010088039195397868
0.010077825317857787
0.010055747996084392
0.01004560528555885
0.010053035741439089
0.010059388354420662
0.010051433403277769
0.010045956660760566
0.010049065822968259
0.010023768701357768
0.00997867764905095
0.009917471362277865
0.009887420843588188
0.009868340627290308
0.009854813823476433
0.00986403385992162
0.009889759019715711
0.00991289394092746
0.009930169566068799
0.009949003031942993
0.009981738746864722
0.010034997498150915
0.010093113069888204
0.010138972704298794
0.010179071258753537
0.010219614491797984
0.01024664930650033
0.010250414486508817
0.010239843702875078
0.010224064933136106
0.010199468620121478
0.010164004799444229
0.010141750873299316
0.010137219041353092
0.0101516817859374
0.010157994345063344
0.010141222953097894
0.010114226345904172
0.010090209353948013
0.010064394006039947
0.010030824859859422
0.009993143039755523
0.009968901006504893
0.00997219373122789
0.009984374548075721
0.00998097040108405
0.0099657058424782
0.009948085445212201
0.00992594601935707
0.009904054224025459
0.009896545414812863
0.00990914786583744
0.009937347696395591
0.009967070807470009
0.009985806432086974
0.010002767910482362
0.01002307865419425
0.010027196040609851
0.010010455088922754
0.009993916724342853
0.009986584678990766
0.009979511701967567
0.00997355167171918
0.00998477210989222
0.010015117038274185
0.010039173505501821
0.010033969394862651
0.010010279753478244
0.010000524283386767
0.010012180907651783
0.010017358493059873
0.009997400380671024
0.009966334248892962
0.009945000786101445
0.0099343095428776
0.00992676904774271
0.009935102590825409
0.009973377618007363
0.010017951196059584
0.010033545932965354
0.010026991023914888
0.010039288998814299
0.010084837742615491
0.010126657413784414
0.010125233554281294
0.010081869366113097
0.010025006835348904
0.009990140256704763
0.0099961782398168
0.01001912787440233
0.010026450866134837
0.010013345968909562
0.009991343178553507
0.009979653741465882
0.009980339315952734
0.009968420419609174
0.00993699264130555
0.00991160475066863
0.00991015534149483
0.009920835352968425
0.009919570914935321
0.009900619683321565
0.009880913938395679
0.009869162648683413
0.009861440579406917
0.009861811257433146
0.009873840144136921
0.009886562002357095
0.009884496900485828
0.009867670809617266
0.009844266526633873
0.009812967821490019
0.009779528863728047
0.009750770260579885
0.009706579812336713
0.009633999778889119
0.009568484560586512
0.009552952618105338
0.009576873878249898
0.009599757445976138
0.009616273207357154
0.009651981907663866
0.00971318363561295
0.009784430551808327
0.009857973095495253
0.00992742539034225
0.009976316549582406
0.010006444931495934
0.010044690405484289
0.01010494097135961
0.010168426111340523
0.010203249519690871
0.010207155103562399
0.01021569782285951
0.010242627772968263
0.010251354378415272
0.010212535306345671
0.010149710671976208
0.010100929128238931
0.010072977879317477
0.010057677166769282
0.010049003461608664
0.010033960005966947
0.010002659340389073
0.00996492123347707
0.009935563475592062
0.009913707784144209
0.009894801347982138
0.009879726467188448
0.009861814097966999
0.009840005337027833
0.00982989184325561
0.009830718847224489
0.009819445254979655
0.009783308232435957
0.009739774852059782
0.009781968367751687
0.00988606616272591
0.009966082458849996
0.009979067218955607
0.009949110941961407
0.009922672860557213
0.009938949467614294
0.009988543823128566
0.009997189865680411
0.010005483303684741
0.010053491587750613
0.01011128194630146
0.010147992506390438
0.01016893737250939
0.010226935576647521
0.010341993699548767
0.010469813710078596
0.010566804831614717
0.010633546349126846
0.01071416273713112
0.01087365168146789
0.011128878695890307
0.011421984743792564
0.011706552666146309
0.012006615905556827
0.012357843777863309
0.012724593076854944
0.012995112485950812
0.013070409077918156
0.013114477063063533
0.013207321903901175
0.013271049247123301
0.013309507243102417
0.013323702549096197
0.013285957148764283
0.01325893591158092
0.013279824956553056
0.013414972401224077
0.013579475594451652
0.013671504532685503
0.013676215095911175
0.013631518143229186
0.013573199629317969
0.013512997317593544
0.013450441475724802
0.013419917239807545
0.013416637772461399
0.013399348693201318
0.013357407846488058
0.013315253233304247
0.013289416456827893
0.013291473200079054
0.013323598683346063
0.013404123088112101
0.013515239839907735
0.013644999866373837
0.01371369858039543
0.013713997877202929
0.013673392633209006
0.013614066275767982
0.013575868472689762
0.013566293666372076
0.013579502734355629
0.013613431323319674
0.013641094102058559
0.01361907648621127
0.013540738541632891
0.013443825712893159
0.01336701941327192
0.013322518948698417
0.013305134234251455
0.013309406820917502
0.013333300178637729
0.013370804678415879
0.01342004771460779
0.013491170874331146
0.013567157994257286
0.013621591959381476
0.013627545195631682
0.01361470132600516
0.013608480943366886
0.013582915258593857
0.013600866735214368
0.01372668998898007
0.013928771995706484
0.014151345529826357
0.014404652926605194
0.014725039573386311
0.015078016052721068
0.015391224381746725
0.01560388513491489
0.015645096603548153
0.01575000850483775
0.01606931343325414
0.0165414123411756
0.01710631622816436
0.017716295509599148
0.018320938390679657
0.018875430412590502
0.019368999416474252
0.019820447352249176
0.020226171432295815
0.020541532444767654
0.020707945794565603
0.020682236138964073
0.020898793648229913
0.021256903561297804
0.0215899839787744
0.021857156082987786
0.022101798766525464
0.0223042505630292
0.02238661174662411
0.022350422095041723
0.022424687820021064
0.02260632104589604
0.02285209879744798
0.02305066045722924
0.02310995481093414
0.023156348323682324
0.023484765968751164
0.024059590052347632
0.024645895938156172
0.02505215187324211
0.02527971285628155
0.025353271496715023
0.025399790790397673
0.025708452557446436
0.02626032133353874
0.02695912544266321
0.027731743982294575
0.0285279713338241
0.029273924210574478
0.029926915507530794
0.030521846999181434
0.031059946918394418
0.031429849499836564
0.03152974149794318
0.03159047087887302
0.03186757984338328
0.03242744033224881
0.03328170717228204
0.03422845783876255
0.035008752946741876
0.03554860269301571
0.035921028254088015
0.0361400062777102
0.03613758599385619
0.03627115359995514
0.03656464025727473
0.03692828103317879
0.03723658662638627
0.037423068032367154
0.037529545065481215
0.03761645779013634
0.03765526770963334
0.03775986549211666
0.038181266587926074
0.03877201778930612
0.03930711611523293
0.039738712450489405
0.040039272411959245
0.04008449400309473
0.04015997261740267
0.04035105975344777
0.040508934021927415
0.04049482534173876
0.0405673491593916
0.040860050801420585
0.04103151182178408
0.04104833474266343
0.0414178751653526
0.041825622719479726
0.042157711818581446
0.04246665518498048
0.042681207985151556
0.04276094857836142
0.04296087157912552
0.043540225703036416
0.0444219788571354
0.045413347559515385
0.04649272032198496
0.047687263482948765
0.04882149666897021
0.049511291206581515
0.04957461047451943
0.050595936758909374
0.05245169007452205
0.054610563579481096
0.056352342395111915
0.05736235345248133
0.05785723412642255
0.05808050916646607
0.05813200189033523
0.058727287222864105
0.05984203608939424
0.06126476926030591
0.06286940957186743
0.06466874353121967
0.06662078694906086
0.06852365694590844
0.07008830925566144
0.07126500942744314
0.07214150017709471
0.07271270801662467
0.07289946992881596
0.07300498160067946
0.07325844623264857
0.0735682367021218
0.07394457574468107
0.0742836560960859
0.0746643229178153
0.0753649768361356
0.07645456764148548
0.07770654307212681
0.07891261005890556
0.08008892913116142
0.08128083797520957
0.08243976290221326
0.08359092222061008
0.08484423468704336
0.08615216369973495
0.0872577386267949
0.08798438885947689
0.08840334661887027
0.08861379544832744
0.08872176059521734
0.08918050922453404
0.09048475337214767
0.09228696304606274
0.09337690767948516
0.09334094483172521
0.09428502778755501
0.09565565332886763
0.09719338718452492
0.09893636564724147
0.10081059052958154
0.10264761563157662
0.10419103604042902
0.10545449457131326
0.10678941978723742
0.10854500636924058
0.11065822315285914
0.11276772615499794
0.11464796089334413
0.11637155572418123
0.1180474451300688
0.11962974694906733
0.12101768246735446
0.12223891085595824
0.12331796085578389
0.1240779335598927
0.12428893537842668
0.12449380984180607
0.1251336896372959
0.12607258602743968
0.12717798120807855
0.12841969356057234
0.1298603807471227
0.13145847512292674
0.13301509998273103
0.13432683045510202
0.13532645989209413
0.13604462307528592
0.1366024746117182
0.1371479492506478
0.13773899482446722
0.13834640972781925
0.13890677908435464
0.13938227246631868
0.13989474527421408
0.14068464528769253
0.14181100333575158
0.14309124761843123
0.14435436742380262
0.1455086846940685
0.14641024608747102
0.1468784877494909
0.14686961116385647
0.14709477900527418
0.1473990340612363
0.1478009538608603
0.1484322750067804
0.14890423640725203
0.14876273560686967
0.14865917859366162
0.14885223965044134
0.14971328237093984
0.1509225185669493
0.1523989321955014
0.15416587563813663
0.15607845342252402
0.15802697865525261
0.1597580556664616
0.16108392901718616
0.16191048319800758
0.16220715899951757
0.16209907893440686
0.16169281593058257
0.16119083781843074
0.1611731178034097
0.161350269659888
0.16152544306474736
0.16177678987733088
0.16218178621842527
0.16265897665871307
0.1627107376314234
0.1625461056944914
0.1624376992636826
0.1624052483635023
0.16236569517175667
0.1623960682877805
0.1626586364430841
0.16314000408514404
0.1635798695788253
0.16418363743578085
0.16539542887359857
0.16741077098995447
0.1697899689048063
0.1717419994669035
0.172790669684764
0.17316041891463102
0.17316619551973417
0.17283962884219364
0.17320317085599526
0.17442461338010617
0.1759031222667545
0.17691691352054476
0.17738606984028593
0.17737757686176336
0.17686995676369408
0.17609798425575718
0.17549936606199482
0.17507124255644158
0.17492385292192922
0.1748929989291355
0.17467461102525703
0.17492287026485429
0.1759365592279937
0.17747704072040504
0.17908555659349076
0.18027336772880517
0.18130151265882888
0.18269117103889584
0.184321782955667
0.18575824709958397
0.18698238430544734
0.1882026841479819
0.18909047174733132
0.18965450776042417
0.1900000813230872
0.19017765269847586
0.19012040381901898
0.19035224384628235
0.19119963662000372
0.1922708916326519
0.19305219161324202
0.19346983086434194
0.19407760268775745
0.1950295550201554
0.19594388447934763
0.19671600281377322
0.19771978884702548
0.19883380869519895
0.1997949275712017
0.20046677802922205
0.2009817793779075
0.2013564674463123
0.20159628084744327
0.20182281450368464
0.20184661566047
0.20139175950898788
0.20139755375217647
0.202451377233956
0.20437159251072445
0.2066974774491973
0.20908887916128152
0.2111383666296024
0.21227480057510548
0.21211222370387986
0.21140437737456522
0.21136374298366717
0.21178804401424714
0.21279511379310861
0.21457976914360188
0.2171702964277938
0.2188604580052197
0.21959164406638593
0.2197571870207321
0.21987446392769924
0.2199659210909158
0.21983863447559998
0.2197353387833573
0.22002881475375033
0.22006465945625678
0.2197078041906934
0.21909312822041102
0.21831509526702575
0.21731180238421074
0.2161199899716303
0.21485446138656697
0.21350749191828072
0.21234029067330995
0.21162470281589776
0.21118285869713874
0.21112267263815737
0.2111536131007597
0.21105793302413076
0.2111087083874736
0.2114016633387655
0.21179332394734957
0.21209493133588694
0.21218448339845053
0.21200379679445178
0.21159061319427563
0.21104453819571062
0.21046990803442894
0.2100738797953818
0.2102097812073771
0.21099972746218554
0.2119231874169782
0.21223916602437384
0.21181274281814694
0.21101752202841453
0.21046780593926087
0.21042825006996282
0.2105988714308478
0.21059586806804872
0.21037749005598017
0.21071823432226666
0.2125882433692459
0.21586290337494574
0.21797033512149938
0.21905338447075337
0.21927920933812856
0.21878585283528082
0.21764856664696708
0.21601222227560357
0.21442156406701543
0.21334263873635792
0.21257593810907566
0.2118415820726659
0.21134025319712235
0.2116803876159247
0.21293380774906837
0.21430390595574864
0.21499381346744484
0.21495609136414714
0.21464843998313882
0.21454467450501397
0.2151548450824339
0.2169291659560986
0.21951926404377445
0.2211924830067437
0.22093370692571626
0.2204459843877703
0.2204842476581689
0.22140973954927176
0.22342972636921332
0.22627062235376796
0.22959595125867055
0.23321231215260924
0.2369003114872612
0.24020337076624856
0.24243538269773127
0.24313162222388202
0.24248076264047996
0.2427028590696864
0.24336619754787533
0.24418029995635152
0.24481536495732142
0.2449255607649684
0.24445811369107104
0.24361129825701938
0.24253483784617857
0.24143423356581478
0.24072130323853344
0.24069029976497405
0.24129704101243987
0.24182449100539088
0.24248647773289123
0.243165504100034
0.24356692718924022
0.24395644943229855
0.2448088588693645
0.24561704118619673
0.24625829971744678
0.2463739081309177
0.24615501470863818
0.24544731962610966
0.2440452420222573
0.24222771494532935
0.2404255193436984
0.23868604038376362
0.23709527284256182
0.2359746364050079
0.2351323099003639
0.23472781991702504
0.2347119779640343
0.2347661862662062
0.2342528079042677
0.23368485290557145
0.23326387893059292
0.23274385184980928
0.23238278617500327
0.2322190071316436
0.2320592393761035
0.23269623584114016
0.23388066005893052
0.23544464230304585
0.2372938057477586
0.23912028154707513
0.240591428038897
0.24175612856284714
0.24285844642785379
0.24375320904888212
0.24382156400824898
0.2426446343655698
0.2404731629032176
0.23913570631644687
0.23944624228985048
0.2406101936660707
0.2417670870909933
0.24286461294512265
0.24309659788035787
0.24236488304217346
0.24103814371395857
0.23982936417334713
0.23928683971753345
0.23919553538551555
0.23944280542666094
0.23979743089876138
0.2397433018370066
0.2398933870194014
0.24028741955640726
0.2406784234661609
0.2411234555300325
0.24093910999014043
0.2401488380052615
0.23930296940729023
0.23870399754261598
0.2383492308179848
0.23776138815213926
0.23674896745709703
0.23573244904284366
0.23493975119199603
0.23403670005267485
0.23282314208801835
0.23239156242576428
0.23263785791583358
0.23333094451343642
0.2342688364663627
0.23542471042601393
0.23615783663815818
0.23604296165984123
0.23552966782008297
0.23508231858257203
0.23455313859623858
0.23355893513187767
0.23229378102812917
0.23143498896621167
0.23131672932417133
0.2316421885753516
0.2320408769987989
0.23262544653262013
0.23381337565835567
0.23567482669255696
0.23766051929676904
0.2389684248913545
0.23907952096313237
0.2399160628230311
0.24237062091822736
0.24548491982277482
0.24827144971350207
0.25024147038464434
0.25150335079291836
0.2522615166089963
0.25262487027212044
0.2529039159079548
0.25347385650500653
0.25377931872499176
0.2529650665493682
0.2514874879817944
0.2493799817643594
0.2472979237837717
0.245181704176357
0.24281606297357938
0.24032633639522827
0.2381628020410426
0.23697911751107312
0.23720299354870802
0.23848423183197157
0.24001177246682345
0.24131549650221132
0.24234074855223298
0.2430189300328493
0.24329718750086612
0.24333883781335316
0.24321344369789585
0.24278356200782583
0.24227589554153384
0.24223936891532502
0.24233607190428302
0.24240228233742528
0.24321487901732325
0.24426879818551242
0.24514162798179315
0.24595014095306397
0.24674159525195136
0.24728549209074116
0.24754827023134568
0.24769391854759307
0.24767185755772517
0.2471900074207224
0.24648932304349727
0.246410075413296
0.24626056826906279
0.2454726249864325
0.24413776540081017
0.24218037366634235
0.2399409975844901
0.23824129846761935
0.23747981299296952
0.23754064490320162
0.23780564271612092
0.23774537788820452
0.2373208259488456
0.23651394114713184
0.2351396666141227
0.233048815097427
0.23042388730449603
0.22770127289695666
0.22529494647751563
0.2234924663952552
0.22236844219267368
0.2218427437590435
0.22190699203754774
0.22255093895480968
0.22331572434050032
0.223537349763792
0.22293775995378382
0.22217807379318402
0.2211712333781179
0.219465183125576
0.21692293933127074
0.21388770741410554
0.21216370684094726
0.21167332394164987
0.21149742180015893
0.21080743834958413
0.2091077638801653
0.20692771306610666
0.20504062383784913
0.2046026953915134
0.20591096961055882
0.20713509407592937
0.20755594666465185
0.20682299230829812
0.2046058552491013
0.20110982151934878
0.19667865192866885
0.1919767089979723
0.18813506874488667
0.1851559688744601
0.1832552860258147
0.1827059810026549
0.18329839664511383
0.1827857268950902
0.18158925133408046
0.18077503497828729
0.18044337537139654
0.1804603642609436
0.1805794681108091
0.18065274986089208
0.18063249017926863
0.18073169284150936
0.1812944603082724
0.18229740272741765
0.18373746204772032
0.18532121583935804
0.1865899278561119
0.1872427895781584
0.18713938311790115
0.1862888016726356
0.18648072847281583
0.18731373782851735
0.18822195609216577
0.18879071351024324
0.18899586045532488
0.1891111442516558
0.18933815445634536
0.1895773000153713
0.18959558362956158
0.1896045770426281
0.18996404903009534
0.19017772177699954
0.190383524565259
0.1905451185966376
0.1907269501418341
0.19078248247504234
0.1910202603403013
0.19151612483081407
0.19199040586128832
0.19251217988203279
0.19273997765849343
0.19273902537883258
0.1927995628933422
0.19209681308246218
0.19074485458200796
0.18921065136208198
0.18833139653201214
0.18833147592144087
0.18872959503438325
0.18874203457613475
0.18788510322687216
0.18617063806275838
0.18541563556645996
0.18578338691382668
0.18727781411609612
0.1884920925681945
0.18861877703224308
0.18808891548076645
0.18754691267502493
0.18720508407684974
0.18687395425396972
0.18631408607354388
0.18671173574985006
0.18786209473968485
0.18899228076217697
0.18980366330011747
0.1900755221687723
0.18979559678584337
0.19002507983590478
0.1901432039611973
0.18970121857360936
0.1890168667922262
0.18855244389269502
0.1885998540755827
0.18871658558608032
0.188303261725232
0.1872458049922716
0.1858362241485156
0.18442686665919608
0.18350614176830277
0.18272931692772545
0.18217304440564475
0.18237915253150278
0.18354394179885275
0.18418367997161111
0.1838700824743137
0.1827369858592283
0.18132989084231668
0.1804393262567464
0.18022133356076664
0.18057019911473618
0.18115083130891435
0.18169320226996205
0.18213043513940647
0.18239583555725403
0.18216852074023338
0.18238740144646726
0.1828585958678741
0.18311485514859668
0.18280877450015395
0.1818368540261872
0.18010725663858465
0.17770997558487578
0.17560829510563053
0.17430699012125841
0.17429085860261695
0.17375621664803476
0.1717575138702523
0.16880714991944842
0.16528855786891655
0.16156428210088053
0.15804301096941345
0.15501620520139114
0.15250392233021556
0.15052441552979873
0.14936137175071054
0.14902462280006148
0.1489403213968035
0.14885542331961915
0.1491432074131444
0.14938457988435402
0.1494218197034206
0.14939015261712485
0.14953285407740624
0.1497367508010939
0.14947486902587115
0.14835548821138217
0.1468042796035297
0.1454878620011732
0.1442036520561669
0.14283988051000052
0.14167547324905172
0.1409356813074555
0.14055053771473466
0.14055058951256796
0.14100327634019777
0.14148815253865904
0.14150395964854398
0.14132705811643972
0.1410010047792457
0.14003185987123287
0.13893238003947772
0.13798184255603702
0.13715865308302455
0.13640899238642304
0.1353912651212886
0.13486419854918494
0.1351448808424175
0.13578150314395315
0.136519956944976
0.13669608691358007
0.13661916665267199
0.13726767664542422
0.13865476071368904
0.140251034864923
0.14179738269769587
0.1431859955447726
0.1444320206833072
0.1456309231487103
0.1465803832875099
0.14700120536610484
0.1469908592279535
0.14686989345005713
0.14682335136341862
0.1468626027868595
0.1467573034646921
0.14646168294595555
0.1460630049125757
0.14548022463801316
0.1448262945539318
0.14430785287404432
0.1436037504905835
0.14325208903406747
0.1432091657212004
0.1434295447601471
0.14416400044225156
0.14558312827954067
0.14668153997859917
0.14713094124221243
0.14713670123717748
0.14707225585356354
0.14735705490224063
0.14696221333462745
0.14619503793888725
0.14561223087250255
0.14537572225555778
0.14538352536037563
0.1451413226861041
0.14426135510089808
0.14290029397467152
0.14155290665919892
0.1401414295716677
0.138724839593051
0.13805088342633098
0.13745516319642775
0.1365126687695738
0.13677624455769546
0.13775793281849474
0.13839776861015707
0.13898016723571346
0.13983855861821212
0.1410759725025855
0.1427152073790785
0.144758500297321
0.14695365881198086
0.14803211263613775
0.147762346182717
0.14710346168954858
0.14731501181726345
0.14853521124692634
0.15074966085259803
0.15316194696351887
0.1547160315839574
0.15532115150243045
0.15513443721341902
0.15412703228415922
0.15233196449815295
0.15071973919519224
0.1500888577243313
0.15039515719166957
0.15012691203854048
0.14966875157668255
0.14906411660020238
0.1482954088691622
0.14755012037348933
0.147036489485763
0.14678560058237053
0.14685997443622908
0.14750348282046616
0.14847675184020773
0.1490102621074766
0.1492774857173208
0.14956132434774191
0.14967378722503782
0.14942948475363665
0.1492415568663273
0.14921951804542913
0.14909135641530155
0.14921343221096323
0.14967750895651988
0.1506463423871901
0.15247315192013047
0.15506434057140722
0.1576575269480236
0.1596023365459405
0.16030184311443008
0.15915829417645
0.15819833232555539
0.15771737629664132
0.15792563659022563
0.15877518949797376
0.1601537587575149
0.16061292124795729
0.160439343478065
0.15979274008772337
0.1587165836780332
0.1573330498940777
0.15586211151676252
0.1546499652392231
0.15388109555467963
0.15340914157335647
0.15349790688254872
0.15330139020457864
0.15278805736801587
0.15233739384799264
0.15287834230577574
0.15500451952917502
0.15810365673038176
0.16031076097046026
0.16119700349634514
0.16090925950556995
0.16168321446632036
0.16346789280185475
0.1658093972329516
0.16856422439799645
0.17180736133363098
0.17541646931436844
0.17876240780227817
0.18107993932324462
0.18152248466270976
0.18156188877881504
0.1819885627378244
0.1820827459776774
0.18162596484879032
0.18102099669747987
0.1806351463298779
0.18038935711141676
0.18057937289355322
0.18036206763819793
0.17963971978635526
0.17907816739170812
0.17875547667965294
0.1787444551801309
0.17903943804209121
0.17948516635457054
0.1800579569209367
0.17958559830556622
0.17816515645827166
0.1766296924802009
0.17536310968920588
0.17492622841731645
0.17562087994068862
0.1768918386439327
0.17752343925996683
0.17746089753229172
0.1771000502561219
0.17682163950637914
0.17651871836162172
0.17593488422571682
0.17568844322464428
0.17583530922420323
0.1761991852079518
0.1766302740201354
0.1769844821689185
0.17697365999687464
0.1771362842048984
0.17715814001392574
0.1773253602674231
0.17817191294278018
0.17944900140631945
0.18017413957160897
0.17977926911320538
0.18031686710077338
0.18138956932001749
0.18261990348459223
0.18422559369006195
0.18634062348515726
0.18852985679288395
0.19011310255853459
0.19080091589828954
0.19058141253772193
0.19114517668145709
0.19159367902437224
0.19166005821782164
0.19171684087021276
0.1920479332888499
0.19245893900282682
0.19250191675731912
0.19291926081757993
0.19370173961506226
0.19445772841689177
0.19502841353532857
0.19538797274348327
0.19546514806686902
0.19537534964852965
0.1956394522928167
0.19541583921061828
0.19426565604982898
0.19289823492290453
0.19197110457345842
0.19170766674447803
0.19148677593446337
0.19095803337171674
0.19008551965584047
0.18900690236012452
0.18809421550948172
0.187341206719866
0.1862933003809303
0.18495796522824093
0.18400694958283567
0.1835703618102707
0.1836614250554703
0.18412700176006183
0.1846961464022752
0.18506279649562202
0.18513351159868763
0.18525566892814824
0.18563597981934435
0.18668512639240362
0.18863548699649982
0.19112987502594478
0.19380595412803814
0.1954318857542239
0.19572800074703992
0.1947870627429802
0.19418911043903792
0.1940095214336179
0.19416476207086816
0.1947733161423821
0.195832616816042
0.19708136207191274
0.19826478688977658
0.1992484274227172
0.19980284171993845
0.19958881989354268
0.20014780615922065
0.20120090764481574
0.20158994449768217
0.20184227559249848
0.20271601267158984
0.2037986521597486
0.20530652582878248
0.20694816106115468
0.20754605149268174
0.20755332338740118
0.20758175802999176
0.2074263673927635
0.20717131456360222
0.20703546199016273
0.20698918255395257
0.2066733679897152
0.20580378284212203
0.20430229787831194
0.20216812734026463
0.20016332268482073
0.19910815215436742
0.1991750113957096
0.1996301374863833
0.19937978656147606
0.19825137174222618
0.19625797459622846
0.193907636848744
0.19170719791785815
0.18975109068327584
0.18803706285892985
0.18680950839770957
0.18641895320848562
0.1868155114259571
0.18761675553862006
0.18879605587688275
0.18977141900686548
0.1901271987124346
0.1898977394006215
0.1892225870513357
0.1887984408135526
0.1889807469700463
0.189355274788104
0.18952195689198562
0.18929715968552047
0.18888552689692006
0.18859235179959796
0.18842094086809083
0.1880965980468318
0.18778757739113644
0.1879675804101862
0.1884191732981708
0.18895051487488673
0.18949983344064095
0.18944946507224814
0.18845785222598352
0.18736266122665257
0.1856188156607095
0.1833334977843333
0.18140283599030227
0.1805099180643447
0.1808396661048755
0.18225621968274935
0.18278683675685897
0.18273760258452967
0.18243888074415737
0.182087232201593
0.18159210672834888
0.18061756468843668
0.17985105977742932
0.18029686882393434
0.18227554425713607
0.1852242957323324
0.18807883810135537
0.1900235444714781
0.19080798324197532
0.19077492784592323
0.19133621841901913
0.192072793408297
0.19289920969633387
0.19370922520989553
0.19393985417787918
0.19303387520485557
0.19115668807993644
0.18905990589177235
0.18781916633364745
0.1882338428532239
0.1882096409040969
0.1876940107520204
0.18662246164283716
0.18455298920162022
0.18126005318714306
0.17720979164238088
0.17370045532938094
0.17170804833294823
0.17149031225475483
0.17161772266728803
0.17123329502763227
0.17068912397604435
0.1699798666429706
0.16984125471441075
0.1704211347969249
0.17166782736429012
0.17267691736342386
0.17339687164290807
0.17369946253253146
0.1731042617186904
0.17241780705633572
0.1717502988339402
0.17118576220353135
0.1709158423228655
0.17108652067021468
0.1716237668308895
0.17232511909562162
0.17256113566923886
0.17280355556169524
0.17341087523847817
0.1735192609357182
0.1729207927151583
0.17192225257633253
0.17219542229897342
0.17309668462490663
0.1738936838787049
0.17471985710086302
0.17608377240248957
0.17742838149773887
0.1786087095423136
0.17966639219317584
0.18057418808690273
0.18134237122256308
0.18203223490621895
0.18177977721439675
0.1819203105836641
0.18222722570993938
0.18202757605118677
0.181368545377627
0.1811490831163246
0.18205213888548313
0.18217443186906165
0.18178225716459565
0.18086214212467894
0.1791198978945613
0.17688880751840771
0.17471952575724572
0.17286797918146476
0.17178117000730708
0.17176818335894495
0.17116208037012257
0.17052801253041253
0.16997856187517754
0.1694807015848346
0.1686685129860416
0.16793554575764574
0.16789759273873642
0.16765876723802647
0.16701132883550598
0.16628800598205998
0.16560196174657904
0.16537688626674935
0.1656858037679922
0.16609500969876534
0.16625749017810448
0.16639087318326345
0.16676951462985015
0.16716312949894926
0.16722739260294475
0.1671719444449991
0.16683703336166217
0.16614177194656804
0.16561477487324738
0.16540133408503607
0.16524387665675022
0.16526413757586852
0.16587533796322532
0.16691692374646663
0.16769680724828503
0.16806656224885955
0.16783737850026229
0.1675076055189129
0.16776244379812852
0.16866767457337117
0.17017522004200145
0.17161305516026915
0.17246999960858375
0.1723004704446066
0.17055529068689793
0.16859199518687093
0.16740749550750478
0.1672948633285705
0.16834704066393896
0.17034797661704942
0.17126302936230786
0.1707566742785275
0.16939204742433503
0.16774797769845462
0.16596824251697398
0.1643311804474797
0.16320667144376785
0.1623659300431609
0.16160065636155196
0.16177491791313514
0.16154832202824765
0.16090008834959008
0.16043514737393708
0.16095591738587245
0.16142823016969488
0.16155548655777238
0.16114782936987468
0.16051743521471507
0.16001011449843644
0.15970540704904124
0.15984950308920814
0.15993174069211818
0.15995067079435102
0.15972041842178442
0.15923675286583602
0.15872244830592536
0.15821438585058786
0.15771001475048252
0.15748446520417927
0.1574478074745275
0.15711477821576408
0.15660493695293554
0.1565757416561246
0.1570086103922222
0.15773536924156362
0.1585406128887553
0.1592533732065931
0.15971852596499958
0.1597619259089697
0.15976420210441575
0.1600607888447121
0.16052033693878912
0.1606241154950112
0.16031643914058805
0.1596475335129071
0.15870987222762778
0.15770007084589452
0.15695849791169167
0.1568540751293767
0.15683669588179328
0.15641420788364485
0.1558724119362887
0.1554214295721613
0.15500489758793265
0.15452903309604152
0.15409755194443278
0.15378469225717709
0.15355422890395856
0.15369263159809635
0.15376744824112393
0.15366808278136887
0.15294498405302875
0.15258263930445537
0.15277927602641284
0.15336862977826968
0.1531238357629627
0.15318511480931193
0.15365833551390096
0.15430725740501658
0.15503205038257875
0.15574473641812803
0.15624436587444507
0.15633687793742865
0.1559629130503163
0.15511653199326247
0.15390813265927136
0.15436291960882953
0.15679199007106945
0.15968953575356865
0.16104646415449678
0.1601122623833362
0.15750537563464603
0.1545627830736339
0.1534101831202861
0.15394392085145228
0.1556440944399219
0.1567107853665948
0.15718929601367562
0.15696860836585982
0.15586027617915532
0.15391652819467708
0.15211653462261893
0.15131762399687432
0.15141216036630795
0.1516343929094728
0.15155152085004375
0.15158356894971803
0.15184463525307365
0.1522295020625461
0.15261936915223487
0.15303873142809607
0.15360638192854822
0.15397372195729986
0.1537167035078164
0.15386799521744252
0.15460453344625422
0.15594778728089295
0.15793156284838916
0.1601301426277496
0.16111946514924058
0.16063789911917412
0.15975061398814433
0.15966260183253325
0.15994566871551796
0.1600563361030072
0.16007148713455535
0.1601874761329964
0.16043530490947888
0.1610776377026923
0.1621703968755901
0.1635097169270739
0.16473715185071341
0.16549294576980172
0.16579429837642237
0.1656221965851728
0.16563024211325683
0.16619954518042504
0.16743150596506895
0.1690976740035694
0.16962909520720132
0.1694566649128683
0.16889561049174517
0.16808105687377975
0.16746451838640497
0.16698340272763745
0.16652158719371074
0.16563268713420257
0.1641814176540356
0.16312258605961688
0.16254530183970928
0.16251343399984763
0.16215376264648512
0.1615677834057715
0.1609506434155628
0.1602619896340184
0.15947393732727505
0.15861208222806453
0.15766695160535163
0.15706422364804895
0.1570065655815415
0.1576665417442564
0.15861921512172558
0.15935057053691706
0.15991216916707343
0.16046076439670287
0.1607594121817965
0.16060609782929533
0.1605235801951494
0.16070228307158685
0.1606214884412475
0.16034960142103954
0.16031658059800974
0.16080673112999647
0.16158864939585327
0.1621748743171338
0.1624426384700928
0.16281848218408412
0.1634058158181142
0.16394437796901912
0.16399566816049627
0.1633577390643768
0.16385004108888096
0.1650074937089812
0.16639167195535265
0.16782599726808256
0.16914357649511658
0.17021339990082196
0.1715883992111776
0.17324797807494177
0.17455219828756527
0.17507814515498465
0.1749286225263495
0.1743217044021003
0.17322459243587218
0.17255437928834
0.1723976446548477
0.17261551488074475
0.17275174373062327
0.17236930209561252
0.17150057747843675
0.17021643497166225
0.168878866143059
0.1679262230801396
0.1675955471477937
0.16795227485592476
0.16755095191998406
0.16603620385751128
0.1642363144189585
0.16221364192198962
0.160305814165622
0.15969033848377875
0.16030208433629015
0.16116753818234428
0.1615015074040275
0.16171470850240438
0.16232085523428397
0.16307809513644314
0.1641087993432302
0.16554967431002296
0.16675240948796272
0.16769486334407702
0.16877377327880821
0.17000803594710306
0.1699373263446614
0.16870156539604067
0.16712682880810462
0.16602750941412522
0.16556249358109199
0.1659293361811433
0.16712485053925774
0.16833552098250948
0.168502258307999
0.16779647929710337
0.16678278507199137
0.16583743066177703
0.16496492305304855
0.164475605225889
0.16476816751412116
0.16555194463930092
0.16628872658708133
0.1669897164136637
0.16758550556958654
0.16726360619068145
0.1662199079140555
0.16580942032393067
0.16614513510488904
0.16698120226035826
0.16806624513934365
0.16922300234436988
0.16983728755963967
0.1696347133256495
0.16924702231306582
0.16899920068797655
0.16887705886969342
0.1690839470271021
0.16974249559687452
0.1705548286391422
0.17086203154874965
0.17103282018215396
0.171984831886366
0.17286853630910629
0.17320476131746546
0.17298861746792682
0.17311463079182432
0.1736252012499608
0.17442668879288248
0.1754986318515148
0.1768341197713744
0.17784443920478224
0.17852684396668336
0.17900483095785602
0.17948030845611357
0.1790160044422373
0.17819180396501907
0.17783477523946203
0.17822595110046677
0.17819541775039396
0.17743228142382578
0.17600773148937152
0.17443624928011559
0.17307450367836283
0.17242200450738893
0.17271399165620097
0.17371449891361407
0.17505823497078382
0.17647861319128424
0.1760160811478272
0.17350682599353603
0.17050546529353597
0.1684297887736466
0.16787752739735878
0.1689116260781884
0.17111164322355762
0.17238387826597318
0.1722128882247489
0.17091514550498688
0.16937559164012783
0.1679968809662387
0.16672002948471346
0.16582263834541663
0.16580398564459756
0.16615685662720353
0.1661897188401781
0.16603471908601933
0.16609076136141085
0.1661956457537599
0.16547084216610528
0.16407571717281827
0.16296503287623637
0.16233116134186276
0.1621668657124974
0.16223937208065764
0.16245750672649592
0.16320499267661945
0.1635332956817001
0.16308142549241894
0.1615941511793062
0.1593694346793927
0.15754369462374598
0.15659562332672067
0.15665332068689167
0.1566732199524995
0.1555686870473437
0.15488015856710263
0.15564029333065263
0.15758567535784096
0.15938259815331549
0.16043022512458266
0.16012139085796662
0.15843041328480467
0.15724770706146957
0.15700549145229162
0.15807362850406206
0.1604632465809118
0.1634157750150189
0.1649595738062635
0.16476701180450617
0.1630656617169734
0.16237251850194298
0.16288645383552647
0.16380471828277224
0.16467866466613487
0.16525022851419635
0.16486016463139094
0.1635162982554175
0.16270171617041343
0.16300234106834977
0.1642794724460691
0.16533332018763758
0.1660505361459218
0.16643195223179647
0.16635580478236078
0.16679518563440068
0.16784467303776182
0.1693645332287997
0.17088567747035996
0.17206164023722523
0.17289221128914506
0.17308049000799655
0.1725917700433638
0.17192001450341196
0.1714243800425902
0.17124474470270798
0.1712951449630782
0.17106661142548546
0.17116451220354065
0.17212593714124524
0.17290187343140132
0.1728751398366876
0.1731822639121674
0.17406362744979562
0.17487890906748363
0.17522419996443206
0.17547839647973887
0.17627790990052744
0.17751940810121597
0.17832907475763932
0.17800103771849535
0.17706377253634856
0.17705064138164744
0.17874758347403258
0.18028231899021194
0.18090837395633572
0.1800084703147877
0.1784854063228704
0.1780717863503378
0.17794897990184835
0.17732607287005522
0.17617853864328936
0.17520401560002938
0.17492673477274365
0.1750760966190137
0.17508783190511168
0.17511614479473792
0.17488723425194622
0.17427053936291487
0.17405041229445486
0.17437589822104202
0.17490952001302504
0.17534752852050586
0.17552209519897588
0.17531975182238965
0.17483336316770873
0.17425732755451462
0.1740137499384582
0.17461957533610983
0.17608480750233865
0.1775524200988002
0.17860288648633285
0.1788141662592534
0.17796402184991167
0.17699943978339433
0.17646971282432788
0.1766689196729567
0.17701636186568068
0.17685030262218787
0.1762272609199863
0.17515799825894646
0.17370238128583879
0.1728966261271853
0.1723540992231574
0.1714925872720778
0.1703659391880501
0.16972445972729475
0.1698099242663011
0.170196951496182
0.1702769744489342
0.16986469560069964
0.16895514516043478
0.16783917613211088
0.1668910249811597
0.16613781297812238
0.16651711449376308
0.16770981296547688
0.16902486398932523
0.17006083744810893
0.1704748796625063
0.16999129027011806
0.16946796477772297
0.16897812913404778
0.16861201242194512
0.16860317362705246
0.16919877997017466
0.1701257153856568
0.17013355288887397
0.1693098777916748
0.16803172399057076
0.16659176561050118
0.16535336389672012
0.16518947795964778
0.1658120473031886
0.16624081172514707
0.16597719937213695
0.16549548513256013
0.16492694731918164
0.1641083783423528
0.16313755611656233
0.16262797072646207
0.162366041544592
0.16139370911871084
0.16030430817045271
0.15949680246412754
0.15953543990734034
0.15949372445465998
0.1592325786454603
0.15893888179096394
0.15868561198934913
0.15840871073771268
0.15799070007633417
0.15738373895408586
0.1566245033557061
0.15642154067289085
0.15677172174444423
0.15711518533877097
0.15712097005336545
0.15699927509529515
0.15700787306646816
0.15712317780125887
0.15732094897888602
0.15731798788066953
0.1568379593209829
0.15554437883780337
0.15368030425277537
0.1515748207026627
0.1505063276097644
0.15044318816740998
0.15107106783078053
0.15235415104194544
0.15337659148382954
0.15366299069602973
0.15321503753075377
0.15198559376294724
0.14990174611331894
0.14816521212109365
0.14775540248374455
0.14841937362682076
0.1493985643738415
0.15036654462339358
0.15143188349204137
0.15246532570337876
0.1530874980275985
0.15322171786334365
0.15319105180795303
0.15316288641421125
0.1528333565534558
0.1524389005440753
0.15255247765686364
0.15262540963012725
0.1519078570709098
0.15134790482348762
0.15108372255112046
0.15072468722471968
0.1501536623062566
0.14966825269279072
0.14979263059096412
0.15094007746782154
0.15283465800457635
0.154392835899489
0.1544296694966033
0.154819789895555
0.15648545642849057
0.15896542887319812
0.16176558609935454
0.16399784298031592
0.16569586040684953
0.1669992118701339
0.1679418961564079
0.168586349299876
0.16902108252979814
0.1691143639292568
0.16929400764754973
0.16961818231386133
0.16947812338592486
0.1686686556064524
0.16778157838038169
0.16745744553161784
0.16780784819391556
0.16885058157495222
0.168622119363863
0.1671006001578644
0.16537057556794024
0.16469825896434487
0.16460334330215118
0.16460042843827977
0.16491895393002778
0.1646188040880952
0.16357757490128277
0.16217724070418627
0.16111510464106688
0.16072946713655256
0.16095179643132723
0.16170483539579436
0.1621185753820464
0.16177199938567355
0.16022738521685823
0.15888779425178653
0.15864204123266973
0.1591718906420283
0.15991736421128736
0.16053238392807542
0.16025415451498704
0.1604290077346377
0.1609406264848076
0.16152675745426678
0.16229162892093882
0.16261798369232566
0.1622557685303036
0.16207317460910417
0.16242620036238806
0.16214408121304585
0.16123097934992983
0.1602124433242716
0.1592040381091647
0.15800366593524814
0.15686779773328452
0.15599126785760745
0.15555909144692123
0.15570130162639542
0.15605656506726517
0.15566184202674777
0.15426668303553015
0.1523098744568415
0.15101753157097847
0.15101545210462064
0.15122865322744475
0.15048981283791363
0.1502899742871523
0.1507352595590055
0.1514354601269588
0.15185094136279076
0.15188645749585702
0.15202161959838123
0.15269629790447653
0.15346512021729722
0.1533136795181781
0.15466980008408426
0.15680574017576873
0.15856236608931795
0.15924452210776507
0.15906841048737988
0.15856273792218417
0.15917091935873032
0.1607182774762623
0.16282729444559663
0.16483820486813783
0.16615789015311747
0.16651275814045222
0.1657208861061372
0.1650473080552183
0.16608332608360798
0.16740118543384597
0.1679855461861007
0.168139975334052
0.16788163819815963
0.16755607265047728
0.16785803315928205
0.16869044315535575
0.16996563104679807
0.17148493543500082
0.17192174120107664
0.17118001775816083
0.1714383784122765
0.17292786504374816
0.1745846658060327
0.17579575988696888
0.17666089865611867
0.17734315288485958
0.17785234699491412
0.17810487655922771
0.17802983172936365
0.17771853599697351
0.17780574017204345
0.17754537652945146
0.1768640955281444
0.1761839338671416
0.17598861777223646
0.1764930132520385
0.17757220769301058
0.17828253470361233
0.17844945576740429
0.17801026854896917
0.17751735009485856
0.17691548682982103
0.17652426642132923
0.1767209237604402
0.1774840603908524
0.17872348954202608
0.1806079089292325
0.18295764907030387
0.18442362213740127
0.1844897248898633
0.18436898158397524
0.18562224412336945
0.18723311154171823
0.18893106220755726
0.19114033795893193
0.19398517157882453
0.19692869604332372
0.19917007623240351
0.2002379259513691
0.2002571482816711
0.20063783518737183
0.20131435881834478
0.20220852196449413
0.20326633552554996
0.2039952630107291
0.2038883149018511
0.2029270975640975
0.2026125794602558
0.20304784066975118
0.20420521032297984
0.20527094739954918
0.20585823848377913
0.20601014129118994
0.20569696323480458
0.2058799804188311
0.206277726048138
0.20688970724819228
0.20763931364286692
0.2082483064895496
0.20863968909950928
0.20880522639025004
0.20865054743131622
0.20869295255746692
0.20821414317470044
0.20733133306493984
0.20595462068216874
0.20512214268092066
0.20512682270491495
0.20585713729262353
0.20698627065867187
0.20797131973318755
0.20851291302125902
0.20830164863029496
0.20829809200018645
0.2086458797007799
0.20947856842307375
0.21061711796559393
0.21168758178362623
0.21236419178312643
0.2124973991792649
0.21211396152619272
0.2118962117447518
0.2126455820701085
0.21439063948579132
0.21641722525237128
0.21796413435367867
0.2188837814168073
0.21930942938430234
0.21924997829832138
0.2195889211189933
0.22038561618654057
0.22147111924132332
0.2223175516910851
0.22213994848541915
0.22056772202719002
0.2182775455340743
0.21684516637353227
0.21673461206490174
0.21618123265681788
0.2143774341326207
0.2119548420002684
0.20959532468579709
0.2072579609369859
0.2043237855681218
0.20150886294664816
0.19945805198978633
0.19829495667712763
0.19791881214594467
0.1983717255666852
0.1975232510594651
0.19584098616614937
0.19466702127596364
0.19406389211304487
0.19318241784116252
0.19160343520110473
0.1899265795154497
0.1887149736727588
0.1880430644354783
0.18831455784849824
0.18926197265274822
0.18994596891105175
0.19063330408651383
0.19163583317305893
0.19287558255018666
0.19404475763672963
0.1948405451932922
0.19484431590652093
0.19559344825102015
0.1967131448420696
0.19756056343670936
0.19760265726363285
0.19686910569434984
0.19625442762626336
0.1965280424244702
0.19678742254618556
0.19643353912280873
0.19577363604912534
0.19543495146790518
0.19577369910199194
0.19661841698223725
0.19605350330239163
0.1955321946903132
0.1956540577346459
0.1962933137314394
0.19707796880044043
0.19765325236599893
0.19789963256567716
0.198100127261132
0.19862169675296173
0.19931936881970613
0.1997113764588721
0.1996313225897029
0.20014979331288488
0.20083882579579948
0.201489866967313
0.2021090499474667
0.20278810779564083
0.20347950835013762
0.20411352983675898
0.2045852387091145
0.20458905440289527
0.20391832748660818
0.2029869158938527
0.20304412885336207
0.2035616474901326
0.2032045660726726
0.2020288829994388
0.20066601568367332
0.19965332290623336
0.19902833461528643
0.19838485785992815
0.19756969748064876
0.19698010111926123
0.19719168494455516
0.1961869015847333
0.19441534581128508
0.19281988279893994
0.19194336050655691
0.19165645060595124
0.19170897422358393
0.19117029862245544
0.18995139828883112
0.18809146164683624
0.1859369740029797
0.18390552957775072
0.18243474156130104
0.18179472756572068
0.18200495074503123
0.18246971673797815
0.183100691086147
0.1832519126869738
0.18281013211701067
0.18282738561974837
0.18361225922126323
0.18472359716659412
0.18598821209277958
0.18709823488723487
0.18815117745660245
0.18948215639451518
0.19123090812470764
0.19139033916406334
0.1897690738691017
0.18891056385356933
0.18917980789905414
0.19010839954018594
0.19089866551104934
0.191043466150295
0.19044561843620614
0.1908151069842279
0.1919393166154623
0.193148437126074
0.19392047273227944
0.19435427943943068
0.19473084474215285
0.1948908652481623
0.19434314843500033
0.19343426601262764
0.19321716786827892
0.19397500487975777
0.1960904468758963
0.19879687177715824
0.2013761491701007
0.20292589886812493
0.2030162972328253
0.20182901146588847
0.20037348891841247
0.19884113581851126
0.19704398623201996
0.1957373979035765
0.19606535209808498
0.19745381895219907
0.19826623600674792
0.19853938246145844
0.1979356005997397
0.1961544848047197
0.19342416415689512
0.19037917646113783
0.18817842706339433
0.18708384237950668
0.18727075904374943
0.18793776192469522
0.18873433059779926
0.18925554726505653
0.18910987600218504
0.1885522438236512
0.18808315070346
0.18816307377535849
0.18842414625920356
0.1885213015624322
0.1879685519845225
0.18665990750538186
0.18586958067025988
0.18566137020941822
0.1859725252375938
0.18577339070150628
0.1855518286419101
0.18540978935547173
0.18500388252316044
0.18418145946227013
0.18404917493695394
0.1848748537618667
0.18627141340635717
0.1874467876413837
0.1882070561987348
0.188726358236745
0.18932607557624578
0.18868847327772528
0.18835480506066232
0.18825115206418558
0.18785774887306617
0.18704613944282755
0.18635194418253376
0.18671883786329999
0.18664705127710476
0.18612150099826977
0.185118418475613
0.1839170552114956
0.1830023799277842
0.18269216841086744
0.18302082889480517
0.1838011808041483
0.18414436439285053
0.1830960986786522
0.1818088289652951
0.18074143246747554
0.18011507912073285
0.17984722847817466
0.17993885036790744
0.18016335585154594
0.18000406879000366
0.1797918179887347
0.17954885980812832
0.17912361179245637
0.17853912547463552
0.17809511767001823
0.1783771626628004
0.17875754165928812
0.17924246108159422
0.17959745339583605
0.17961770989466458
0.17934220457915218
0.17889155643526464
0.17853711889823898
0.17864367786562071
0.17837326201377438
0.17747241255128757
0.17645075137726962
0.1757071404065937
0.17520347795682029
0.1755098757473752
0.17585938913282007
0.1751579984324053
0.1735518553457223
0.1728326366748661
0.17377759970491752
0.17612235774053261
0.17876897246809675
0.18055491614853963
0.18070842621847988
0.1797560880612582
0.1797135984688066
0.18094835444586352
0.18304890185361727
0.18521518978988752
0.18714762976393104
0.18904594760388135
0.19109367042547093
0.19133963639615104
0.1900113402400166
0.189157788536977
0.18970028487965465
0.19116165434708818
0.19247980321059002
0.19322141635464504
0.19354524762136863
0.1938388119940646
0.19402363596018404
0.19365495780250058
0.19286046620225533
0.19234900805400684
0.19263234472135082
0.192390467019286
0.19123979877913372
0.1895560533204116
0.1879558679368347
0.18704022319987415
0.1870742542250082
0.1876124947797507
0.18777664580382405
0.18729658445110545
0.1868617840250954
0.18712296665878966
0.18697179781505838
0.1860653089499101
0.18507761906133965
0.18483557272469625
0.1853160479408689
0.18600165281211958
0.18648363572778182
0.18670772339217365
0.1867522509302944
0.1867384644341655
0.18667394620832056
0.18643263671780005
0.18623519056243823
0.1861016957415268
0.18629088005516678
0.18684264830080793
0.18707155806943773
0.18702644860371948
0.18742023444501682
0.1886122978362255
0.19028288474772126
0.1919398919516243
0.1932399993389845
0.19395142724970355
0.19401752507546915
0.19361469464376568
0.19334304885705933
0.19388345317915082
0.19475006927736105
0.1959693489712663
0.19743743936065583
0.1988935125875287
0.20014322077622637
0.20115883499849588
0.20228451267350464
0.2026299625984393
0.20137460561934858
0.19948698695981876
0.19849121637409553
0.1988517881790176
0.19914479637052865
0.19835733524523674
0.19636883173137903
0.19378787507303058
0.19128427483607083
0.18878390716854482
0.18665911968797444
0.18568598271813244
0.18602718280628325
0.1874035430373624
0.1874040720029734
0.18572447780054063
0.18413613278884441
0.18357068894663825
0.1843863573297858
0.18639878541696817
0.18760874935425817
0.1881278905039653
0.1882393987989053
0.1878648164938204
0.18698116258019581
0.18710529613308607
0.18803375225281344
0.18969199670944362
0.19153374081244692
0.19264815819915385
0.19283705326728523
0.19155004576779902
0.18867420251481234
0.186546301653143
0.18604248160496353
0.18717928850324825
0.18957926452625543
0.1921289018774405
0.19421141267754138
0.19567847361555324
0.1963113048952073
0.19593942229403183
0.1943957623746246
0.19251078233588487
0.1913555604754947
0.19110189019702375
0.19167971570743247
0.19288532986771315
0.1945311190141365
0.19592464726651088
0.1970557426312007
0.19767900509294123
0.19734395416220651
0.19616920622298495
0.1948246879526414
0.1938246190850623
0.19317007256671787
0.19277542136609555
0.1931312672351487
0.19333992844447492
0.19361278613330796
0.19420885644853114
0.1950645381049253
0.1950654226448387
0.1946866500703618
0.19444750628899782
0.1947029394726269
0.19505657095229254
0.1951178485015407
0.19512434216449037
0.19556909466162323
0.19565195453353226
0.19494398846058175
0.19362193251261486
0.19270402594469488
0.19203999785240738
0.19142943958984687
0.19102531017037108
0.19116698832949625
0.1901683482970111
0.18879782943753526
0.1879228749894537
0.18801131713436917
0.18865011677145957
0.18837085634237155
0.18769736622693017
0.18727830259595066
0.1872426558076404
0.18743337040999905
0.18746281929314138
0.1871992841013707
0.18691312317037956
0.1869733149628155
0.18745166142703965
0.18808761833468451
0.18767401210032403
0.18652266837656498
0.1852770890435204
0.1848245852184482
0.18542566707590594
0.1864832573523745
0.18754930239869283
0.18870075843529777
0.1899909277749248
0.19110328109702096
0.19163355324650183
0.19168898015283048
0.19188724723644554
0.1919304185686633
0.19200237529817968
0.19232141792075708
0.1927891743602231
0.19317154203075915
0.1933067402476445
0.19340531862108037
0.1935689352080226
0.19370607897406444
0.1938251535082236
0.19385579570895062
0.1938927709381096
0.19413814768195153
0.19388980902498587
0.19312687032157555
0.19277859970927239
0.19291163271991535
0.19266071990830824
0.19180080888792872
0.19012029377743603
0.18818759538698943
0.1870554306008853
0.1869656721316278
0.18713830577908083
0.18609561631921678
