0.00997690701391548
0.009980371571145952
0.010004072571173311
0.010030266428366304
0.010051148016937078
0.010063969758339225
0.010053964417893439
0.01002189926803112
0.009996140424627811
0.00999398241052404
0.009999432426411659
0.009991849279031158
0.00997493723873049
0.00996520951623097
0.009963541417382657
0.009959880970418453
0.009957103526685386
0.009963812476489692
0.009972464288584887
0.009968050511088223
0.009958222282584757
0.009965849870350213
0.009988494797144086
0.010002022364642472
0.00999559807823971
0.009977228976786136
0.009968055186327547
0.009981495710089803
0.009991793392691762
0.00997533908346668
0.009959770129062235
0.00996982268523425
0.009985039066523314
0.00998247430427
0.00996532358461991
0.009949629553593695
0.009945438434369862
0.009944768801797182
0.009939571951981634
0.009948217547498644
0.009988190319854767
0.010033386314753444
0.010042632531840354
0.010019226979929954
0.009999823702964932
0.010001022233627737
0.01001083332579583
0.010009141778573394
0.009993529825005681
0.00998872288968414
0.01000154555309564
0.01000531024998054
0.00999389645876363
0.009996336151380092
0.010027484027668834
0.010057778137270362
0.01004999732831493
0.010010608823504298
0.009973312770016491
0.00995172435650602
0.009940062835812568
0.009935201141051947
0.009940237798728048
0.00995622536400333
0.009968632238451392
0.009957880191504955
0.009932306301780046
0.009925226389896125
0.009951799435075372
0.009990854882635175
0.010015756087377668
0.010019283208530396
0.010007331133820116
0.009988216450437903
0.00997202402446419
0.009972528498619794
0.009989562113769352
0.010001938401255756
0.010002763501834124
0.010009074988774956
0.010027449007611721
0.010053836593870073
0.010083466444630176
0.01009181134402752
0.010061296410858631
0.01001837751828134
0.00999420219566673
0.009983602792490274
0.00996912872651592
0.009953283336944879
0.009942872228566556
0.009930638133082538
0.009920877641998232
0.009934245366603136
0.009967259098775685
0.00998781101545319
0.009982690473552793
0.009979278040118516
0.00999352894956246
0.009985438769217581
0.009929688663687557
0.009879951237235219
0.009883749694563449
0.009907964658923447
0.009903216059319675
0.009876296401489525
0.009863182418048382
0.009866789286024868
0.009865462803281844
0.009859104068018496
0.009861571092624217
0.00986982099711895
0.009873604692984372
0.009879297059960664
0.009898808016441763
0.00993005400057882
0.0099636935419403
0.009984904404263943
0.00996766668278724
0.009907411322928964
0.009849051935598254
0.009839154600631445
0.009871857890393585
0.009905762544367463
0.009913959566038102
0.00990806231740862
0.009910258608870208
0.009915377967990935
0.009905079717282207
0.009883357165381312
0.009870826629921794
0.009874889554921537
0.009884132645092905
0.009893386783078313
0.009915677937678993
0.009946831050328911
0.009952418503817171
0.009923768255393952
0.009896574025042355
0.009889076056424528
0.009879129936452955
0.00986294972943142
0.009870691117830574
0.00989982030587271
0.009909236871171742
0.00989066485548392
0.009880644790828228
0.009910751862917096
0.009972127515356987
0.010016981668304652
0.010010162068065256
0.009972534202970564
0.009941317306365818
0.009924485529772938
0.009913765850942582
0.009898813059553504
0.009882616002578289
0.00988696452928707
0.009907919815741479
0.009915103854145855
0.009908076028805226
0.00990847836015746
0.00992108380421996
0.00994204992428422
0.009967200106475503
0.00998830534517765
0.010006409191992133
0.01002558670239523
0.010029061161912978
0.010003964493516832
0.009976260808762162
0.009967303092125804
0.009954998777247965
0.009924474547151476
0.009897201117128133
0.00989689480047673
0.009926412168424577
0.009959138263948262
0.00996302334824577
0.00994943113066256
0.0099561234889552
0.009986457300838083
0.01000970989232883
0.01001173862721771
0.010004484890960157
0.00999013168271631
0.00996351849520579
0.009935406174045057
0.00991422168444842
0.009901735989842564
0.009907087821047753
0.009924810596276075
0.0099396089813672
0.009963494259864092
0.009999525304883718
0.010007401581387966
0.009977105683647096
0.009957457026466728
0.009973203011322767
0.009998904082458467
0.010012205606326461
0.010014098302926868
0.010011986379977316
0.010009745669085532
0.010004258691333234
0.009984295484609901
0.009951641489751637
0.009933554448653013
0.009942415489349514
0.009952919464558363
0.009945830032229423
0.009935745073016733
0.009941770129371435
0.009961166302673519
0.009978780050296336
0.009986173959914595
0.009982453766278923
0.00996940489159897
0.009955870814155787
0.009950984725728631
0.00995239672716707
0.0099502101005055
0.009941934559028595
0.009941922384314239
0.009965970255434513
0.010006445904728024
0.01003416942199692
0.01003239695681259
0.010022784457542002
0.010034254542551935
0.010057476626243442
0.01006942852633074
0.010074604046531021
0.010081763151101769
0.010084513127803802
0.010079062385484576
0.010064867343753576
0.010047674849629403
0.010039948441553861
0.010034617646597325
0.010012077128048986
0.00998056726064533
0.009970110696740449
0.009981977378483862
0.009989810448605568
0.009985643224790692
0.009978331776801496
0.009975738662760705
0.009991186438128352
0.01003368193283677
0.010080713673960417
0.010088097765110432
0.010043756605591625
0.00998246246483177
0.00993660900508985
0.009924079242628068
0.009940669233910739
0.009964901744388044
0.009978316857013851
0.00998409605352208
0.009994679996743798
0.010009080725722016
0.01001206062734127
0.010001450774725527
0.00999944687122479
0.010019827152136713
0.010050165089778603
0.010071486982051283
0.010076854994986206
0.010072473308537156
0.01006532380124554
0.010060203454922884
0.010063821661751716
0.010079846472945065
0.010105427540838718
0.010128378192894161
0.010132471064571292
0.010118577366229146
0.010106130186468363
0.010107459600549191
0.010118944272398948
0.010130066762212665
0.010129456971772016
0.010116813611239195
0.010108829084783793
0.010114350588992238
0.010113035945687443
0.010089081588666886
0.010060393831226975
0.010046244685072451
0.01004241100512445
0.010034963863436133
0.010018907343037427
0.010003309873864054
0.009996694377623499
0.010000818439293653
0.01001705375732854
0.010038039188366384
0.010053224591538311
0.010063908228185028
0.01006340112304315
0.010038799699395895
0.010007913142908364
0.0100062315328978
0.010043763620778919
0.01009085846832022
0.01010288167744875
0.01007128337631002
0.010031212302856148
0.010012971537653357
0.01001550658373162
0.010022225813008845
0.010022132874000817
0.010017098137177527
0.010008891904726624
0.009986932552419604
0.009953981635626406
0.00994255272904411
0.009966158452443778
0.009992959741503
0.010001117405481636
0.010005130472127349
0.010011905080173165
0.010013640341348946
0.010019692305941135
0.01003679191460833
0.010043790619820357
0.01003490440780297
0.010036870939657092
0.010050369317177683
0.010046192188747227
0.010023987838067114
0.010001767938956619
0.009971930470783263
0.009922080871183426
0.009872201716061681
0.009858876941725611
0.009887386776972562
0.009927207338623702
0.009962761993519961
0.01000294319121167
0.010035997144877911
0.010041728287469597
0.01004187871934846
0.010060799426864832
0.010075722832698374
0.010067663104273379
0.01004540491849184
0.010017178745474666
0.01000538029940799
0.010029859945643694
0.010063973197247833
0.010073972134850919
0.010061051126103848
0.010038403035141528
0.010028222950641066
0.010051814722828567
0.01008422722807154
0.010086008065845817
0.010070228364784271
0.010068129214923829
0.010070559065788985
0.010052453787066042
0.01001187385059893
0.009969631968997418
0.009954000955913216
0.009968871271703393
0.009986681300215423
0.009995609021279961
0.010007666179444642
0.01001868867315352
0.01002155128866434
0.010032309712842106
0.01006040771258995
0.010090807867236436
0.010102644853759557
0.010086247324943542
0.010056113072205336
0.010037520490586758
0.010035798356402665
0.010037933583371341
0.010031265928409994
0.01001171562820673
0.009986147652380168
0.009968681663740426
0.0099712219578214
0.009988996395841242
0.01000542649999261
0.010020179459825158
0.010042378210928292
0.010061277004424482
0.010061926075723022
0.010050306452903897
0.010039390509482472
0.010040330321062356
0.01006216837093234
0.010091043647844345
0.010096837382297963
0.010075001225341112
0.0100524463923648
0.01004596091574058
0.010041275022085756
0.010021573679987341
0.009993365870323033
0.009980026162229478
0.009996515831444413
0.010027401850093156
0.010046223504468798
0.010051998945418745
0.010059975644107908
0.010072097077500074
0.010080738130491228
0.010083858112338931
0.010080139359924942
0.010069500703830272
0.010059445707593113
0.010057127468753606
0.010061872240621597
0.01006606517592445
0.010065159611403942
0.01005936723900959
0.010045227953232825
0.010024617847520859
0.010009352983906865
0.010004090960137546
0.010000591725111007
0.009992080056108535
0.009983252636156976
0.009981620325706899
0.009983248997014017
0.009982249180320651
0.009984526112675666
0.009989887198898942
0.009985675942152739
0.009970490667037667
0.00995457973331213
0.009943271575029939
0.009937258523423224
0.009936432666145266
0.00994112063664943
0.00995324430288747
0.009966930022928864
0.009968612727243453
0.009963581210467965
0.009971245075576007
0.009990081661380828
0.010004260658752174
0.010007227340247482
0.00999980207765475
0.009975360701791941
0.00993269139667973
0.009907967543695122
0.009935608180239797
0.009983324895147234
0.010000287548173219
0.009981377138756216
0.00995992820477113
0.00995016993721947
0.009945374047383666
0.009949788919184356
0.00997881949180737
0.010029076295904816
0.010070358328521252
0.01007224443834275
0.010035374811850488
0.009996459744870663
0.009986561983823776
0.00998812317615375
0.009969869707711042
0.009943258860148489
0.009930336570832879
0.009922141304705291
0.009913390085566789
0.009912240952253341
0.009903484187088907
0.009869435096625238
0.009833357485476882
0.009824520933907479
0.009833444189280272
0.009840204175561666
0.009841101788915695
0.009835588308051228
0.009822536297142505
0.009807474156841635
0.009801624221727251
0.009817132456228138
0.009855770592112094
0.009896245547570287
0.009915640803519636
0.009922891601454466
0.009940337794832886
0.009968371249269694
0.009990621192846447
0.009997208802960813
0.00999147507827729
0.009981051022186875
0.0099727761070244
0.009969872799701988
0.009971418562345206
0.00998284379253164
0.010014483795966953
0.01005974437110126
0.010089414832182229
0.010079938280396163
0.010036047569010408
0.009986476844642312
0.009967646964360028
0.009988142657093704
0.010011838073842228
0.010006320013199002
0.009989315383136273
0.009998347556684167
0.010028024453204125
0.01003496364224702
0.010011402398813516
0.00999932604143396
0.010011515791993587
0.010014692009426653
0.010010863977950066
0.010037237929645925
0.010077493209391832
0.010080209749285132
0.010051159616559745
0.010032946215942503
0.010027960126753896
0.01001525261439383
0.01000293152173981
0.010004997809883207
0.010009283646941185
0.010008786502294243
0.010014452519826592
0.01002527097472921
0.010035006543621421
0.010054583991877735
0.010090401559136809
0.01012474535498768
0.010138116427697241
0.01013134202454239
0.010117612795438618
0.010098802461288869
0.010068792186211794
0.010042768043931574
0.010040776492096483
0.01004830391611904
0.010041294861584902
0.010025926840025932
0.010021302492823451
0.010033323997631668
0.010047203772701322
0.010033686256501823
0.009991784901358188
0.009963211996946483
0.009970018642488867
0.009991798512637616
0.01001459221355617
0.010029121816623956
0.01001154719851911
0.009972908557392657
0.009961956918705255
0.009987972122617065
0.010011033941991628
0.010010618350934237
0.010012359749525785
0.010040963878855108
0.010077815933618695
0.01008791759610176
0.01006859689252451
0.01004141486249864
0.010023612373042851
0.010023584438022226
0.010027736569754779
0.010009326110593974
0.009972094111144542
0.00994760436238721
0.009946866917889565
0.009950796132907272
0.009943999508395791
0.009931640580762178
0.009936438885051756
0.009974028195720165
0.010021400558762251
0.010047100384254009
0.010053168532904238
0.010055711490567774
0.010069008932914585
0.010106042753905057
0.010146678620949388
0.010147017892450094
0.010108832754194736
0.010075578219257295
0.01006385897519067
0.010052091085817665
0.010019670040346682
0.009975152211263777
0.009947912665084005
0.009951237556524575
0.009967965544201434
0.009979876854922623
0.009990779836662113
0.010007899373304098
0.010022191675379872
0.010027380757965148
0.010034102227073162
0.010046185781247914
0.010052626908291132
0.010057735594455153
0.010084002690855414
0.010129518283065408
0.010158989520277828
0.01015185865573585
0.010127560554537922
0.010111448713578284
0.01010392451658845
0.010094311237335205
0.010082527671474963
0.010076719229109585
0.01008072137599811
0.01009311445057392
0.01011034355731681
0.010123500339686871
0.010130995709914714
0.010147515155840664
0.010176420130301267
0.01019716534530744
0.01019069878384471
0.010164904901757836
0.010155747479293495
0.01017923053354025
0.010204051700420678
0.010210117578972132
0.01021327847847715
0.010217129788361489
0.010205179355107247
0.01018114540958777
0.010174524455796927
0.010194992190226912
0.010214323364198207
0.010213952341582627
0.01021335624391213
0.0102211081283167
0.010205595660954714
0.01016013718675822
0.010134817892685532
0.010154444226063788
0.010175285858567805
0.010154964681714774
0.01010536919347942
0.01006691713584587
0.010059141591191291
0.010068434157874435
0.010080367054324597
0.010086704522836953
0.010076151143293828
0.010059276483953
0.010057540445122868
0.010066842464730143
0.01007883353624493
0.010101044098846615
0.010133527247235178
0.010155805952381343
0.010146348755806684
0.010107688959687949
0.010063950968906284
0.010037063765339553
0.010030614375136793
0.010032078616786748
0.01002970410976559
0.010025809907820076
0.010025971357244999
0.010029329273384064
0.010042032557539642
0.010070967951323838
0.010101427352055907
0.010114504841621965
0.01011961012147367
0.010141625667456538
0.010180202820338309
0.010206848229281605
0.01020584448473528
0.010192482271231712
0.01018080608919263
0.010167707339860499
0.010161104137077928
0.010170903170946986
0.010174398634117097
0.010153729894664138
0.010131606701761484
0.010129414340481162
0.01014135698787868
0.010145238041877747
0.01012125346576795
0.01008459409000352
0.010066274178680033
0.010063592058140785
0.01006534326588735
0.010082219135947526
0.010110682812519372
0.010123299702536314
0.010106348188128323
0.010075171894859522
0.010049520498141647
0.010030624237842858
0.010022595745977015
0.010039370127487927
0.010066617373377084
0.010074481077026576
0.010063965539447963
0.010053082236554474
0.010052636996842921
0.010065152172464877
0.010068631875328719
0.010036600562743843
0.009989172243513167
0.009968589656054974
0.009976879365276546
0.009986266640480608
0.009988610506989062
0.00999100796179846
0.009982331902720035
0.009955309221986682
0.009938815315254033
0.00995409324998036
0.009974791903514415
0.009972668271511793
0.009958614027127624
0.009955721001606434
0.009961792349349708
0.009953100522980094
0.009925097606610507
0.009906349952798337
0.009914561191108078
0.009929080824367702
0.009929329401347785
0.009927017469890416
0.009935978092253208
0.009948823899030686
0.009958777818828821
0.009963965485803783
0.009956015311181544
0.009942272501066328
0.009943497439380736
0.009949043130036443
0.009937141751870514
0.00992229480529204
0.009926228639669717
0.009943346863146872
0.009951478650327772
0.009937406945973636
0.00992056584917009
0.0099275220092386
0.009949057425837965
0.009955961515661329
0.009939861469902098
0.009922539084218442
0.009916988916229457
0.009909990306477994
0.009905009036883712
0.009920226109679789
0.009940884143579751
0.009937114911153913
0.00992119231261313
0.009925446673296392
0.009936329436022788
0.009922791782300919
0.009905247059650719
0.009922871245071291
0.009963000053539872
0.009982871131505817
0.009966095753479749
0.009931247162166984
0.009919179815333336
0.009955918160267174
0.010011531494092197
0.010034596638288349
0.010026288840454072
0.010028986353427171
0.010052938538137823
0.010071695265360177
0.010063907888252288
0.010028139166533947
0.009986556295771151
0.009968086557928474
0.009980175299569965
0.010008302819915115
0.010020629947539418
0.009989309832453728
0.009943047775886954
0.009939708230085671
0.009971730716060848
0.00998474596766755
0.00996787696145475
0.009958181802649051
0.00998453889042139
0.010030091083608568
0.010049099221359938
0.010027057845145465
0.009994039805606007
0.009972525883931667
0.00995584533084184
0.009932435408700258
0.00990490403957665
0.009891749781090767
0.009905948338564485
0.009933074822183698
0.00994385801954195
0.009924920618068427
0.009887852484825998
0.009848865242674946
0.009816508358344436
0.0097989341779612
0.009803566606715322
0.00982226142194122
0.009829636251088231
0.009819829030893743
0.009817484079394489
0.009828543313778937
0.009827962664421647
0.009801709612365811
0.009769038364756852
0.009764103125780821
0.009793472299352289
0.00982230280758813
0.009818092733621598
0.009788780671078712
0.009764586999081075
0.009758140435442328
0.009754685966763646
0.009741597992833704
0.009726784313097597
0.009715955576393754
0.00970262027811259
0.009685960330534727
0.009676385982893408
0.009677189586218446
0.009677118377294392
0.009680464558769017
0.009703471744433045
0.009729982144199312
0.009728618140798062
0.009708566826302558
0.00971317115239799
0.00975309728877619
0.009784484219271689
0.009776420453563332
0.009754073149524629
0.009757989819627255
0.009796761483885348
0.009835888792295008
0.009833218788262457
0.00979874622542411
0.00978226461680606
0.009803841849789023
0.009842114893253893
0.009870237826835365
0.009877868473995476
0.009867974140215665
0.009850339042022824
0.009843382670078426
0.009848532984033227
0.009835858519654721
0.009791795562487096
0.009752307347953319
0.009756221633870155
0.00979295392986387
0.009828956457786262
0.009843198894523085
0.00982485613785684
0.009786729388870298
0.009763323636725545
0.009768548086285592
0.009782277646008879
0.00978673572652042
0.009786921693012119
0.00978724233340472
0.009781873282045127
0.009772788749542087
0.009768575951457024
0.00977189096622169
0.009780788966454566
0.009790715402923525
0.009793830590788276
0.009784645170439034
0.009768412075936794
0.009762659822590648
0.009779008745681494
0.009797970631625503
0.009792777481488884
0.009776726053096353
0.009779462423175574
0.009802266294136643
0.009831843313295395
0.009854446081444621
0.009856589881237596
0.009846305863466114
0.009845176876988262
0.009852549678180366
0.009852238690946251
0.009845459542702883
0.00984695106977597
0.009856378841213882
0.00986487079411745
0.009877773865591735
0.00989600773435086
0.009901641588658094
0.009891922906972469
0.009882929085288197
0.009875269127078354
0.009869848892558366
0.009880085026379675
0.009900170855689793
0.009915825130883604
0.009927050415426493
0.009933651611208915
0.009935394427739084
0.00993662093533203
0.009939407235942782
0.0099474547826685
0.009959437798243017
0.009963847312610597
0.009953613649122417
0.0099333133851178
0.009918877403251827
0.00992131519364193
0.009924882410559803
0.009910142284352332
0.009885472746100276
0.00987674636533484
0.009905374301597476
0.009960929888766259
0.009995302949100733
0.009983498137444258
0.009961880501359701
0.00996669772779569
0.009979558170307427
0.009972312711179257
0.009952218774706124
0.009928174442611635
0.00989929805509746
0.009885693984106183
0.009900066221598535
0.009922054221387953
0.009941856246441602
0.009964738294947893
0.0099760705512017
0.009965998628176749
0.009955250357743353
0.009959813610184937
0.009967722296714783
0.009962395105976612
0.009952844479121268
0.00995836571790278
0.009972837606910616
0.00998128046048805
0.009977848178241402
0.009964013253338636
0.00995717992540449
0.009967565345577896
0.009979038038291038
0.00998236945597455
0.009989085516426712
0.009998286101035774
0.00999595905188471
0.009987415964715182
0.009982455119024963
0.009963569345418364
0.009914585510268808
0.009859350381884725
0.009838643046095967
0.009869872380513699
0.009931131810881198
0.009968817266635597
0.009952580311801285
0.009917365389410406
0.009904981893487274
0.009901096783578396
0.009878098897170276
0.00984676874242723
0.009825045031029732
0.009808291192166507
0.009792565677780658
0.009781687231734395
0.009772638271097095
0.009760926817543805
0.009746496812440456
0.00974146333988756
0.00976677488302812
0.009808322517201304
0.009824622464366257
0.009819031793158501
0.009826510108541697
0.009846005127765239
0.009854492053855211
0.009848633860237897
0.009840256739407778
0.009838312859646975
0.00983846299815923
0.009834147079382093
0.009835138872731478
0.009849441726692021
0.009866782636381686
0.009872782959137112
0.009853654718026518
0.009810298320371658
0.00977796338032931
0.009783061686903238
0.009798360513523221
0.009797114559914917
0.009805119202937931
0.009846020753029735
0.009894226354081184
0.009916160472203046
0.009912719938438386
0.009906339938752354
0.009902571476995945
0.009886924782767892
0.009863002120982855
0.009852551235817374
0.009855524552986026
0.009850335232913494
0.009826927846297621
0.009793645956087858
0.009763501971028744
0.009750169450417161
0.009758403673768044
0.009777347419876604
0.00980180733371526
0.009828148349188269
0.009834810136817395
0.009816858796402811
0.009806489234324544
0.009825069226790219
0.0098562575946562
0.009887818943243474
0.009931957598309964
0.009969581353943794
0.00994524943176657
0.009864362962543964
0.00980375898303464
0.009801108776591717
0.009822449029888958
0.009830537824891508
0.009826132364105433
0.009830828770063818
0.009854279637802393
0.009886651705019176
0.009906789355445653
0.009892969962675125
0.009851150379981846
0.00981958034913987
0.009820343563333153
0.009827989207115024
0.009812522602733225
0.009789365313481539
0.009786869788076729
0.009798705463763326
0.009807754310313612
0.009803376053459942
0.009772262300830335
0.009734234379138798
0.009734735763631762
0.009767012116499245
0.009783834447152912
0.009777076167520136
0.00976661266060546
0.009750595188234002
0.009737694335635752
0.009764290424063802
0.009826674298383296
0.009873164570890366
0.009877799435053021
0.009858630958478897
0.009836241973098368
0.009816276244819164
0.00980460040504113
0.009805657125543803
0.009809048692695797
0.00980927823111415
0.009813467385247349
0.009808971909806133
0.009778435877524316
0.00975245778914541
0.009778255559504033
0.009837076680269093
0.0098658595001325
0.009853448357898743
0.009841578539926558
0.009851210583001375
0.009871067332569509
0.009887218151707202
0.009879606512840837
0.009838209052104504
0.009798570468556136
0.009796991595067084
0.009817867707461118
0.009828813821077347
0.009819459170103073
0.009801398031413555
0.00979187413584441
0.009793113032355905
0.00979166226228699
0.00976835203357041
0.009714931717608124
0.009656497815158219
0.00963979453779757
0.009686526716686785
0.00976876656524837
0.00983493749750778
0.009854546925053
0.009841486227232963
0.009831812288612128
0.009840915640816093
0.00986412086058408
0.009895614401903003
0.009917848294135183
0.009916868014261126
0.009908139852341265
0.009904578819405287
0.009901933113578707
0.009907586912158877
0.009928338951431215
0.009943100535310804
0.009928373624570669
0.009902450558729469
0.00990817607846111
0.009952217773534357
0.009997756073717027
0.010008302782662213
0.009979827823117375
0.009940574031788855
0.009919026233255863
0.009916593516245485
0.009916760218329728
0.009909020594786853
0.009895403496921062
0.009877278124913574
0.00985774645814672
0.009858119650743902
0.00989312703255564
0.009935719296336173
0.00995027293683961
0.009937522956170142
0.009913859586231411
0.009886303872335703
0.009868443594314158
0.009873338416218758
0.009885994899086654
0.00988625839119777
0.009879062678664922
0.009874824271537363
0.009868797142989933
0.009859357306268066
0.009859765325672924
0.00987588925519958
0.00990200330503285
0.009929943594615907
0.009948793568182736
0.009958792319521308
0.009967540991492569
0.009971162404399365
0.00996531204553321
0.00995620736386627
0.009952018230687826
0.009954813104122877
0.009960351136978716
0.009969485253095626
0.009987897181417793
0.010003969124518335
0.0099965526512824
0.009969300020020454
0.009948891384992749
0.009952957665082068
0.009968246258795261
0.009970548108685761
0.009966049899812788
0.009975798618979752
0.009996932146605105
0.010021815276704728
0.010058721534442157
0.0101109001156874
0.010163456674199552
0.010192745949607342
0.010192232199478894
0.010189239573664964
0.010206721073482186
0.010220283884555101
0.010191702302545309
0.010135372912045568
0.010105394723359496
0.010111691635102034
0.010114130945876241
0.01010175328468904
0.010097938338294626
0.010100291795097291
0.010083973780274392
0.010053095794282853
0.010041754492558539
0.010061668793205171
0.010088258194737137
0.010102482431102544
0.0101103531033732
0.010125946514308452
0.01015369407599792
0.010178192707244307
0.01017935611307621
0.010165641841012985
0.010164001965895295
0.01017360434634611
0.010168888655025512
0.010148763575125485
0.010135620199143887
0.010126299429684878
0.01009995475411415
0.010069984358269722
0.01007030644454062
0.01009901860030368
0.010124275793787092
0.01013830665498972
0.010163106045220048
0.010201051896438003
0.010225342521443963
0.010229609701782464
0.010237920451909304
0.010254892639350146
0.010258044262882323
0.010244060179684312
0.010234972476027906
0.01024768796749413
0.010284339343197644
0.010332918821368366
0.010370391556061804
0.010377377064432949
0.010352101149037481
0.010310589547734707
0.01027208149433136
0.010247337978798897
0.010245889741927385
0.010274378964677453
0.010311275806743651
0.010323140495456755
0.010315453808289021
0.010313784996978938
0.010314953364431858
0.010303344558924437
0.010277357753366231
0.010241711004637182
0.010205309309531002
0.010188672593794763
0.010215799110010266
0.010281752103473991
0.01034308373229578
0.010371651002205908
0.010383593095466494
0.010389736825600267
0.010374768830370158
0.010342454216443002
0.010326439936179668
0.010344953753519803
0.0103778277290985
0.010391654681880027
0.01038052023621276
0.01037773106014356
0.0104077456635423
0.01044740218669176
0.010470601122360677
0.010485178581438959
0.010497356986161322
0.010498868490103633
0.010488197647500783
0.010461769769899548
0.010417526380624622
0.010379236557055265
0.010368843835312874
0.010367049309425056
0.010345010608434678
0.01030967899831012
0.010285094073042273
0.01027578693581745
0.010273308213800191
0.010278695551678539
0.010298214671202004
0.010321302532684058
0.010323909693397582
0.010309960981830955
0.010312349807936699
0.010335693212691694
0.010353472190909088
0.010350596213247626
0.010320709832012654
0.010266757817007602
0.010228531584143639
0.010243425332009792
0.010287693254649639
0.010321627575904132
0.010338836379814894
0.010337499564047902
0.010319059230387211
0.010304477931931615
0.010305009190924466
0.010310032670386136
0.010318782106041908
0.010354317030869425
0.010427459487691521
0.010502346279099583
0.01052683874964714
0.010492116222158074
0.010438842950388789
0.010408521795179695
0.010402169164735823
0.010391101108398288
0.010359222632832826
0.010319314643274992
0.010289314244873822
0.010266287357080729
0.010238245255313813
0.010207514772191643
0.010184237018693238
0.010175145326647907
0.010179633365478367
0.010189347257837654
0.010202953827101737
0.01022753770230338
0.010254764407873153
0.010259947474114597
0.010235215311404318
0.010199561764020473
0.010171934340614825
0.010155628104694187
0.010144633867312222
0.010137657101731748
0.010138971600681543
0.010141827731858939
0.010134785280097276
0.010119184243958444
0.010107142673805357
0.010114566653501243
0.010145058920606971
0.010176524408161641
0.010181090743280947
0.010156284403055906
0.01012654792284593
0.010118042516987771
0.01013657932402566
0.010160977304913103
0.010165930569637566
0.010159249841235578
0.010160681793931871
0.010156728979200124
0.010137378978542983
0.010136536094360054
0.010170365625526756
0.010195252844132483
0.01017887202091515
0.010142511890735477
0.010113199439365417
0.01010122008388862
0.010105753142852336
0.010108254291117192
0.010095720922108739
0.010079046753235161
0.01006725597428158
0.010059534977190197
0.01006079512881115
0.010075571993365885
0.010098948013037443
0.010120471392292529
0.010136177733074873
0.010162856341339647
0.010208850246854126
0.010238073454238474
0.010217874159570784
0.010174247259274126
0.010154313370585442
0.01016050647944212
0.010155206413473934
0.010125502487644553
0.0100984594412148
0.010081001757644117
0.010042562205344439
0.009965522929560393
0.009879745889920742
0.009835388185456395
0.009854602352716029
0.00988463819026947
0.009887874650303274
0.009895573472604155
0.009931103398557753
0.00996688321698457
0.009973355433903635
0.00996337341843173
0.009972121766768396
0.010004407046362757
0.010036572094541042
0.010062100843060761
0.01009637424722314
0.010139123282860964
0.010161178219132126
0.01014063554815948
0.01008818658767268
0.010025265729054808
0.00996680328855291
0.009927621609531343
0.009915042049251498
0.009917690041474999
0.00991651905933395
0.009907627131324261
0.00990995415719226
0.009934236372355371
0.009961538598872721
0.009973291363567114
0.009973685590084642
0.009978088981006295
0.009996819107327611
0.010023942866828292
0.010042676862794905
0.01004302988294512
0.010028462551999837
0.010008090110495686
0.009986597476527095
0.009969692206941544
0.009965378672350199
0.009962171642109751
0.009941431211773306
0.009917148011736572
0.009919433924369513
0.009944665688090026
0.009953822430688888
0.009926727281417698
0.009893307380843907
0.009888044986873866
0.009904909906908869
0.009922221149317921
0.009938257145695389
0.00995556817855686
0.009964990674052387
0.009979274144861848
0.010025723299477249
0.010080502058845014
0.010096850716508924
0.010082526358310133
0.01006766537670046
0.010055760571267456
0.010041438709013164
0.010022244362626226
0.01000483026728034
0.010005838861688971
0.010026787356473506
0.010045222451444714
0.010030188339296729
0.009971788933034987
0.009900383891072125
0.009850425305776298
0.00982263488927856
0.009808989632874727
0.009820046599488706
0.009855743888765573
0.009886096713598818
0.009895155485719443
0.009903125059790909
0.009926107912324369
0.009954294837079943
0.009967053274158389
0.009948948565870523
0.009908375102095307
0.009875316203106195
0.009865987705998122
0.009864452821202576
0.009842106313444675
0.009801134555600584
0.009785120324231684
0.009815205251798034
0.009856085733044893
0.00987524415832013
0.009888726647477596
0.009925915750209242
0.009981575720012188
0.01002541888738051
0.010040567792020737
0.010037193503230811
0.010034359693527221
0.010031692420598119
0.010014358242042363
0.00998605894856155
0.009963701395317912
0.009951063871849328
0.00994365064194426
0.009933509132824838
0.009912105745170265
0.009891857628244906
0.009895853635389357
0.00992457833373919
0.009961411524564028
0.0099863695143722
0.00998076933203265
0.009953769529238344
0.009940685911569744
0.009945811154320836
0.009935576308052987
0.009913248799275607
0.009925607240293175
0.009969883274752647
0.009986354717984796
0.009953722381033004
0.00990463913185522
0.009866104554384946
0.009844883878249675
0.00983977927826345
0.009840849586762488
0.009843652099370957
0.009860148667357863
0.009895554860122502
0.009937708103097975
0.009971466031856835
0.009989675646647812
0.010003941759932786
0.010026211042422802
0.010041448832489551
0.01003654157044366
0.010023039260413497
0.010009144346695394
0.009988713741768152
0.009962936351075768
0.009951570578850806
0.009969296853523702
0.010001027593389153
0.010024448623880744
0.010037465614732354
0.010044129609595984
0.010040907554794103
0.010027605604846031
0.010017929854802788
0.010027144846972078
0.010047092640306801
0.01005432803882286
0.01004711830522865
0.010046588710974903
0.010058623435907067
0.010068335179239512
0.010074414610862732
0.010092504043132066
0.01012254335451871
0.010137695807497949
0.01011578896548599
0.010078654277604073
0.010069541328120976
0.010087661223951726
0.010100930724292993
0.01011016788193956
0.01012905606534332
0.01013598837889731
0.01011196554172784
0.010076959440484643
0.010058101722970605
0.01006827347446233
0.010098031987436116
0.010112990147899837
0.010097975791431964
0.010082409880124033
0.010089629287831485
0.010099513719324023
0.010094620250165463
0.010092264481354505
0.010098949014209211
0.010094009798485785
0.010070940507575869
0.01004711956018582
0.010029385031666607
0.010006335731595754
0.009985842662863433
0.00999437150079757
0.010029491519089788
0.010061405927408486
0.010076345654670148
0.010080960381310433
0.010084823190700263
0.010097467966843396
0.010116614194121212
0.010129747164901346
0.010144752545747905
0.010187342341523617
0.010249679605476559
0.010291478033177554
0.01028210561024025
0.010241970452480018
0.01019113213988021
0.010133435097523034
0.010094903863500804
0.010102076516486704
0.010130264337640256
0.010134707666002213
0.010115994692314416
0.010105382755864412
0.010102127178106457
0.010080289363395422
0.010037797028198838
0.010002431354951113
0.010008043840061874
0.010059446280356496
0.010120187075808645
0.010162090377416461
0.01020061865914613
0.010247869058512151
0.010277267324272542
0.010271869509015232
0.010260452928487212
0.010267106331884861
0.010265465944539755
0.010228102314285933
0.010178212565369904
0.010152696946170181
0.01015378929907456
0.010159664896782487
0.010159198145847767
0.010155907201115042
0.010152346503455192
0.010153742581605911
0.010166227545123547
0.010179171715863048
0.010177990088704974
0.01016773986397311
0.010159219524357468
0.010158045960124581
0.010173179628327488
0.010200317609123885
0.01020898527931422
0.010181059325113893
0.010141351171769201
0.010119077998679131
0.010108923583757132
0.010088174904230982
0.010048990941140801
0.010013237150851638
0.010009705862030387
0.010037031683605164
0.010074461735785007
0.010102967917919158
0.010100308822002262
0.010065934057347476
0.010034063498023897
0.010026900912635028
0.01003347615012899
0.010033265042584389
0.010024123408365995
0.010031269094906748
0.010063982598949224
0.010093888300471008
0.010106464833952486
0.010116009316407144
0.010133035278413445
0.010163433086127042
0.010206950556021183
0.010246638499666005
0.010270209587179124
0.010283292608801276
0.010288253806065769
0.010280487299896777
0.01026593605754897
0.010253231446258724
0.010237080422230064
0.010203750762157142
0.010155832597520202
0.010127812020946293
0.01014436392346397
0.01017390650929883
0.010172638203948736
0.010147081543691457
0.010129446242935956
0.010131147291976958
0.010143789786379784
0.0101554524875246
0.01016423527384177
0.01018126027425751
0.010212922056671231
0.010241350219585001
0.010236741676926613
0.010198450998868793
0.010156992527190595
0.010126061579212546
0.010093117030337453
0.010059390631504357
0.010045338631607592
0.010051589459180832
0.010050385976210236
0.0100331081263721
0.010032673759851604
0.01006638673134148
0.010099836424924433
0.010114318237174302
0.01014239595271647
0.010189146033953876
0.010205625959206372
0.010164792069699615
0.010098798647522927
0.0100563696725294
0.010046711843460798
0.01004638320300728
0.010047953822650016
0.010051311186980456
0.010032754642888903
0.009974637001287192
0.009904655474238099
0.009870771947316826
0.009886183151975274
0.009927339826244861
0.009962488086894155
0.009965014280751347
0.009940173521172255
0.009927209138404579
0.009940812995191664
0.009951769968029111
0.009946012629661709
0.009941446036100388
0.009946911011356861
0.00996111515443772
0.009980179010890424
0.009991442284081132
0.009993272111751139
0.009995765839703382
0.010004381083417684
0.010020019591320307
0.010032541416585446
0.010026522285770625
0.010003203549422324
0.009976553458254784
0.00995463303057477
0.009940314767882229
0.009934854186140001
0.009935107550118118
0.009941027343738824
0.009953804365359246
0.009965585127938539
0.009975265429820865
0.010000889485236258
0.010048195733688772
0.010088561426382512
0.010094663423951716
0.010077644295524806
0.010063456788193434
0.010047949908766896
0.010013986390549689
0.00997933531878516
0.009979900396429002
0.010019076587632299
0.010063781826756895
0.010080996404867619
0.010071771824732423
0.010063118415419013
0.010068058157339693
0.010077411255333573
0.010081898733042181
0.010083855271805078
0.010095604667440057
0.010116013374645263
0.010121635869145393
0.01011205094633624
0.01011577807366848
0.010128824973944574
0.010113302401732653
0.010066572814248503
0.01003871461842209
0.010062246532179416
0.010106011279858648
0.010122183468192816
0.01010212195571512
0.010080007526557893
0.010092952498234808
0.010137501982972025
0.010176125222351402
0.010180485327728092
0.010158696928992867
0.010135634245816618
0.010116566875949503
0.01009231252828613
0.010070703045930713
0.010069694973062725
0.010085460219997913
0.010100272211711853
0.010108381102327257
0.010109893961343914
0.01009581310674548
0.01006558729102835
0.010044057155027986
0.010050732290837914
0.0100795067823492
0.01012255204608664
0.010169838971924037
0.010194053302984684
0.010184028488583862
0.010169452126137912
0.01017498571658507
0.010182302987668663
0.010170126699376851
0.010152637232095004
0.010147468606010079
0.01015190756879747
0.01015916161937639
0.010158489176537841
0.010141733458731324
0.010124972984194756
0.010127205464523286
0.010133841796778143
0.01012152163311839
0.010102911507710815
0.010102241069544106
0.010103048800956457
0.010075947232544423
0.010047525551635772
0.01006944868247956
0.010125867340248078
0.010146335908211767
0.010109792125876992
0.010070717048365622
0.010074371758382767
0.010105340874288231
0.010130169708281756
0.010140852201730013
0.010143213931005448
0.010132474638521672
0.010103363695088774
0.010074615771882236
0.01007268762215972
0.010093444199301303
0.010108963758684695
0.010105637898668647
0.01009636628208682
0.010098429827485234
0.010109541774727403
0.010116417070385068
0.01012076365761459
0.010133167537860572
0.010142451548017562
0.010128232021816074
0.010099354707635939
0.010079759068321436
0.010069925719872117
0.0100512602343224
0.010023693325929344
0.010011105705052615
0.0100209003360942
0.010035068928264081
0.010048143391031772
0.010069906613789498
0.010087170659098775
0.010075955763459205
0.010050046388059855
0.010035996185615658
0.010022627473808825
0.010002213292755186
0.010004583315458148
0.010032823802903294
0.010047370984684676
0.010036014162469655
0.01002002967754379
0.010005748877301813
0.009988180540967733
0.009965963866561652
0.009929606774821877
0.009881308651529253
0.009851239421404898
0.009861475334037095
0.009901808963622898
0.009941885613370687
0.009952458017505706
0.00993497357238084
0.00992158853681758
0.009932252792641521
0.009962473984342069
0.010008024196140467
0.010059332298114896
0.010082026869058609
0.010052377311512827
0.009999571971129627
0.009963887971825897
0.009946505650877952
0.00993904698640108
0.009952809130772948
0.009992457099724562
0.010038756297435612
0.010068001127801835
0.010071444960776716
0.010057801678776741
0.010043161583598702
0.010038561043329538
0.010043370169587434
0.010039219907484949
0.010005829497240484
0.009960024310275912
0.009935242144856603
0.009922531477641314
0.009891991666518152
0.009849230006802828
0.00982841384364292
0.009844775993842632
0.009874343825504183
0.00989271295722574
0.00991050580283627
0.009953672839328647
0.010028826715424656
0.010105761017184705
0.010145310985390097
0.01014985425863415
0.010149806465487927
0.010150172428693623
0.010133394093718379
0.010109020159579813
0.010108923425432294
0.010123786616604775
0.010110644288361073
0.01007126559736207
0.010046843092422932
0.010040509845130146
0.010021700663492084
0.009991215053014457
0.009976354369428009
0.009984714610036463
0.010005313532892614
0.010027499822899699
0.010043882811442018
0.010051219183951616
0.010049270945601166
0.01004761956166476
0.010058845209423453
0.01006891252938658
0.010055298192892224
0.010032207837793976
0.010030453817453235
0.01005271016387269
0.01007916834903881
0.010092742487322538
0.010088315075263381
0.010071017602458597
0.010037627178244293
0.00997824722668156
0.009918674621731042
0.009904195293784142
0.009926494734827429
0.009937326188664884
0.00992567685432732
0.00992372393142432
0.009946484009269625
0.0099634269438684
0.00994399550370872
0.009903465376701205
0.00987684998428449
0.009873667603824288
0.009879454427864403
0.00988075254485011
0.009872605027630925
0.009856811673380435
0.009842293797992169
0.009831411424092948
0.009819909257348627
0.009819082887843252
0.009836624523159117
0.009847999501507729
0.009836343829520047
0.009827972159255296
0.00984822074417025
0.009881290644407272
0.009895212354604156
0.009873744519427418
0.009820906445384026
0.009764635222963988
0.009742943937890231
0.009752835619729013
0.009750914881005884
0.009726030675228686
0.009709020259324462
0.0097053354466334
0.009686419763602317
0.009650499534327537
0.009631340967025608
0.009647010578773915
0.00968258704757318
0.009716962343081831
0.009735100721009075
0.009725616709329189
0.009700948444660754
0.009695561008993537
0.009720695919822902
0.009751958365086466
0.00976444655098021
0.009760190974920988
0.009756163978017866
0.009759021408390254
0.009767523272894324
0.009775420450605452
0.009764054641127586
0.009725499486085027
0.009684583116322755
0.00967087215743959
0.00968438601354137
0.009704228669870646
0.009714400200173258
0.00970807212870568
0.009682484613731503
0.00964815024053678
0.009627521235961467
0.009626890225335956
0.009632603225763887
0.009639816598501057
0.009653513634111733
0.00967111136764288
0.009688881419133395
0.00971167440060526
0.009737356861587615
0.00973856400931254
0.009693598318845033
0.009638348377775401
0.009636702383868396
0.009693130697123707
0.00974575691157952
0.009746312096249312
0.009703671429306268
0.009653175955172628
0.009618595382198692
0.009605233096517623
0.009612858816981316
0.00963882109383121
0.00966367445886135
0.009664492381270975
0.00964326355373487
0.00961432311218232
0.009589804636780172
0.009583428134210408
0.009595269698183983
0.009611507691442967
0.009625204980839044
0.009632652753498405
0.009633590981829912
0.009643591737840325
0.009671220099553466
0.009697583490051329
0.009705622729379684
0.009702053712680936
0.009708547240588814
0.00974068648647517
0.00978086274350062
0.009802878617774695
0.009811349557712673
0.00980932078557089
0.009782554395496846
0.00974378875689581
0.009721683168318123
0.009709065135102718
0.009688731217756867
0.009679054433945566
0.009690760439261793
0.00969651410356164
0.009690079628489912
0.009692529577296227
0.00969457354862243
0.00968166776234284
0.009673318942077458
0.009680486673023552
0.009696207784581929
0.009731219243258237
0.009788872096687556
0.009837571976240723
0.00985011296812445
0.00982542262179777
0.009770817407406866
0.009716581508982927
0.009708218136802315
0.009741371520794928
0.009762975906487554
0.009741827461402864
0.009686801850330084
0.009627725000027567
0.009607116859406233
0.009638872491195797
0.009679297478869557
0.009687035346869379
0.009679985565599054
0.009693637003656476
0.009712777745444328
0.009694284563884138
0.009641675825696439
0.009595320348162205
0.00957587443292141
0.009576644997578114
0.009606036669574679
0.009655839290935546
0.009697599741630257
0.009715814907103777
0.0097286520130001
0.009757941209245473
0.009798141121864319
0.00982986283255741
0.009848289515357465
0.009865289388690144
0.009886158027220517
0.009900627392344177
0.009899557328317314
0.009882747007068246
0.009851569226011634
0.009807461081072688
0.009758913279511035
0.009723564097657799
0.009714590036310256
0.009724620070774109
0.009732509905006737
0.009727056212723255
0.009714502946007997
0.00970271000638604
0.009692650872748345
0.009694209252484143
0.009723418450448662
0.009762663459405303
0.00977008482441306
0.00974976565456018
0.009749048671219498
0.009771937306504696
0.009771086608525366
0.009733390284236521
0.009694026000797749
0.009673712351359427
0.0096645902027376
0.009658454323653132
0.009653313534799963
0.009642354319803417
0.009622195521369576
0.009609987509902567
0.009624807506334036
0.009658971731550992
0.009681462713051587
0.009671186089981347
0.009647338672075421
0.009641654272563756
0.009652229556813836
0.009661309705115854
0.00966988806379959
0.009682430808898062
0.009683542505372315
0.009660635748878122
0.009631477151997388
0.009621976423077286
0.009637516641523689
0.009665237492881715
0.009686222320888192
0.009694689817260951
0.009704281613230704
0.009721175874583423
0.009733939056750386
0.009742436120286585
0.009759277901612223
0.009779458527918904
0.009789711667690427
0.009791329440195113
0.009787816749885679
0.00977995395893231
0.009772877546492965
0.009764239599462599
0.009746484162751584
0.009728407475631685
0.009721081068273634
0.009713625076692552
0.009696616493165493
0.009685300467535853
0.009696782554965467
0.009726162229198962
0.009758478845469654
0.009787042033858597
0.009811649334151297
0.009831402809359133
0.009843799665104598
0.009850371803622693
0.009856161596253514
0.009867024451959878
0.0098974728025496
0.009953142132144422
0.010003901061136276
0.010014015710912644
0.009984228862449526
0.009934746599756182
0.009885375576559455
0.009864738103933632
0.009878337481059134
0.009885194574017077
0.009864003909751774
0.00984683281974867
0.009852050221525133
0.00985913495067507
0.009856973965652287
0.009849190711975098
0.009831832377240063
0.009810849700588733
0.00981334938434884
0.00985231843078509
0.009897408036049455
0.00990686815464869
0.009878355131950229
0.009843569309450685
0.009825719038490206
0.009826110065914691
0.009837793074548245
0.0098488729307428
0.009839416542090475
0.009803317964542656
0.009767847929615527
0.009755791591014713
0.009755426738411187
0.00975483781658113
0.009760886812582612
0.009776436036918312
0.009791789622977377
0.009801320019178092
0.009813323714770377
0.009832551993895322
0.009844200250227005
0.009827592603396624
0.009785158075392247
0.009750638219993562
0.009751304229721426
0.009776808451861144
0.009802827299572527
0.00981655006064102
0.009816375493537635
0.009813194572925567
0.009817598962690681
0.009822375024668872
0.009822993737179786
0.009830065870191902
0.009843514247331769
0.00985426846658811
0.009864563844166696
0.009873843810055405
0.009873456475324928
0.009866253316868096
0.009862232136074454
0.009859736126381904
0.009850425897166133
0.009836123543791472
0.009822244285605847
0.009805618652608246
0.009782121011521667
0.009751512233633549
0.009715318938251585
0.009678511954843998
0.009650590147357434
0.009642144949175417
0.00966031063348055
0.009702461655251682
0.009750346618238837
0.009781930085737259
0.009789361008442939
0.009780881688930093
0.00977096133865416
0.00976431000046432
0.009756537890061735
0.00976106194080785
0.009797733563464134
0.009839306783396751
0.009836861216463148
0.009806483322754501
0.00980825447710231
0.009841725793667138
0.009845634440425783
0.009801454711705446
0.009759342044126242
0.009758951403200626
0.009787914024200291
0.00981229962548241
0.009814540762454272
0.009809298000764102
0.00982070288155228
0.009849575541447848
0.009879046399146319
0.009896832499653101
0.00990306225605309
0.009904391230084002
0.009907229447271675
0.009914548499509693
0.009909417694434524
0.009865786652080715
0.009803757315967231
0.009778978684917092
0.009807549382094294
0.009862368339672684
0.009915276719257236
0.009950159301515668
0.009947257062885911
0.009924557411577552
0.009913904892746359
0.009914903186727315
0.009905667277052999
0.009889801621902734
0.00988390619168058
0.009875301013235003
0.009853772511705756
0.009839825225062668
0.009839835073798896
0.009835327675100416
0.009822011138312518
0.009812876065261662
0.009816154963336885
0.009827859504148363
0.009835054115392268
0.009833702901378274
0.009837766522541641
0.009853335299994796
0.009859704149421304
0.009838583839591592
0.009813245690893382
0.009819078603759407
0.009843024765141309
0.009841367001645267
0.009806903447024524
0.009781399387866258
0.009797659358009697
0.009833641983568668
0.009846801513340324
0.009838029860984534
0.009842472861055284
0.009867924007121474
0.009892551379743963
0.009901435931678861
0.009891112446784972
0.009869953629095107
0.009859074873384088
0.009872242452111095
0.009898497944232077
0.009914761737454682
0.009910555952228606
0.009890222046524287
0.009866499572526664
0.009855003831908106
0.009857055644970388
0.00985837209969759
0.00985285525675863
0.009847361138090491
0.009846770665608346
0.009854712863452733
0.00987279653782025
0.009890957036986947
0.009896554325241596
0.00988628949271515
0.009862571356352419
0.009831609341781587
0.009806324210949242
0.009800773754250258
0.00981939154677093
0.009857822346966714
0.009900545219425112
0.009911427658516913
0.009870550921186804
0.009813444989267736
0.009783254701178521
0.009773701985832304
0.009757163065951318
0.00974413261283189
0.009771251820493489
0.009834146669600159
0.009881169865839184
0.00987955828430131
0.009858696244191379
0.00986513840733096
0.009890187629498542
0.00988873629597947
0.009852193091064691
0.009814744209870696
0.009800333762541413
0.009799632490612567
0.00979440210852772
0.009780082502402365
0.00976648805430159
0.00975592273287475
0.009737178133800626
0.009718453050591052
0.009716770227532834
0.009719471337739378
0.009709056729916484
0.009689507426228374
0.009671793894376605
0.00967377460328862
0.009703964302316308
0.009730255855247378
0.009728574689943344
0.009727331984322518
0.009736517255660146
0.009722129653673618
0.009688979715574532
0.009680586247704924
0.009697069039102644
0.009702524994499981
0.009691336588002742
0.009684353480115532
0.009683532887138427
0.00967507644323632
0.009659502999857067
0.009651626688428222
0.00966274393023923
0.009690642599016428
0.009723214190453291
0.009751176771242171
0.009773940050508826
0.009797928603366018
0.009836246997583658
0.009890019316226245
0.00992662308504805
0.009915802963078021
0.009869793327525259
0.00981175985885784
0.009752025459893048
0.0097079435759224
0.009700251293834299
0.009735621155705303
0.009796454526949674
0.009838237708900124
0.009833007948473096
0.009812523752916604
0.009820352022070438
0.009846474265214056
0.009857342056930065
0.009846698441542685
0.009824574692174792
0.009806048711761833
0.009805549897719175
0.00981125413440168
0.009806786098051816
0.009807440512813627
0.009827538814861328
0.009853468239307404
0.009869506133254618
0.009870589561760425
0.0098598763323389
0.009845683679450302
0.009827906547579915
0.009808461316861212
0.009801155189052224
0.009803928299807012
0.00980270309606567
0.009807041592430323
0.009830907790455968
0.009855088535696268
0.009852414373308421
0.009830260057933629
0.009823590943124145
0.009855250625405461
0.00990958660375327
0.00994803338777274
0.009955175737850368
0.00995550632243976
0.009966974589042365
0.009976824128534645
0.009982521166093647
0.009994001844897866
0.010001486612018197
0.009989823161158711
0.009959677059669048
0.009920178623870015
0.009887662404216825
0.009886447160970419
0.009920618352480233
0.009955121085513384
0.009950383363757283
0.00991628407035023
0.009909516423940659
0.009954806750174612
0.010007167833391577
0.010022994163446129
0.010011177463456988
0.009995232608634979
0.009981933464296162
0.00997040102723986
0.009955025683157146
0.009931828691624105
0.009912354457192123
0.009903378165327013
0.009888381103519351
0.009854275579564274
0.009808306517079472
0.009770091080572457
0.00976461975602433
0.00979442808078602
0.009827845590189099
0.00984292602399364
0.009846550750080497
0.00985078223515302
0.009868932035751642
0.009906883074436337
0.00994057792238891
0.0099371930770576
0.00989604252623394
0.009844777372200042
0.009807983192149549
0.009784898804500699
0.00976365681970492
0.00975480498978868
0.009771657064557076
0.009797738895285875
0.009818826098926365
0.009849364773835988
0.009895452642813324
0.0099377276096493
0.00996222166577354
0.009968688550870866
0.009962917729280889
0.00995270924642682
0.009935330089647323
0.009909827078226954
0.009902062662877142
0.009937135390937329
0.009988275631330907
0.01000504413852468
0.009988653718028217
0.009979530724231155
0.009983435166068375
0.009971412341110408
0.009940178100951016
0.009914446144830436
0.009902151667047292
0.009887062220368534
0.009859425728209317
0.009837870604824274
0.009841198734939098
0.009859420130960644
0.009884516699239612
0.009924775916151702
0.009967769184149801
0.009980710621457547
0.009961701757274568
0.00994746623095125
0.00995839934097603
0.009977258299477399
0.009985334766097366
0.009981171316467226
0.00997273500310257
0.009972434204537422
0.009985995488241315
0.010009818540420384
0.01003769462229684
0.010057520573027431
0.010066053916234522
0.010075572922360151
0.010088880392722786
0.010100869415327906
0.010108072482980788
0.010100385670084507
0.010074262442067265
0.010042860091198235
0.010013163853436709
0.00997705350164324
0.009939734661020338
0.009925619687419385
0.00993940278654918
0.009958481886424125
0.009966667164117099
0.009970132552552968
0.009986575793009251
0.01001020627329126
0.010002636178396642
0.009951482717879117
0.009905688709113746
0.009912303716409951
0.009947836478240789
0.009961779885925353
0.009955748193897307
0.009961664010770619
0.009976172109600157
0.009975788802839815
0.009968865192495286
0.009979765387251973
0.010005658564623446
0.010024217895697803
0.010023285327479243
0.01001574848080054
0.010028247004374862
0.010057286163792013
0.01006494884379208
0.010040987664833665
0.010020609956700354
0.010026405691169202
0.010038302610628307
0.010030565464403481
0.01001255218172446
0.01001412621466443
0.010027011400088668
0.010017866310663521
0.010010972819291055
0.010048509775660932
0.010094405247364192
0.010094219765160234
0.010069582099094986
0.010069252343382686
0.010087082181125879
0.010098256121855229
0.010115165431052446
0.010146559227723628
0.010173255940899253
0.01018718053586781
0.010190381528809666
0.01017244650516659
0.010134760700166225
0.01010758499847725
0.010108073218725621
0.010109025263227522
0.010081535191275179
0.010043400260619818
0.010034228824079037
0.010061341607943176
0.010100182963069528
0.010133869857527315
0.010156995998695493
0.010156363986898214
0.010124999538529664
0.010075675081461668
0.01002682013437152
0.00999786784639582
0.01000024673063308
0.010020655349362641
0.010036272066645324
0.010037093388382346
0.01002785840537399
0.010024145804345607
0.010035606473684311
0.010046922566834838
0.010040028493385762
0.010022893585264682
0.01000910255825147
0.009995116281788795
0.009968545767478645
0.009930616582278163
0.009905307127628476
0.009906297018751502
0.00991998626384884
0.009936999008059501
0.009960995635483414
0.009985386091284455
0.00999591217143461
0.00999725533882156
0.010001599353272468
0.009997218649368733
0.009975296494085342
0.009960673549212515
0.009971011579036713
0.009986845452804118
0.009989980184473097
0.009986262279562652
0.009983588519971817
0.009987876305822284
0.009996331844013185
0.009980240440927445
0.009931191629730165
0.009888188131153584
0.009870402398519218
0.009861262838821858
0.009857837464660407
0.009866748694330454
0.009883444218430668
0.00989765188889578
0.009901753172744065
0.0099001070484519
0.009898315602913498
0.009890123479999601
0.009878353176172822
0.009870837246999144
0.009854409927502274
0.00982639188412577
0.00981546264141798
0.009835174405016005
0.009866133597679436
0.009892717329785227
0.009913545134477317
0.009918542935047299
0.009901054841466249
0.00987964915810153
0.009877705217804759
0.009905355744995176
0.009956722897477448
0.010012909567449243
0.010058064297772944
0.010083370029460638
0.010088570106308908
0.01009556938894093
0.010127599281258882
0.010167428229469805
0.010184051166288555
0.010177752976305783
0.010154642765410244
0.010117942264769227
0.010095198990311473
0.01010458417236805
0.010118968514725567
0.010116609081160277
0.010123450336977839
0.010159366766456514
0.010194442667998373
0.01020025604404509
0.010185155451763421
0.010157940515782685
0.010115834374446422
0.010068512088619173
0.010034124257508666
0.010008370669092983
0.00996737188193947
0.009913423340767622
0.009877731874585152
0.009876806773245334
0.009899485895875842
0.009922779607586562
0.009931762567721308
0.009929431714117526
0.009925552115309983
0.00992835006909445
0.00994264092296362
0.009961867881938815
0.009975069127976894
0.009984356267377734
0.00999756169738248
0.010007811787072569
0.010004777633585036
0.010009450882207602
0.010048997600097209
0.010095976064912976
0.01010626573348418
0.010087968874722719
0.010068059342447668
0.010047433904837817
0.010024396178778261
0.010010120247025044
0.010006706295534969
0.010003135004080833
0.009995899926871062
0.009985542739741504
0.009962872627656907
0.009931933348998428
0.009914070523809642
0.009904668091330678
0.009858434644993395
0.009872382823377848
0.009950039929244668
0.010037600244395435
0.010075141203124076
0.01004215091234073
0.010005928771570326
0.010022368114441634
0.010097888994496316
0.010219257548451424
0.010351631857920438
0.010455470515880734
0.010537925355602057
0.010644447093363851
0.010785313812084496
0.010925632654689252
0.011028551165945828
0.011083070018794388
0.011116880064364523
0.01116357508348301
0.011216072931420058
0.011259575036820024
0.011321900957264007
0.011430195805151016
0.011555137957911939
0.011655593700706958
0.01173753413837403
0.011830126838758588
0.01193875752389431
0.012036588478367775
0.012092032416258008
0.012095273998565971
0.012057023621164262
0.012030888316221535
0.012011413676664234
0.012002984124701471
0.01201846917392686
0.012045868621207774
0.01204244774999097
0.012002147859893739
0.011970258317887783
0.011970318153034896
0.011975547533947974
0.011956744496710598
0.01192971522687003
0.011942698680795729
0.011942078941501677
0.011886950309854
0.011850218882318585
0.01185980461537838
0.011849804911762477
0.0117821479216218
0.01172396773006767
0.01166676070075482
0.011652167674619705
0.01165099701145664
0.011643228454049677
0.011600592015311122
0.011597538236528634
0.011646832460537554
0.011757780455518514
0.011917493531946093
0.012101279229391367
0.012290063325781374
0.01247673898935318
0.01265365061815828
0.012791870455257594
0.012858367054723202
0.012851304283831268
0.012820149152539671
0.012782147049438208
0.012743336581625044
0.012751968302763999
0.01280003963271156
0.012867304095998407
0.012934538347180932
0.01298050133511424
0.012992725833319127
0.012981378098484129
0.012965713790617884
0.01296009633457288
0.01296809792984277
0.012969364472664892
0.012944999830797315
0.012913087725173682
0.012890327868517489
0.012853023349307477
0.012828082349151372
0.012825771479401737
0.01282441098242998
0.012830378718208522
0.012868363778106868
0.012958113967906684
0.013101279139518737
0.013266606242395937
0.013401866746135057
0.013456539723556489
0.013417401402257383
0.013367254859767854
0.013348727223929017
0.013388523466419429
0.013408527495339512
0.013365536238998174
0.013438548913691194
0.013593829011078924
0.013823245195671916
0.014122860755305737
0.014439424038864673
0.014730302128009498
0.015017620211001486
0.015330972077790647
0.015667689968831836
0.0160198180610314
0.01636015727650374
0.016600529530551286
0.0166614760318771
0.016686712163500487
0.01684173601679504
0.0171236970834434
0.01746678211260587
0.017743002569768577
0.017876011149492114
0.017892050242517145
0.017833360999356954
0.017858909491915254
0.018022486683912577
0.01831092965323478
0.018652116721495984
0.01899382634088397
0.019322583936154842
0.019652842031791806
0.020000043604522944
0.020308358909096567
0.020466557473409922
0.02044172181049362
0.020479225686285643
0.020574791519902647
0.020731593302916736
0.020925356345251202
0.021093124828767032
0.021210242840461434
0.021317301811650397
0.021467320788651705
0.02166855941526592
0.02190933225210756
0.022228522954974322
0.022695735993329434
0.023311572272796184
0.02396303983638063
0.02449143850710243
0.024783226605504752
0.024809142702724784
0.024869495113380255
0.025080947009846567
0.025479901381768286
0.026101694414392113
0.026906830002553762
0.027845667421352117
0.028870458693709224
0.029854671540670098
0.030679860168602316
0.031389008392579854
0.03206100062234327
0.032621077401563524
0.03293070182902738
0.032961210319772366
0.03307635783450678
0.03327978453366086
0.03352090653963387
0.03383289421675727
0.03419278011657298
0.03453958140220493
0.03486810831353068
0.0351967440918088
0.03550658978056163
0.03575512451119721
0.035927966760937124
0.036052225288003684
0.03614224411081523
0.03616878357948736
0.036148386425338686
0.03615982451708987
0.03619438332505524
0.03625635494943708
0.036330677582882345
0.03641123091103509
0.03650678161997348
0.03661439640913158
0.03671289450721815
0.03678647022461519
0.036859887631144374
0.036967793127987536
0.037079096548259256
0.03710949069354683
0.03712248466443271
0.03725213742582127
0.03754583326401189
0.03803576489910483
0.03866358027560637
0.039333277833648025
0.03996720686554909
0.040350846755318345
0.04044677591416985
0.04037181506864727
0.04033611816586927
0.040519393170252445
0.04083552499534562
0.04121596946613863
0.041675270234700294
0.04223983352771029
0.04290684471372515
0.04361199069069698
0.04420972725376487
0.04457890106132254
0.04472744804574177
0.04473218238912523
0.04465563090983778
0.04460719872964546
0.0447467674408108
0.04518404008820653
0.045953374842647464
0.046802910591941325
0.04738471182296053
0.04765372379450127
0.04780795445665717
0.04786623118910938
0.04781039310386404
0.04803046204848215
0.048390512629412116
0.04890894210897386
0.04967976249288768
0.05063156252726912
0.05160208982415497
0.052527050205972044
0.053487704899162054
0.054427073283586654
0.05516542063094675
0.05564157710410655
0.05599414643133059
0.056364319841377436
0.05672471715137362
0.056940553993918
0.0569211612152867
0.05714455751003698
0.057734630149789155
0.0586256526899524
0.05968385915737599
0.06074885485693812
0.06169524176511913
0.06251136558596045
0.0632176954858005
0.06378925136988983
0.06415662111248821
0.06434518489520996
0.0643327300134115
0.06454562003258615
0.06503519584424794
0.0657575083663687
0.06646989999338984
0.06704573179129511
0.06743013682309539
0.06759538520360366
0.06758453651331366
0.06748704254394397
0.06729348509106785
0.06724714882671833
0.06734123528702185
0.06750157668720931
0.0677446165238507
0.06808677967404947
0.06854650886263698
0.06912340395152569
0.06969599553849548
0.0701163535215892
0.07029533091234043
0.07023663289146498
0.0703841101238504
0.07079840593039989
0.07141347048105672
0.07212330725044012
0.07287223706487567
0.073669057211373
0.07452368102502077
0.07539037548936904
0.0761557382484898
0.07668807127745822
0.07692355762701482
0.07694277480011806
0.07711191158043221
0.0773352230200544
0.07756238770438358
0.07778007098240777
0.07797900321660563
0.07813663918524981
0.07826483258977532
0.07847327234223485
0.0789219413115643
0.07964963850798085
0.08049368315842002
0.08135529045015573
0.08218097859062254
0.08292235309956596
0.0834192229458131
0.08339561554370448
0.08342774379067124
0.08355453548254445
0.08373263255693018
0.0840608158800751
0.0845885958825238
0.08517218363238499
0.0856435262132436
0.08602660605916754
0.08641715122852474
0.08678803963121026
0.08709030187688768
0.08740099091548473
0.0877426141127944
0.08808143726317212
0.08835194926708936
0.08845356149831787
0.08843494697008282
0.08840266051702202
0.08837979382602498
0.08844350522151218
0.08864798291120678
0.089093194429297
0.08979243739973754
0.09057539032073691
0.09128388030920177
0.09192316991277039
0.09244730519130825
0.0926737248711288
0.09254390655551106
0.09243515794863924
0.0927371888840571
0.09303147472906857
0.09318544453941285
0.09322980355471372
0.09334781885612756
0.09352472539292649
0.09347318721469491
0.09343656851910055
0.09337683573365212
0.09314345395890995
0.09290112938266247
0.09259791477583348
0.09226099640596658
0.09221409188583493
0.09237716366304084
0.0926994352741167
0.0933145494828932
0.09426065783714875
0.0950498968269676
0.09533027484081685
0.09490672017913311
0.09482295153196901
0.09492759683635085
0.09498815342085436
0.09509968350641429
0.09558455926366151
0.0963222887692973
0.09671983683481812
0.09653103014221415
0.09610023033572361
0.09584274773020297
0.0964688831102103
0.09777050976175815
0.09936250441707671
0.10081406651064753
0.1018859962769784
0.10262724625412374
0.10318958740448579
0.10353085628477857
0.10339962083846331
0.10344211749499664
0.10430108036845923
0.10587904215790331
0.10792471518507227
0.11016307268757373
0.11232908727601171
0.1140383235970512
0.11489554226398468
0.11485405212966725
0.11540353853954002
0.11647827752167358
0.11811222235905007
0.12019285082584247
0.12228513026377186
0.12400261037051678
0.12531330316793174
0.12621527919080108
0.12634539945283904
0.12690651061944663
0.1280657073156908
0.12908969599520786
0.12983391634188593
0.13051781230606138
0.1308467090432532
0.13029930234421044
0.13029402846237645
0.13067787945037707
0.13117114353226497
0.13193497761152684
0.13323842440498992
0.1349063032097183
0.13644718271214515
0.13767431534826755
0.13851731122704222
0.1386449015769176
0.13831594249233603
0.13911210476653652
0.14037694117287175
0.1411061662924476
0.14083600832149387
0.14100447096163407
0.1412328241020441
0.14143790486967192
0.14250664525199683
0.1445477619720623
0.1480980589077808
0.15279498671879993
0.1568821588438004
0.15899956276873126
0.15936520257266237
0.1595062406384386
0.16101295217638836
0.16396094628376887
0.16741007179487497
0.1710747290449217
0.17511391547741367
0.17952879728050902
0.18385402303189038
0.18733332441654058
0.18932635623728855
0.1898295998480171
0.1894591808808036
0.18884743503294885
0.18836700524901973
0.1884377543022856
0.18959802237339318
0.19268717333674432
0.19792441823054105
0.20445445247925817
0.21052479535341262
0.215099383383058
0.21775532099651174
0.21860854668309912
0.2181811294727959
0.2175376169057563
0.21816248700022697
0.2205006052623503
0.2246264258446172
0.23011653195368126
0.2363395130261779
0.24253138670464977
0.24751855209469795
0.25076070277485996
0.25231146566802637
0.2526850230921991
0.25226455710828305
0.25226623023860156
0.2531128226988949
0.2543278070422821
0.2556212493823841
0.2571583061502315
0.25889363426482304
0.26095915790647267
0.26347479832125825
0.2662943152268417
0.2691653425921686
0.27197005103342237
0.27468618150334806
0.2774049143563025
0.28043258433463053
0.28395292061613875
0.2874192640115507
0.2892931732838042
0.2888494943524711
0.2901364106638357
0.29268238845979794
0.29603234700625763
0.2997479965118691
0.3032122907042503
0.30554364711977544
0.3060825373069383
0.30626346843549984
0.3082672351086512
0.3107771794032306
0.31213518772274257
0.3122970204870217
0.3120600199326873
0.31186013356782494
0.311931611080654
0.31264683879679067
0.31394242868525907
0.31535662945359944
0.3166678295889869
0.31792809420498086
0.3190400319895707
0.3199337765807286
0.32087318238802254
0.32217520961072293
0.3237472949642688
0.32501378768356515
0.3248556476831436
0.32564952233573424
0.3270207330980338
0.32850628562504425
0.33009045402752235
0.3319692299934104
0.33440236176596955
0.33729457038221883
0.3396358720748685
0.340162968817167
0.3405094701121561
0.3422553835250437
0.34427895065164194
0.346401532064192
0.34877790136262776
0.3510092385904863
0.35273138077463956
0.35418934556422754
0.35547168836696075
0.3559547385177575
0.356300781944301
0.3572590441745706
0.35838534601032734
0.35953119994606825
0.3605255757202394
0.361091866013594
0.3612741970666684
0.36143531671958046
0.36175267240032555
0.36195569946663453
0.3619871925748885
0.36247205854160713
0.36343236940214413
0.3641226066858508
0.3641724270163104
0.3644641111255623
0.3659646108094603
0.3678235020302236
0.3688279828149825
0.369262977486942
0.371393060234841
0.3747518838662654
0.3782345468970016
0.3805312394094653
0.38161166474921626
0.38214256500592453
0.3823764645541087
0.38182477831607686
0.3817396551067941
0.38306035628309476
0.3852748708240688
0.38701921979198234
0.38802072483114897
0.38744940896751356
0.3879356848774478
0.3898168050730601
0.3922864538268186
0.3950416980404407
0.397785511193797
0.40015768541954455
0.40211045478703455
0.4031637693452649
0.40294888785341754
0.401390706715174
0.4005324827088043
0.40073367989854886
0.4013926378195174
0.4020871479436755
0.40297291286988185
0.4044530901638791
0.4057707038824446
0.40611119907349347
0.40557189463172105
0.40446317378198726
0.4031801243708469
0.40232599042588846
0.4024799961526878
0.40359223635634406
0.40500656874850394
0.40488003248116
0.4038169289403595
0.4025049539003521
0.4009139456227422
0.3994582830159925
0.3984245133865625
0.3976771902688779
0.39708301874110474
0.39690960542531684
0.3964449444762431
0.39567193779628723
0.39491106137866155
0.39407923890743407
0.39355949646793303
0.3933285642485134
0.3934345620917156
0.39337731449399144
0.3936983716650866
0.3939285352360457
0.3931878111534752
0.39241098060039803
0.39158818834461273
0.3904393032798544
0.3889713217620738
0.3885993965924717
0.389331957756076
0.390220291139558
0.3893244234239683
0.38760588922537864
0.386219015265815
0.3868496772879735
0.3886944708228111
0.3919220152986236
0.3961379279056564
0.3998898416873999
0.4021298733376898
0.40149300210177896
0.3984075492946431
0.3952837092173286
0.3935855191666633
0.3929155295318924
0.39378631542669607
0.39429883264005183
0.3940541634708643
0.3930284473975189
0.3912107164179906
0.3888137550512329
0.3863572208653204
0.38399996327469127
0.38165116518968717
0.3796927704010159
0.37857364244060593
0.37807097856188193
0.37823324914555995
0.3792146335495636
0.3804104036022909
0.3807691922527738
0.3789122749539092
0.37413953371346
0.36806441662367434
0.3631312380731106
0.35958510733675214
0.35738665809389203
0.3564762385818176
0.3565495848585851
0.35655450020451096
0.35518410042393955
0.3524918039282784
0.34781279526418074
0.3429632226401009
0.3386976730125025
0.3349306976166554
0.33118628938682376
0.3275446873041801
0.326774112759158
0.3278482162556611
0.33034851478645577
0.3334665140765719
0.3367845642729662
0.3399333431292325
0.3422646410111338
0.34338337536901237
0.34318247185088696
0.3416246085776947
0.33882441916968675
0.336330279300455
0.33414902711752803
0.3322401658841409
0.3305863023037091
0.3291201661014929
0.32752765488810837
0.32558118951506915
0.32388858795398845
0.32363892619032414
0.32527466454077514
0.3244309864169918
0.32159196908352894
0.3175297318212688
0.3130918416939676
0.30912209884496405
0.3062470512255095
0.3051654632599093
0.3053477072087116
0.3045443561952561
0.30370415979763493
0.3034986077458598
0.3035295396461152
0.30367870941292496
0.3035929731326178
0.3032994441245683
0.30320930428104476
0.3044362913421355
0.3065440665511414
0.30804314015433193
0.3082041191402823
0.30756685534957795
0.30654456237796696
0.3051672624400817
0.3040883677080274
0.3038074328005314
0.3034164508548565
0.3047422810946591
0.3068862202111632
0.3090342801762745
0.31121018280740825
0.3133701219316572
0.3148097309982404
0.3147404618631117
0.31302923578070474
0.3104768473445438
0.3097993959649466
0.30983538980595765
0.308227047692053
0.30587212349055337
0.303430715308059
0.3011204454372637
0.299781886220444
0.2996842785854824
0.2998722587968223
0.2995898058800958
0.29921450566733254
0.29908550111111254
0.29863019387237727
0.29851929751224815
0.2991588756395504
0.30049229427007956
0.30207831706153226
0.3033127186819911
0.30399265624815597
0.304351060912013
0.3043081673281267
0.30463569406419994
0.30528687734622506
0.30582359614549204
0.3063592238468118
0.3066253920807503
0.30612058731494474
0.3048952815844677
0.3032109835417941
0.30332257801899687
0.30444338952656835
0.3036169051611796
0.30111778495367614
0.2979746767366305
0.29552691723918545
0.29418175981147215
0.29284569850657133
0.2928474330552854
0.29456097901565953
0.29579456883016975
0.2951743848971091
0.29358249113894996
0.2917078910302371
0.2900636024400592
0.28971936981892216
0.2882344249240123
0.2852662393101491
0.28159050702583044
0.2777311402116902
0.2749773461278528
0.27322715455899016
0.2721434363652952
0.2712950547016226
0.27029553465079514
0.27103245003614573
0.2722382746404037
0.27308070960687475
0.27354657256742937
0.27370846399571747
0.2732534729526378
0.27170805279165505
0.2709082623082213
0.2711864896467887
0.27174601153470573
0.2717252887529321
0.27097619434120135
0.26991532422602177
0.2689340473455377
0.2682548600039445
0.2680413410416804
0.2684431629278697
0.2693698634998873
0.2707409610878676
0.2728601216734387
0.27525067556649446
0.27726822725031525
0.27864103178493677
0.27954913206398485
0.2803120404249057
0.28051797501277176
0.28019256752217186
0.28072951707057653
0.2822349952813238
0.2838007792877033
0.28537669782992453
0.28732820323901254
0.2886672487179749
0.2888690666318871
0.2888082669279538
0.28949974036542697
0.28977885376894846
0.28961011367617173
0.2896313427714631
0.290081726773642
0.28951439932687206
0.2880940356873907
0.28708055504597724
0.28667301781475546
0.2863879383308813
0.28642762758769097
0.2856562799029052
0.28385045771487055
0.2806603323132731
0.27659567387774586
0.27297648082487286
0.269509573567193
0.26615325374994425
0.2648452659836039
0.2645112948049791
0.26480924784671517
0.26597392270108683
0.2662180870957673
0.2658870546706021
0.2645053419587202
0.26175163392676043
0.2611521798581816
0.26186770281521604
0.26235438087722285
0.2619527960103005
0.2609926074231044
0.2603296581865288
0.2612653788854368
0.26285123493755236
0.2644580089580268
0.2658879139483906
0.2669359608646482
0.26710806553950533
0.266492740327958
0.26592765965964643
0.26593977684387937
0.26577119757654144
0.26574345162604
0.26551533218706025
0.26476966274203734
0.2643420608458109
0.2644830224686302
0.26476629578508437
0.2645935477130115
0.2647509601968341
0.26423581821611153
0.2629082961869426
0.2610062733641826
0.25960563727188857
0.2599138737050816
0.25864318429725247
0.256444739678409
0.2536905082827434
0.25008491683518513
0.24573569891043007
0.24156286152545361
0.23794043070403859
0.235721037350595
0.23489205334801228
0.23501224664971232
0.23588174052536487
0.23616256505483763
0.23601111439755187
0.2354790375335142
0.23454905774444343
0.23318262958200647
0.2314578095311299
0.22971088911872356
0.2284470507502556
0.2279535190598108
0.2278599899658002
0.22730505713960156
0.22774222651496528
0.22909174953820183
0.2299326917855069
0.230128118484281
0.23074048371752723
0.2319972136616707
0.23259289012290538
0.23239900537300856
0.23187803088454528
0.23169703227235006
0.23194631204940377
0.23205854930914938
0.2330444600316696
0.2336471600807272
0.23303703839890658
0.23161069633672013
0.22968877342529595
0.2283199113723822
0.22790989001980053
0.22810492577496916
0.22854797564679757
0.22867102277697995
0.22800059839850292
0.22761268126079812
0.22857983221532777
0.22902026484254748
0.22721917457180096
0.22451035356149077
0.22130293916445226
0.21746480059809983
0.21339584870962425
0.21059781931340693
0.2093751302920282
0.20947836394887417
0.20933269672328605
0.20865807780064644
0.20833227547584102
0.2083959469012916
0.20831910717533902
0.20831261281622573
0.20808720455039292
0.20753086438169702
0.207058238228783
0.20727954507572577
0.20850081734592096
0.20956215979764237
0.20977118187816812
0.20838214257266371
0.20547662797151134
0.20228489827597515
0.19922454790212213
0.19714136495022103
0.19656803025864064
0.19743547841440887
0.19945356567623093
0.20091593997785823
0.20115415871376172
0.20085175216430798
0.20065014863386751
0.2009458994329907
0.2013978349417448
0.20118791656335816
0.20115666586905717
0.20044822606490925
0.19940575699787588
0.19863163562025876
0.19846783204702662
0.1986889742873609
0.19866202800301835
0.1982221249374561
0.19820029638009146
0.19715738776372746
0.19525779258226975
0.19350529172224923
0.19238415256608277
0.19187905620783569
0.19223177576437592
0.19360471457010134
0.19518124306807294
0.19569114975631238
0.19572193511994557
0.19653070943430065
0.19809617704711854
0.19938229985302314
0.2005176298879087
0.2017116649961099
0.20309228003257884
0.20471140391891823
0.20438897844636814
0.20325064403237775
0.20293839770602062
0.20295879622688517
0.20254441958619282
0.2014927920419723
0.2023384926468134
0.20311737931333482
0.20309340476058424
0.2025916183600202
0.20227071025408805
0.20229120871052145
0.20199848665157333
0.20156729033682497
0.20130786544410512
0.20158883651485668
0.20218600689433516
0.20243259074632078
0.20181299475487322
0.20028374345973135
0.1981299368222244
0.1956473523005843
0.19410995142068713
0.1938830558862537
0.19421120763057842
0.194961894643493
0.19621877243509517
0.19670618372969328
0.19575405474053695
0.19410847931168973
0.19297923808917403
0.19196818909607827
0.19106507578631862
0.19045699651585893
0.18995555917266757
0.18928241222631187
0.18861697875428945
0.18819971423596144
0.18771619741804899
0.18759111410239712
0.1882335442234762
0.1895185900852084
0.19056739683030174
0.1912921503605321
0.1918803954543546
0.19231372373411432
0.19260519163450227
0.1922642123210244
0.19294303347123787
0.194007033247035
0.19388144046068193
0.19354827410541475
0.19397691388381644
0.19323151075048373
0.1920821206481196
0.19125118425115942
0.19071142938686536
0.18983096843352543
0.18834826326230542
0.18704326508333907
0.18781222054036334
0.18761472676182167
0.18674252195516602
0.18582813458051534
0.18571590101113544
0.18709710658993572
0.18925259330542757
0.1898524981737137
0.18914096923312174
0.1872940203291364
0.18557379238773136
0.18457373124314472
0.18487943564541637
0.18630838307319209
0.1881457817181945
0.18903188651893288
0.18860433825990186
0.1874065911420621
0.18646429804386572
0.18617675182875246
0.18620045624440537
0.18630071739433332
0.18649184437002986
0.18667489195475354
0.18663886733353138
0.18618378165643662
0.18542314300080762
0.18504316424019635
0.18545626661274583
0.1855487822392024
0.18544620583066718
0.1855249473149888
0.18582670190138742
0.1869268509116955
0.1883733635302633
0.18917946469970048
0.18926308621885254
0.189532676783856
0.19000955762574448
0.19080976714147255
0.19206848333356902
0.1938183127855882
0.19583075087983162
0.19761247902177273
0.19874030131148174
0.19918943060562014
0.19911321682622657
0.19975057641742752
0.2007844294165261
0.20141214995412157
0.20163613952696324
0.20236825324594976
0.20232845815829933
0.2016066290764138
0.20130914602428673
0.20120899918023497
0.20048611261881888
0.1991452567349188
0.1978230824577622
0.19666823203442618
0.19558818891411647
0.19463033555774018
0.1941287225787528
0.19398329871241005
0.1931522768805735
0.19276258243015035
0.1929416797310114
0.19206215084530412
0.19038880282081663
0.18839613697258756
0.18695873175514863
0.18615626541664823
0.1860010127653368
0.18642467819852754
0.18661591155687346
0.1852110539842397
0.1835920709487982
0.18217547497944905
0.18101326637202875
0.17993032322032376
0.1791211029351689
0.17906680951593443
0.1797855682275258
0.17989294570405037
0.1791469284379855
0.17861648510675876
0.17820178190479055
0.17809387869667262
0.1781925172312185
0.17845423197140917
0.1787579907500185
0.17861069762846454
0.17804510226938874
0.17714399659540503
0.17590433926787227
0.1749610652262345
0.1742631360865198
0.17374328898033128
0.17354091371642424
0.17384940025163814
0.17438617771957068
0.17422963596181945
0.1746904102875851
0.17554445818532258
0.1759792886930518
0.17558014224981888
0.17467573089525104
0.17372946199262515
0.1728250390617177
0.17201520115602761
0.17149449504911898
0.1711562981060706
0.1706809113989584
0.17084984614048154
0.17141457215417177
0.1719251006632112
0.17236604361562058
0.17257132546277718
0.17264354075305163
0.17302472011651843
0.1738280728342943
0.1745992271974683
0.1748695376748219
0.17491729949368165
0.17513392669614405
0.17540228775236755
0.17578924014000222
0.17617794509511442
0.1760200856742449
0.17482899396680296
0.1731652524881065
0.17290318965446205
0.1727857814123854
0.17164719661697744
0.1701425631251186
0.16857607141369954
0.1670885772909969
0.16560702543472872
0.16410138266161084
0.16283782442566008
0.16231106285005809
0.16167237753979863
0.160010302325245
0.1581855560769327
0.15710869424277918
0.1571539295045659
0.15623935797484592
0.1548933425010182
0.15370854964014144
0.15280285925371573
0.15213283999357372
0.1517732681077905
0.15179990666685625
0.15164473788347096
0.151174120453652
0.15039028382161632
0.14974794515175746
0.14963553107809274
0.149843181502074
0.14989221147960052
0.1495308330724947
0.1493859541369602
0.14969483515713364
0.1493679753667675
0.1485507621965371
0.14748188297497108
0.1462174293352291
0.14505184021545575
0.14467250486835836
0.1446519070654176
0.14414520002668724
0.14377253012033178
0.14391651306999848
0.14474775754613803
0.14601463568396866
0.14694576349807903
0.14681617644848302
0.14744249034672977
0.14897463763365523
0.1506627815286629
0.15195387720363215
0.15286288612755017
0.1534671780304052
0.15376460783649237
0.15356955674476921
0.15337498317705467
0.15381940975785255
0.15466066237771883
0.15454253701958806
0.1539011967740953
0.15336524984566494
0.15294585389783605
0.15246865391498432
0.15212363893631844
0.15183091698912904
0.15142018012003974
0.1507645434094593
0.15020513204392047
0.15015277640661226
0.1506521385232918
0.15086005391087384
0.15061748690903187
0.14950245887506752
0.14733668783679604
0.14538449982879684
0.14367068567313254
0.1420496920705773
0.14100708350073546
0.1409973134775646
0.14197177791036666
0.14221329347230494
0.14106116483453662
0.1388420711667277
0.13744576883269474
0.13696979698259384
0.13682461944874377
0.1363931113947183
0.1364907860895619
0.13721588133834303
0.13818901017541066
0.1387552030198276
0.1391942154453136
0.1400660293106921
0.14145638465881347
0.14278337613213807
0.14344962450210005
0.14359950810670852
0.14354748418554664
0.14315350288990886
0.14271397594129667
0.14259458631044253
0.14267511156853288
0.14286004834342747
0.14260442316299304
0.14216177281690762
0.14207740765297786
0.14274763005319982
0.1428472448559478
0.1424303766596131
0.14157100798795
0.1399816795135848
0.1376136164786294
0.13504601632477717
0.13318247688701376
0.1324258217867464
0.13233411204069853
0.1323605579510331
0.13218015763675794
0.1316512533230707
0.13102179055335
0.13079345622332766
0.13124092155369
0.13217838964192197
0.13300794148351996
0.13312542574247346
0.1328766791173257
0.1338705889158882
0.13535976327955723
0.13637765450635925
0.1366264227661304
0.1366297775763087
0.13654295635176822
0.13698354391846806
0.13763707264792174
0.13791685269447043
0.13772300243377686
0.13775147894863038
0.1379604820907116
0.13839977408293636
0.13903098119655624
0.13932531295577064
0.13940407333662733
0.1392838939325884
0.13902883542235941
0.13884917564457283
0.13885612840298564
0.1386814274499193
0.1383251712634228
0.13797002352308482
0.13791444304166361
0.13830289406934754
0.13881901916116476
0.13958071305882186
0.14109906659461557
0.14309719645185395
0.14413710564840584
0.14418258859310298
0.14475299252662807
0.14561519410228357
0.1466814697138034
0.14787853229325265
0.14897585860220716
0.14976414161501453
0.15029636627063156
0.15080919857835398
0.1508373797801323
0.1503535829228349
0.14933136208215728
0.14818030417198316
0.147505103177391
0.1475000851857476
0.14792824221542106
0.14759624148951844
0.14663911312120034
0.14542356961173936
0.14421280509093776
0.1435551484231837
0.14328766715945676
0.143156182654202
0.14303424877347426
0.14297925976105033
0.14320638336008415
0.14395545261446385
0.14469936106586828
0.14528869743226097
0.1454755488410592
0.14476680310675874
0.1448336146119982
0.14544254685984925
0.14599401626270264
0.14660664849448948
0.14751931410748512
0.14865338273346423
0.14945280734915287
0.1495343956281431
0.1491195496497676
0.14883503643330187
0.1487736829626374
0.14874985572183505
0.14903979618102312
0.14988635249435903
0.15026611631037667
0.15038883893052116
0.1503454282390885
0.15032367617823184
0.15034280432621017
0.15037662424845621
0.15002550760982558
0.1492649879399687
0.14907834020676092
0.14959677906241267
0.14995393280871214
0.14982881593285127
0.14944161726161836
0.14918407150078564
0.14915097768418492
0.14909377781441435
0.14876715531339868
0.14825603594537826
0.14791820897720753
0.14797918543452396
0.14798121116589755
0.14825767384143546
0.1485108551220037
0.14846583920530976
0.1480164689011872
0.14740948708029464
0.1470419136970304
0.14660113521153106
0.14607614889973775
0.14584598035551607
0.14567761157872156
0.14529089599149303
0.14538691450841726
0.1460904514999129
0.147131159119308
0.14817487600026652
0.14889582695905118
0.14905640888493507
0.14871875558048486
0.14855545367114245
0.14830805101664737
0.147499618162401
0.14589504206785933
0.14411679604556413
0.14315082263899967
0.1433918195287697
0.1427992075821385
0.14152846345445141
0.13968927880283444
0.13749786221887916
0.13569149623857812
0.13423292562365532
0.13333113114116713
0.13328518902417272
0.13322903061751276
0.1324758551758714
0.1318557616788894
0.13136178886517882
0.13102374807232992
0.13086750790011137
0.13077100223861635
0.13087557905353606
0.13103094092337414
0.13100855075987056
0.13144149634754285
0.1320900423731655
0.13231671595713124
0.13202187346993013
0.13167183208046482
0.1310532368393615
0.13042175157694147
0.13042338664410635
0.13143919080728664
0.132151776694227
0.13218323539476842
0.13164839242352172
0.13077063273638487
0.12980154292425142
0.12882011997746304
0.12785624030278997
0.12742329052416607
0.12755049254745246
0.12694904464064166
0.12597180048469453
0.1252795249270275
0.1252963841939345
0.12492692425381392
0.12407365361228585
0.12331569448113441
0.12264833428431303
0.12173970317468047
0.1203365662554279
0.11864219842245802
0.11719051922438667
0.11675690162461251
0.11702871406450868
0.11731243937043473
0.11724514429224656
0.11749179301317782
0.11807219974929467
0.11843924065120519
0.11824215189088136
0.1175829520681873
0.1169541426980868
0.1167077719909139
0.11662187831941992
0.11630218452075497
0.11577813695650548
0.11529273895546793
0.11488439417677
0.11474554344778881
0.11467524018837139
0.11438735767966136
0.11410083528840914
0.11418908053310588
0.11479777868837118
0.1147544083953835
0.11401896471856161
0.1127539002429694
0.11133153853006661
0.10984860938508063
0.10839727730723098
0.10735658395802603
0.10707249786006287
0.10698714582948014
0.10614832495804877
0.10537357113091275
0.10533833913039416
0.106336011425592
0.10737705290084705
0.10772402555681765
0.10741782214259729
0.10752477798843757
0.10835520698688925
0.10967577459523455
0.11027987586334348
0.10994486646726727
0.10940091531956568
0.10914755994686857
0.10888175329891965
0.10843952575465664
0.10774140280671418
0.10707062100991607
0.10714472139952705
0.10784468608442693
0.10867363086435944
0.1098033281811513
0.11099059547297657
0.1118264083773829
0.1119280428532511
0.11129792509833351
0.1099313600291498
0.1079252827144228
0.10630446376744658
0.10597747861174867
0.1074046435020864
0.10849893343402073
0.10881092628929764
0.10809565326198936
0.10658471729373559
0.10528814322547987
0.10469777338206768
0.10496533339144662
0.10592341565294192
0.10718990988796577
0.1084547848929651
0.10941086259437725
0.10951285344781354
0.1099756708042696
0.11059619360836223
0.11130072647007182
0.11199028919218108
0.11233470767969266
0.11229028871748596
0.11222329715266824
0.11172594996634871
0.11119766057934612
0.11099380659870803
0.11062811541138216
0.11047088529216126
0.11061724037164822
0.11058218058431521
0.10994765820913016
0.1087651386577636
0.10791751999408007
0.10850512932054698
0.10880040639080107
0.10820231784367934
0.10656865577446296
0.10542880975175649
0.10480591208674013
0.10473713946295903
0.105139783967752
0.10581854498246684
0.1067331626918167
0.10728030350059271
0.1070561859710142
0.10684103129431605
0.1066658306028694
0.10597023660317063
0.10556342316791416
0.10593526065349579
0.10681562419515103
0.10746493443381042
0.1075939384382218
0.10725496620638296
0.10749393470585346
0.10826219259994105
0.10869346586288885
0.10876851348439232
0.1086246477230452
0.10847615206381306
0.10840926551725716
0.10852392057655379
0.10869767720811069
0.10876849363092334
0.10924442846095189
0.11057846957119181
0.11214790046447888
0.11297010306967423
0.1129701175657101
0.11342077459674328
0.1139603118877858
0.11425475773168728
0.11419063597219065
0.11422100772615522
0.11384829895105213
0.11319794552167878
0.1125049926363863
0.11287046317942441
0.1144284292543307
0.11611529065761715
0.11747993402648717
0.11845905888359994
0.11901779903098941
0.11915919573046267
0.11894466703757643
0.1188692378741689
0.12044766624225303
0.122515687297564
0.12431543837534263
0.12548623238224535
0.12608788814395666
0.12608652503229678
0.12622292265994475
0.12659893156727775
0.12703387739835306
0.12727658251533286
0.1274052159837447
0.12743585071992128
0.12720515204593538
0.12719008087413386
0.12738882981939242
0.12773770950734614
0.1283544609346427
0.12911382996710016
0.12934670596616343
0.1292925293534063
0.12910697215003894
0.1287704094662331
0.128816037226934
0.1292127268249169
0.12971942162606864
0.13044474487891422
0.13070129583589732
0.1307863426837139
0.13109002611134202
0.13141549054766075
0.13122705416753888
0.13161566850030795
0.1326029837084934
0.13381341342581435
0.13450364917051047
0.13410369648365303
0.1337645047926344
0.13484031631611287
0.1365406811516732
0.1379843559791334
0.13883374030701817
0.13937677592271938
0.13957824901444837
0.139390569080133
0.1390552885644138
0.13888627272564918
0.13901617318624632
0.13952633659821004
0.14057587495306506
0.1419809803017415
0.14326318910345434
0.14421144050778822
0.14476247116457672
0.14472154049668462
0.14539734460180626
0.14645284852944315
0.14712463691597805
0.14778988846810534
0.14917075291275977
0.15116384532302618
0.15226535590365528
0.15207224037731065
0.15192728981375694
0.15245403393404558
0.15328197969589383
0.15391337946522982
0.15426112718181684
0.15463908567791804
0.15491091685835273
0.15456012641312555
0.15462410625070333
0.15484146919101477
0.15487971673021092
0.1549251349410042
0.15502947058994324
0.1548705879296176
0.15451859392225742
0.15428810375044122
0.15419790731975808
0.1542095367005095
0.15443393599009142
0.15454124927753582
0.15436953260563313
0.1541493733599782
0.15402250230545178
0.15420227131340652
0.15481459959642963
0.15493159727193415
0.15425113941542803
0.1531108825816773
0.15196769748348743
0.1512505479552783
0.15150631577242166
0.1521810599998571
0.15231096853967757
0.15171288477256895
0.15030939746648073
0.1495779175311327
0.14958846972556786
0.1496876006689854
0.14991034572944045
0.15069856290239841
0.1516862585931085
0.1525360568263568
0.1530368283716962
0.15271677484037355
0.1520726243732497
0.15119762601796538
0.15042928892653434
0.14971900084987283
0.14887225148733704
0.14830595519859344
0.14827372173778713
0.14855199383571743
0.14876906712772325
0.1484185175341554
0.14766028168145567
0.14632017883239315
0.14479688060935586
0.14365854567615316
0.14324219297850505
0.14363997775828466
0.14404333491809665
0.14369338806951418
0.14255793567746877
0.1414459341391921
0.1401959574664943
0.138846217317041
0.13798160963924602
0.1380135397729464
0.13745485711842775
0.13696476559853182
0.1368439272744581
0.1371092784870416
0.13768548788502813
0.13843195184133947
0.13899100789334626
0.13929529915098102
0.13901574040064588
0.13906608186895028
0.14011080846656113
0.1412318994337693
0.14204878681804986
0.14292717840289698
0.14393656078493222
0.14476291527971624
0.1449475982435979
0.14420366600155832
0.143308136141859
0.14297692959662528
0.14374184226617218
0.14416868324158713
0.14423677700571716
0.14384505461668595
0.1429460483347066
0.14173059805762023
0.14089346524793656
0.14052263610530644
0.14081494682468473
0.14112645477754995
0.1414042410836555
0.14194324966287242
0.1416406196821481
0.1414956957567483
0.14177037738962098
0.1421779639669694
0.14260583664523438
0.14297570587601513
0.1426743437233381
0.14191733130486683
0.14143094813684
0.14116486928192898
0.14094684398267418
0.14102848802693188
0.14208626453764736
0.14333009297028185
0.14405569260008633
0.1440332155721262
0.14430214019492268
0.14436813020147382
0.14464917030418292
0.14602385894628242
0.14869776387233288
0.15016936471452935
0.14978657762752845
0.14973551391856746
0.15062060398748145
0.15087021693820135
0.15083774530561642
0.15127805525204166
0.1519661494717002
0.15135965146124364
0.1500990820513107
0.14858093089889735
0.14690821790136396
0.14494047433137894
0.14382687845267356
0.1434633011277765
0.14347648681607097
0.1435228954302147
0.1422270889650099
0.14011324279010295
0.13803041201084854
0.13664401651360095
0.1360864998959005
0.1360510949511081
0.1358161985850893
0.13527933773817494
0.13461293153697626
0.13435006734449417
0.13474592727841808
0.13560463725822047
0.1363132880651392
0.13656241469318048
0.13667374122655018
0.13704085025005042
0.13759942703414707
0.13786159295821562
0.13744720918824896
0.13765592427225784
0.1388026191201061
0.140739845756907
0.14256488593062386
0.14336245541926473
0.14291861487086863
0.14249723888002336
0.14224289041711016
0.1420864911051467
0.14226215253584087
0.1428665385907516
0.14374476647237316
0.14371553708333523
0.14251250291476025
0.14029618412954734
0.13899476397084073
0.13918945061042906
0.13982010956853627
0.1395926118292846
0.13893349057761953
0.1381522651645355
0.13733705954626202
0.1371708634728566
0.1376541299861856
0.13852618902921676
0.13925237853312866
0.1391636373777874
0.13896786217344925
0.1391546763991937
0.1393080147425644
0.13932875699130817
0.1394456257740967
0.13937471413286404
0.13895653548184783
0.14064000905724242
0.14248535900609569
0.14421618619700893
0.14563850506674497
0.1461242848262191
0.14525799460941927
0.14341081695631147
0.14265939058735966
0.14380240480881185
0.1452658928348683
0.1460858695744537
0.14618232399690897
0.14542261650087313
0.1446517402632162
0.14450902943266555
0.1447152732219547
0.14533501978497954
0.14555299570783972
0.1461185176251456
0.14703927604248748
0.14765007193433122
0.14750866684596986
0.14693327268119902
0.1466191799286753
0.14629464671947062
0.1459903045115061
0.14589503531111403
0.14608880998333917
0.14662312628002838
0.1473871973436326
0.14773296531755478
0.14741884458111598
0.14702262718230485
0.14640229997225107
0.1459269285434857
0.14576148367719724
0.14604189774021506
0.14637720849830657
0.14634551195194945
0.14566345734056085
0.14482640691800042
0.14394559613196178
0.14341540722409263
0.14362511393148453
0.14358821169473232
0.1438191949785687
0.14449328266549855
0.1447724922397174
0.14398706200066955
0.1426740315486677
0.14177401527995243
0.14148121975362302
0.1414809671905823
0.14240353098371997
0.14389583833981306
0.1451025976287201
0.1460610813391395
0.14729820072185248
0.14829133349470794
0.14827264710795135
0.1479734134906903
0.14841387704946102
0.14926235414342956
0.15005093372194098
0.15044089009985329
0.15014996810117737
0.1501596931088716
0.15041889823973179
0.15069390255725013
0.15076523336814718
0.15073650462552904
0.15075456300284715
0.15100131565937772
0.15178205297561362
0.15308564321137966
0.15431829230394215
0.1551152598578483
0.1554031709348783
0.1548219450004399
0.153890651462134
0.15318974873516708
0.15302145298803224
0.15340664030984044
0.15396584431175142
0.15432757401140407
0.15454576594522224
0.154173387454357
0.1533973082411103
0.1521264879172668
0.1505211243405938
0.14892735393485054
0.1476976812281646
0.14714982414152472
0.14736273563699798
0.1478732948959805
0.14764005301054567
0.14745650707744062
0.14680014315759762
0.14581181321525946
0.14492065366823226
0.14431378450710328
0.14394748309161515
0.14416468223091214
0.14433356883004309
0.14417788445483892
0.14394236541353167
0.1439934771321714
0.14428831902565434
0.14467529508052393
0.14543186506722122
0.1454830437223427
0.14489772495348008
0.14402697783196344
0.14325686410302296
0.14279445665888488
0.14258203667588532
0.14263585935346781
0.14273143202764912
0.14288065136410297
0.14301614867988974
0.14272591639542953
0.1419805702380836
0.14096551957307382
0.1404713671305217
0.14113702543778345
0.1413439568085596
0.14082001124508678
0.13943190468475222
0.13711664538597687
0.13491194560425357
0.1333865580172278
0.13384740479988977
0.13484305126825347
0.1355978456325829
0.13611022903583944
0.13575268819229677
0.13558895712485536
0.13592567645711826
0.13706316750030964
0.1380582013609819
0.13865154538303615
0.13894542674999685
0.139043672461994
0.13901708759833128
0.1390485566528514
0.13914143244270236
0.13921422249171883
0.13920662065502257
0.13912334791384637
0.13892241347348316
0.13892369348555803
0.1390217852778733
0.13923969489289448
0.13931574403541164
0.1391755010560155
0.13941760431043804
0.1397393434494734
0.13967722571687774
0.13925500211771577
0.1387374970410019
0.13819147329078987
0.13755350502207875
0.13673682002816348
0.1357497470988892
0.13498644290491937
0.13487619489198552
0.13497686675051226
0.1345780896116048
0.133562800725922
0.1323763952543959
0.13152180173434316
0.1315496807661839
0.1323639888688922
0.13355306969722733
0.13477584657492117
0.1354107255465351
0.13507903811056166
0.1341417683311738
0.13341033078962938
0.1332630503945984
0.13329178039217368
0.13394212398445235
0.1353067630366422
0.1366440970194526
0.1371564646717161
0.13661790853599087
0.13656677642371506
0.1378082728292793
0.1392378916312009
0.14075432282174005
0.1426922108605504
0.14516711650881917
0.14802818418480457
0.15002501123119147
0.1504287491296418
0.14932746234349906
0.1487716191005893
0.14867277207318694
0.1489570209127851
0.14967538453638554
0.1485746399476193
0.14639658376341685
0.14397336080670356
0.14183515087235718
0.14022095731226727
0.1395136751444079
0.13946681837784125
0.13891109770629556
0.13801428164122626
0.13734098607907072
0.1372718897718005
0.13777832800988107
0.13867701775860042
0.1389569279178977
0.13826501512667164
0.1374284488731064
0.1368934431183152
0.1366934041166678
0.136356681548059
0.13587247469229624
0.13556909161154182
0.13555729722371324
0.13549520816886798
0.13548327514901756
0.13536684530088677
0.13552755487617105
0.13577587799169122
0.13573623076546937
0.13541036503156648
0.13508993474999442
0.13516457362333312
0.1355769391753711
0.135649872738868
0.1357530985143967
0.13572312821168453
0.13624501408776268
0.1370342097245157
0.13780205772258342
0.1384797679586336
0.13917787136510015
0.13950328739127144
0.13952457888051867
0.1395878262980841
0.13967159590683878
0.13932436247821897
0.1390403687558137
0.1386647223471664
0.1384071011072956
0.13860695094568654
0.1389240299584344
0.13877148998901248
0.13879041088977828
0.13902295742882415
0.1384914497914724
0.13762188869528472
0.13684536807239056
0.13611614918801934
0.1353624769952148
0.13522609716979786
0.13659701497526838
0.13881808195030318
0.14063872817438094
0.14191411404171958
0.14256898095831275
0.1426641136733815
0.14329544378444553
0.1448429480358027
0.14658656395273284
0.1475631604436785
0.14761490038130431
0.14727210202720017
0.14744139692978933
0.14695552916964516
0.14604285469744355
0.1450238529103808
0.1437080504046753
0.14338261342374609
0.14360022839158773
0.1438367306138389
0.14380258540157229
0.14342450998490677
0.1427296791295521
0.1417448557098396
0.14061510362196714
0.1397842358611524
0.1394869587663561
0.13938062561443076
0.1390634084609337
0.1386954725976102
0.13882060200208798
0.13927969340234994
0.139562075517606
0.13917857820168136
0.13853981147054584
0.1382090137829073
0.13842058351496234
0.13812406925251708
0.13845705721294507
0.1391789553174749
0.1398750161519274
0.14075627851765604
0.1421875860914588
0.1435315943788737
0.14423445362132042
0.14412525357212871
0.14476525019621478
0.14572140918346121
0.14643278535688295
0.1469374718540348
0.14752352220471948
0.14819578498601912
0.1487277202331461
0.14901789163937793
0.14900716525269672
0.14940215243957936
0.15031069505494088
0.1518028975930065
0.15327794913202525
0.15422804673202337
0.1544768894603476
0.15462540732463823
0.15472343687200918
0.15456155891763046
0.15424861285369842
0.1540973877045326
0.1543281459948048
0.15493685075314714
0.15582638341700658
0.15654202930862085
0.15646118777338416
0.15711188602028414
0.15735561831621453
0.15628628498408945
0.15448250672081484
0.15379029185511173
0.15452463583787904
0.1551845720014535
0.1556490154680796
0.15567739758873358
0.15483092030044646
0.15428336889250205
0.1545994110708125
0.15501975399674847
0.15480067478725687
0.1547614038013853
0.15493200516793876
0.15535747981863096
0.1559943736344576
0.15671022205846385
0.15734939959598704
0.15736473482102156
0.15733822038630024
0.15779936562292277
0.1588245800905861
0.16067448123823852
0.16275467591593043
0.16457786773098632
0.165930689801462
0.16682731665438041
0.1671564547321759
0.1673246674053371
0.16854642192134633
0.16998759123729543
0.1710246659675613
0.17161804765230046
0.17213470876449719
0.17202325717080386
0.17155687605496495
0.17092774219112472
0.1703349736589007
0.16996001304592936
0.16997685874579474
0.16926736675668508
0.16748963062418626
0.1663137719570659
0.16569645091425628
0.16564728389959782
0.1662530718417838
0.16720989333000033
0.16818459747824818
0.16931164840236307
0.16865818043937908
0.16634653530083596
0.16406373443081976
0.16257365043275057
0.1624050885392353
0.1624038320593536
0.16171994981123133
0.16045718599110842
0.15895554466871545
0.15752091301605106
0.1558597329328768
0.15362382274353878
0.1512618345930241
0.149918895913288
0.14989713658811524
0.1494484819448553
0.14880898743867874
0.14844873117050156
0.1482804556633346
0.1479904689034447
0.14764613473555074
0.1475758909061551
0.14782678068149835
0.14848284516017884
0.14904121719533578
0.14971186935901643
0.1504749524476938
0.15061581714078784
0.14982949590543285
0.14827091475715862
0.14663854751270264
0.1454619758669287
0.1453379347291775
0.14623907925095408
0.1475806094170548
0.1483868650556542
0.14831657148199157
0.14961458870442584
0.1516172564844601
0.15304139227839186
0.15330910904332995
0.15385399965802207
0.154988548620604
0.15699387567816303
0.15956972875865177
0.16257954236585648
0.16521776628680526
0.1660670882393606
0.1661594621092081
0.16692356950603426
0.16759692368097603
0.1680165953724645
0.16811363147338854
0.16815805500606074
0.16793601581593975
0.16728166834684088
0.1664552516886033
0.165796989062801
0.16531714835902675
0.16485615473939105
0.16482718478422612
0.16476527065504343
0.1645777745032683
0.16475514642894268
0.1645028201933019
0.16407174396328628
0.1638584712566808
0.16373850528849287
0.16370178082957865
0.16374071853468194
0.1636972823902033
0.163984006755054
0.16436624076450243
0.16440450395690276
0.16407526317983867
0.1637718063709326
0.16384204073576256
0.16406616997439413
0.16360358756268398
0.16174847454065458
0.15975089782616123
0.15881221254589037
0.15866388409165666
0.15956300084479152
0.16067095644772053
0.16051443700445817
0.15941358458483593
0.1579201583797112
0.15765802096109838
0.15854082505218683
0.15933178298175335
0.1607074236823246
0.16269680725876243
0.16457934254780412
0.16609009624226018
0.16604212406324223
0.16557569814380257
0.1660141767282039
0.16683399657253176
0.16717352823121473
0.16736279597971587
0.16803297269623726
0.168736514498014
0.16904639210784808
0.16927603534655644
0.17032480116700754
0.17188863299554213
0.17344973547384143
0.17433311060303822
0.17503403736278414
0.17608066521584986
0.1773251778469421
0.17810501049039884
0.17849041771143676
0.17883743141312153
0.17941193577367812
0.17964740502415225
0.1794388097105548
0.17874822037760169
0.17756775925168766
0.17608535079052673
0.17472713019000366
0.17413729690480978
0.17481584929395466
0.17486504475353284
0.1741410207026638
0.17330067197792232
0.17302184339147061
0.1734250785293989
0.17419169167988002
0.1749374327948317
0.17536350540816784
0.17554145228816195
0.17514276687288657
0.17441690324107184
0.17389531418913975
0.17393549204338343
0.17448161986190824
0.17560155065730215
0.1769533346965909
0.1776233257818967
0.17766319224610924
0.1780834153550677
0.17875732601620256
0.17906966894166543
0.17857216122793035
0.1772149712825194
0.17760983093408866
0.17880602988414465
0.17885797951137647
0.1785850269976072
0.17889635720755906
0.17984419715357944
0.18028614613693209
0.17982260642107575
0.17887556574773045
0.17819797597127035
0.1779212593450211
0.1786759488610551
0.17962259772233666
0.18038615590892731
0.18173987025162205
0.18304093556012957
0.18334244923433288
0.18303460237337277
0.18226640129927546
0.18224972022231667
0.18292408945038915
0.1843467046925798
0.18637906050076708
0.1881108833430335
0.18876707644900306
0.18816099440213294
0.18650361381703986
0.18426260837586597
0.18175367795163766
0.18022006273968144
0.17978227383922785
0.18015978373819963
0.1809024275513366
0.18093730555614457
0.180937892657239
0.18118551285238937
0.18131789085455238
0.18085087349638343
0.18060905751306564
0.18074267800431698
0.18126211645081639
0.18205677425954492
0.18311605998314917
0.18373635610565542
0.18381116461241617
0.1842915433156304
0.18417931806994603
0.18369604845531284
0.18315940064378083
0.18271575550548733
0.18182041208492591
0.18081211383687332
0.18021921350620687
0.18062067945487797
0.1817989562288858
0.1826653985865414
0.18312897777417675
0.18302394183818252
0.18425775084877385
0.18688896633451804
0.18964999131858348
0.19073612291365863
0.18969854612601922
0.1882495744829066
0.18788272100966424
0.189078114265576
0.19119081410113722
0.19367454367224127
0.19561303517548367
0.1964006886165589
0.19596985845593737
0.19559847515542061
0.19622328475350514
0.1969688839581795
0.19699289768002928
0.196668496071361
0.1964062658045441
0.19592724964255467
0.19526640902273357
0.19508669462986292
0.1952258089883253
0.19538422068813815
0.19536669430555775
0.195530753727071
0.1956287931278348
0.19611302193254232
0.196483226318378
0.19647137893596664
0.1965539847733453
0.1968290546350181
0.19538575106533243
0.19295380539959298
0.1913059016969055
0.1919015247002244
0.19345595579594374
0.19467792086303234
0.19541102584684267
0.19528739685891197
0.19406497000250966
0.1924049552739598
0.19159394600195812
0.1913105939142406
0.19082448203116656
0.19059863955713807
0.19049261461244896
0.19055202789837494
0.19084976539714263
0.19094817879376932
0.19108969602035358
0.19148238288238645
0.19217558389762415
0.19320429666666314
0.19468705419218169
0.1961278864229098
0.1973565043392591
0.19822870900621636
0.19855394216021524
0.1984428240242414
0.19868925864575432
0.19890271358191966
0.19920049941632897
0.1995815614121966
0.2001425353786908
0.20070781972957774
0.20128902299562468
0.20177346769953147
0.201921254650224
0.20162671878002583
0.20143209805712103
0.20090471726842224
0.1996057797013782
0.19851070292061196
0.19902411937713624
0.20004321172600611
0.19989476596936584
0.19865405954886228
0.19755615202477203
0.1962794625107199
0.19459740706486628
0.19350168333621695
0.19347228542203085
0.19390408460982145
0.19452492428477852
0.19505966344848275
0.19469073594314978
0.1930170227237977
0.19099696656689047
0.18999278168193995
0.19002498985268176
0.19004817766137422
0.1908297171583399
0.1921349338325672
0.19349261210067198
0.19408862949348987
0.19361279463628306
0.19287548579275607
0.19334595288150014
0.19465931414393708
0.1954081153869629
0.19546618676977232
0.19536825202405453
0.19503549115965144
0.19379694166826084
0.19316982592921705
0.19286744822515176
0.19257827377179637
0.19222702605184167
0.192018155278638
0.19189179134787993
0.19159028752706944
0.19128513805335387
0.19134246328379959
0.1917410167842172
0.19201670659705997
0.19178098526084797
0.19173249062383546
0.19196274587418885
0.19244699631351977
0.19261872765608132
0.1917295471439138
0.19187981019960718
0.1915602000756189
0.18973863038001582
0.18855372108053417
0.18863379787188023
0.189746806868352
0.19132696637883784
0.19276775726350023
0.19327427385840565
0.19267939801327885
0.1913438632641919
0.18970720865530893
0.18912359075853602
0.18927834536181762
0.19023217007052154
0.19068777951644733
0.19026902570854873
0.189498358881101
0.1891641658358276
0.1896507807006128
0.18873109073145314
0.18716810304438694
0.18576983465347438
0.1848325889906846
0.1844324492290616
0.1846589000732638
0.18540837920969352
0.18643596784677358
0.18698060139315203
0.18637030853191391
0.18583123688120395
0.18604770119767636
0.18657448984216898
0.1870107683283277
0.18744345601648094
0.18791777472943066
0.18777018841123208
0.18787234307965264
0.18986627916339785
0.19095129077555612
0.1903818011167459
0.188438562261872
0.18673222437268122
0.18580123832682147
0.1856780828535557
0.18618037855951117
0.18674187939614056
0.18674342897487806
0.1871875982079655
0.18751339653274043
0.18745897624408825
0.18738354256842285
0.18745364897884428
0.1871620938158594
0.1858815408218652
0.18460628956789152
0.18485457920236514
0.18617311072070153
0.18657118363073097
0.18605768658453598
0.18589244673959912
0.1852313634636812
0.18422851035371424
0.18376506450818852
0.18362323524430393
0.18355547888204454
0.18479677777038886
0.18651706312783062
0.18702603795798495
0.18787533607101067
0.18927947617368773
0.19062706121243536
0.19220720562385396
0.19385726147331298
0.19564039445482195
0.19769955449039117
0.19944550471380354
0.2001343414792791
0.19861604930832982
0.19617953141918407
0.1940066017047502
0.19349974508862944
0.194549812823534
0.1958144677709788
0.19667458263691515
0.19667829170590267
0.1956258005904965
0.19420896513387562
0.19338307031663135
0.19363786679925396
0.19482357756933197
0.19541544365463778
0.19450043351855129
0.19423936781007797
0.19463096009101719
0.19531668303534389
0.19605615846347063
0.19703367374371739
0.19785504618892447
0.19783186368411407
0.1974784155935049
0.1972245676536113
0.19737087024608627
0.1976168802427128
0.19786855387501417
0.19753872730070726
0.19750254148384555
0.19850119182141499
0.19997286035912112
0.2005185318714939
0.20064717152621597
0.20204512900207192
0.20348381979390978
0.20444526536855848
0.20538097291020677
0.20620527839986608
0.2062553233280778
0.2052564375172369
0.20378324087709188
0.20264470192138107
0.20226249769097193
0.20255003863247112
0.20263897097436712
0.20243862682254984
0.20201296631712468
0.2016584608145058
0.2015148298908025
0.20128931258339436
0.20072951551526785
0.20009586732136087
0.19947264510672538
0.19892557696904986
0.1985013580438681
0.198378535262309
0.19855653744656593
0.19875082893529908
0.19901785492897034
0.19973811745410786
0.2002638493361883
0.20067758261458948
0.20045786154223605
0.2002901992504485
0.20096763543551788
0.20145617691567166
0.20099953977856785
0.1997015855018981
0.19930077571887522
0.19936875025741757
0.19972644822206348
0.20071940569207072
0.20160509896930306
0.20149109383812175
0.20039544992148875
0.1994200074998662
0.19950184173416347
0.20026805152418092
0.19981247624149545
0.19979155423119666
0.19999753105454146
0.20112647933186964
0.20231040088227017
0.20196637546643614
0.20090711267199368
0.20066417090361938
0.2010832303855568
0.2017890014173463
0.20206123916432261
0.20171929154312238
0.20167110104346647
0.2017956652934663
0.20037663163850084
0.19861106623196975
0.19784493568353356
0.1979253778210841
0.19792056478792802
0.19795405231183394
0.19718346218811347
0.19607790559064597
0.19447146373800933
0.1932296531787142
0.19280371780972927
0.19280639455653728
0.19316748435609044
0.19247076703002677
0.19187932586763054
0.1921316333534196
0.1929233413375914
0.19351042524678633
0.1935314605315216
0.19311530135339125
0.19321722687222065
0.1936052455077879
0.19426825223490596
0.19530262195738032
0.1966565315052867
0.19724786288570612
0.196893116037827
0.19588734115939588
0.19493694198783487
0.19501418546307833
0.19422634989023208
0.19373522655339911
0.19442060318309815
0.19455821958836167
0.19422960162628441
0.1936578124202788
0.19251160952961072
0.19089525250717998
0.18979006057837977
0.18892660630866887
0.18849120484432205
0.18862429463071748
0.1880381025467068
0.18709340161178262
0.18598605362465606
0.1850178347993642
0.18457122220890596
0.18457886354532094
0.1845620254287496
0.18429454085882754
0.1842745868419297
0.18488396992674097
0.1854595764656551
0.18527823544340208
0.185220640047919
0.1849397691176273
0.18432515899883584
0.18373672842048108
0.1836646789358929
0.1844475583662279
0.1850291550392285
0.18433875506045297
0.18239930520998315
0.18030092152301222
0.17856666371924804
0.1774674088205211
0.17768836893839762
0.17817529819440098
0.17712438454385848
0.1763126555085182
0.17699585521360858
0.17908374660415574
0.18061153698945417
0.18038743524812162
0.17993656466016547
0.18073486304376274
0.18194420621264726
0.18309840249363332
0.18352793553611263
0.18376380624016747
0.18444645632524043
0.18515902092214673
0.18520812640199438
0.18456553839612752
0.18439734489656984
0.18470984051236883
0.18403345243539662
0.18277721087681129
0.18204432975267992
0.18196462018182502
0.18141596971079707
0.18126138464547695
0.18133419298799708
0.18088607459329067
0.18065830654697493
0.1804640447674319
0.1795844520162791
0.17852494563907384
0.17820907689630985
0.177788972328417
0.17721704233204946
0.1763758522341959
0.17459538921481
0.1722759248968214
0.1702891405322589
0.1681979809096083
0.16637165541993454
0.1657434093509801
0.165579087624792
0.1648111917078495
0.16421296598156915
0.16373765806201845
0.1630565256299451
0.16166871033608912
0.16123917785240338
0.1605885822721757
0.15998909719986842
0.16022524368483573
0.16033038155175747
0.16015901589533313
0.16015256312442944
0.160762293364387
0.16200228272005915
0.16201725106686354
0.16169675398385153
0.16210956000955776
0.16259412911487744
0.16297221171669662
0.1634529598755762
0.163910095395986
0.16414097502594813
0.16435341522097588
0.1643627305701375
0.16416344980942085
0.1642346362792887
0.16411850042641163
0.16323753575095906
0.16155148262623698
0.15982295166235416
0.15920571881579235
0.15894166510319338
0.15742828244809062
0.15599036533152685
0.1543003965355456
0.15191496094455942
0.14940441976301372
0.14776379253948108
0.14716607207199559
0.14700367321493105
0.14684824835974722
0.14690942253917455
0.14669949285918846
0.146283808411099
0.14596535238903016
0.14600695121102036
0.1461677618836984
0.14606016300152988
0.14595959298778324
0.14630112648010254
0.14676024308195337
0.14708907810272648
0.1471991005563177
0.1469216314307414
0.14582309224875645
0.14464190397644416
0.14422667985549198
0.14414984436938538
0.14389278929214924
0.1430781589099206
0.1423489970108494
0.14260009379358962
0.14306620217859745
0.14270729447482153
0.14213726712856442
0.14190620134351775
0.14224965299479664
0.14211364875314758
0.14231154409470037
0.14213040898088367
0.14101560837589205
0.1408452529204078
0.14191998832393438
0.14371788981370628
0.1455041109607555
0.14686052145902068
0.1479397315485403
0.14902312525082378
0.14872100844047964
0.14911866370588542
0.14937637403607368
