519
519
512
519
523
516
504
504
500
494
493
491
495
494
495
500
503
505
517
524
524
529
531
523
512
507
504
500
499
504
497
495
499
504
512
507
512
513
504
511
515
516
521
520
516
514
503
505
500
499
492
489
492
495
498
504
508
507
509
535
551
547
551
529
509
495
495
497
494
496
492
491
492
494
506
506
512
518
516
518
520
523
525
513
510
512
509
509
507
505
490
478
483
493
506
511
508
513
511
522
521
511
525
523
519
518
512
505
509
511
495
484
491
498
502
509
518
527
518
521
521
515
510
498
496
501
512
516
502
492
491
499
511
515
520
523
521
514
506
502
496
506
510
516
514
531
521
505
494
487
485
497
502
516
528
537
540
528
502
484
483
492
491
507
519
529
534
511
496
498
492
489
496
497
507
515
517
521
519
519
523
527
522
512
508
503
504
502
497
500
496
495
504
507
511
509
509
514
500
501
515
525
525
523
518
509
504
499
493
510
515
489
486
494
502
510
513
521
515
523
529
533
527
522
511
501
506
508
508
504
491
490
490
474
480
512
512
514
515
532
524
518
526
517
511
510
509
509
502
494
484
487
497
499
508
515
517
515
514
527
526
519
514
515
518
514
508
513
508
494
488
483
486
499
516
520
523
510
518
519
520
519
515
512
513
509
508
506
497
499
492
483
492
505
505
508
508
512
511
520
523
514
511
511
519
510
511
516
512
511
507
501
504
508
502
507
501
501
487
492
516
519
525
511
498
500
504
512
514
527
519
514
513
504
503
505
507
512
502
510
516
520
519
512
508
507
502
499
505
508
495
495
495
495
510
518
515
512
505
508
511
514
518
508
521
518
519
523
507
507
494
490
495
494
499
512
511
517
505
510
516
522
521
517
511
519
517
506
499
499
489
487
491
494
495
514
523
524
530
531
513
510
510
511
507
505
508
507
509
507
501
495
493
496
504
504
509
518
528
527
529
523
523
521
511
506
502
508
498
491
493
480
481
483
483
502
530
533
523
520
524
520
522
523
522
517
505
490
494
496
491
504
516
498
506
511
517
510
503
515
517
513
515
525
520
521
529
515
502
493
480
462
472
491
512
517
508
520
513
513
518
516
543
530
522
520
517
511
499
498
489
479
479
487
492
496
511
527
540
542
529
510
516
519
504
488
504
516
519
512
500
497
491
494
497
494
497
504
504
517
520
526
524
517
525
519
520
514
506
498
483
481
496
501
504
515
527
524
513
513
508
505
512
526
535
519
508
504
492
483
483
486
496
498
506
511
516
520
512
526
525
515
518
512
516
511
512
516
511
500
499
499
504
502
499
492
487
500
496
501
520
536
527
514
508
500
518
517
513
512
503
493
488
502
516
529
517
516
516
505
502
507
522
505
505
505
511
519
510
505
504
496
484
491
499
509
515
518
516
516
523
526
526
516
513
508
500
502
501
496
485
487
495
505
512
512
520
535
524
520
523
520
507
499
496
500
501
511
508
501
500
494
490
494
510
522
507
516
525
521
524
524
525
521
513
503
495
501
500
495
480
490
500
506
512
502
508
515
515
522
523
523
524
517
508
498
507
508
513
511
506
497
492
494
506
511
514
515
510
509
515
518
510
512
524
508
494
502
511
511
504
497
495
496
510
507
508
515
508
512
518
514
515
516
511
502
519
515
505
506
496
490
503
491
500
507
516
503
503
520
523
531
537
523
517
506
502
502
499
493
492
487
499
506
508
507
511
516
519
518
519
515
516
515
514
511
513
519
502
494
489
488
486
479
495
511
523
520
526
529
529
523
524
526
522
495
503
502
503
493
481
476
492
508
530
542
534
515
499
498
511
513
520
508
501
511
517
512
508
503
494
495
496
492
498
505
508
510
512
516
523
532
530
523
516
508
502
499
500
499
493
490
497
496
506
512
527
515
510
505
511
516
519
515
513
499
496
514
522
511
497
496
489
486
497
499
510
507
507
515
531
537
530
515
514
517
524
506
496
500
497
494
494
499
508
512
511
512
505
507
518
521
524
518
518
511
508
506
508
508
501
489
484
486
482
495
502
511
517
515
535
540
537
518
515
515
513
505
496
497
503
494
485
477
465
456
503
552
526
507
559
579
564
531
507
497
500
511
500
490
477
462
460
483
487
474
499
550
552
553
551
564
548
515
504
497
494
491
494
492
488
490
492
496
509
514
509
507
508
513
512
518
522
519
512
510
502
493
489
494
493
497
514
521
511
507
521
525
508
507
519
526
526
529
515
503
490
515
529
500
478
480
486
493
496
505
513
516
523
539
529
517
522
519
503
499
501
508
494
495
496
494
496
505
512
523
512
515
515
515
516
520
515
502
502
499
501
510
520
532
519
500
488
476
485
498
499
501
511
520
519
526
539
533
525
508
498
515
511
498
496
491
489
489
502
508
511
513
512
513
511
512
520
517
524
525
515
505
494
495
496
493
496
504
514
507
506
515
515
509
513
519
524
518
519
504
508
508
502
493
499
496
490
491
496
504
508
526
524
531
542
536
533
511
500
499
496
496
490
491
487
488
494
508
517
521
517
524
524
517
520
515
512
509
508
506
502
505
503
501
496
493
497
499
492
504
511
520
527
519
528
530
520
513
508
502
499
502
502
508
502
490
489
488
496
507
505
531
533
524
521
545
551
521
516
508
492
487
491
482
486
495
499
504
500
501
501
508
512
521
532
530
522
516
519
517
513
514
513
494
479
481
489
490
498
503
514
514
505
505
522
529
537
541
531
520
513
507
499
496
480
484
493
495
499
511
513
516
515
515
519
524
528
527
521
512
500
493
489
489
496
501
501
500
506
513
512
514
519
519
523
521
520
517
515
512
498
481
486
498
511
524
524
522
494
482
488
487
498
508
510
512
505
534
548
544
529
527
524
508
489
483
485
489
496
497
502
503
507
523
530
528
526
507
502
506
507
500
502
499
499
501
500
510
509
502
486
494
493
500
521
537
536
538
540
526
509
510
501
487
485
483
487
497
518
524
526
521
517
504
497
510
533
523
520
511
505
499
497
494
489
486
487
505
508
507
520
525
523
521
524
528
530
517
516
510
492
489
491
496
491
487
497
499
505
504
512
525
528
512
515
519
536
524
514
508
505
510
492
490
495
496
488
491
503
508
519
521
522
520
519
517
527
526
530
508
499
500
499
499
491
488
479
486
495
508
515
520
530
520
518
526
519
505
506
515
513
515
515
503
512
529
505
491
507
516
514
504
499
483
487
496
506
517
524
523
516
509
502
506
505
505
495
496
497
499
500
505
519
533
551
541
523
512
502
499
505
508
502
504
508
497
491
489
495
504
510
519
510
493
505
514
519
523
531
540
539
528
500
502
506
482
475
477
485
490
508
513
509
512
517
515
523
532
527
519
518
504
487
485
493
501
495
492
508
514
513
514
524
532
525
511
508
512
502
501
513
514
507
515
517
517
518
499
505
495
487
489
490
496
512
514
521
521
523
523
525
525
503
497
499
499
504
496
501
500
506
510
518
514
516
522
517
510
512
510
507
506
497
505
513
502
491
490
494
507
505
502
507
517
540
532
526
519
519
519
507
512
512
494
481
483
492
497
496
503
524
526
529
531
533
524
522
497
490
468
480
487
487
518
530
519
499
507
519
527
522
512
506
496
503
514
519
516
516
504
508
512
506
505
503
503
496
500
506
517
515
510
507
512
527
519
523
517
508
497
491
486
491
493
503
510
501
498
511
515
522
527
536
521
517
513
510
512
516
518
519
512
495
485
484
479
487
495
512
538
522
502
494
500
507
534
547
530
510
505
501
496
500
511
510
499
492
495
493
502
516
520
522
516
520
524
528
531
531
521
509
496
483
477
461
464
480
492
504
519
526
519
508
507
530
540
532
538
529
508
500
504
510
503
498
501
504
502
497
502
500
500
499
511
524
521
528
518
520
510
502
504
511
523
509
487
493
505
497
489
490
513
523
519
510
507
520
519
519
510
512
527
523
517
509
500
485
478
470
480
487
512
544
536
525
527
536
526
518
506
511
502
495
494
489
487
486
493
504
517
507
510
512
521
526
535
529
521
518
511
503
495
494
495
498
501
507
510
513
511
508
500
495
505
515
519
515
507
509
515
523
514
524
525
504
484
476
478
503
505
508
507
512
527
516
515
519
521
520
513
513
514
508
505
500
489
482
492
498
502
500
506
527
532
521
525
534
518
503
502
502
497
496
495
503
511
513
499
498
491
491
504
516
537
532
530
525
520
517
513
509
502
498
500
500
495
489
484
492
500
506
510
523
524
533
531
521
513
508
504
500
499
498
492
497
507
503
494
497
507
520
517
517
527
514
513
504
504
512
510
503
524
521
507
504
506
497
497
505
512
513
511
504
505
507
518
520
517
508
502
504
513
507
515
519
506
493
490
501
503
501
511
511
514
517
526
526
526
521
514
508
507
500
497
497
501
497
497
494
492
496
500
509
517
517
522
520
525
520
513
518
514
506
504
508
509
493
489
489
496
499
506
512
524
527
526
523
519
512
510
513
518
506
498
511
499
483
483
491
501
516
526
518
509
514
520
528
531
525
508
494
504
502
497
496
485
481
487
487
503
526
523
518
522
530
531
531
523
513
506
504
504
505
500
497
497
495
494
503
508
506
510
512
512
520
516
520
522
515
518
508
507
503
502
498
494
493
491
497
506
507
507
518
523
511
513
524
527
518
511
525
510
492
497
509
499
498
500
497
500
498
510
522
524
510
514
515
523
527
518
510
507
504
499
498
495
500
492
496
502
511
516
517
520
519
525
530
526
519
508
494
485
485
493
495
488
480
488
499
515
540
547
537
527
519
511
505
506
511
508
504
499
495
497
497
492
488
504
510
521
526
527
513
507
508
518
527
520
519
514
518
507
504
505
504
484
486
484
494
500
511
514
518
519
513
512
507
509
511
503
501
510
515
518
519
533
519
497
493
495
501
510
508
506
508
511
504
514
521
511
497
490
501
506
492
514
532
525
513
506
503
504
506
503
510
517
522
536
530
511
504
490
489
508
507
500
493
500
505
499
502
513
515
518
514
516
521
513
510
511
521
524
515
510
501
485
481
487
497
508
512
515
519
517
511
513
514
508
512
512
522
520
510
508
502
494
487
487
498
514
520
511
509
511
512
521
521
519
515
507
509
514
497
494
491
483
483
489
493
493
509
525
520
529
553
549
540
533
517
510
525
507
489
476
476
483
483
490
507
505
489
496
513
524
536
541
545
540
515
514
521
496
473
469
464
451
462
498
529
551
563
560
552
529
513
507
505
500
500
507
503
487
496
483
473
487
497
501
518
521
520
528
524
512
512
510
508
514
506
505
502
543
543
509
483
480
486
507
511
502
499
504
510
507
496
514
522
526
519
526
555
545
501
478
487
492
486
481
496
504
493
511
509
510
543
544
535
507
490
491
518
534
529
514
498
481
478
472
483
487
496
510
509
515
541
540
511
501
502
502
527
572
577
554
504
474
452
452
470
485
519
544
519
496
491
510
521
523
523
518
510
509
510
506
509
508
489
483
486
492
492
499
510
500
505
533
563
555
532
516
518
502
496
487
507
516
485
476
482
477
507
547
526
514
513
526
533
532
523
514
485
484
508
508
510
497
497
479
459
486
529
516
527
544
554
538
499
471
472
513
542
548
533
517
502
491
487
481
469
483
480
495
529
540
527
551
588
570
537
480
454
465
470
456
460
470
501
562
534
497
500
499
508
522
550
570
540
519
517
500
496
516
543
547
539
513
462
423
434
450
444
448
462
490
502
507
537
564
598
587
580
541
522
511
495
482
503
523
515
515
510
501
483
497
479
489
496
511
512
520
521
521
510
501
497
500
494
484
498
500
511
518
528
529
521
532
537
547
543
529
487
465
468
484
500
499
473
452
458
473
507
505
519
540
541
549
573
575
537
513
509
499
487
495
479
474
494
492
499
502
506
520
555
555
545
546
534
516
484
465
466
466
477
502
504
488
480
480
509
515
515
517
514
525
534
525
527
535
514
513
519
527
511
487
487
477
495
510
494
492
507
536
540
520
500
504
517
531
533
519
504
504
509
489
492
493
496
495
496
502
508
513
515
511
514
516
521
523
520
515
511
498
506
489
483
475
487
478
529
547
545
524
515
515
507
505
525
516
516
513
502
489
484
499
512
518
504
497
506
513
508
504
506
509
513
512
496
485
484
536
597
560
510
501
495
490
479
472
476
499
515
513
519
516
509
511
511
520
543
528
515
500
517
503
493
504
479
470
479
495
542
538
508
497
507
511
523
522
530
506
483
490
489
486
522
542
586
556
506
486
495
500
494
494
501
495
496
501
499
505
547
549
511
476
500
543
544
493
481
471
455
481
515
522
539
566
526
518
523
531
510
499
498
515
515
462
431
440
455
511
524
511
519
527
