499
505
513
527
530
527
529
530
527
526
517
511
509
511
503
493
492
482
476
479
492
507
514
521
527
523
528
531
523
520
513
509
505
501
494
487
487
483
487
490
497
504
515
519
525
531
531
534
527
526
522
518
511
507
500
497
496
492
493
495
503
508
510
519
521
523
527
526
520
517
512
509
498
494
491
489
487
486
489
492
499
502
504
508
520
527
532
527
529
527
528
524
513
502
491
489
489
494
495
498
504
508
515
518
521
532
533
531
522
519
515
507
503
503
513
505
494
500
503
494
487
478
487
485
486
501
516
529
536
538
525
515
511
510
504
499
497
494
500
502
503
507
511
519
524
525
526
529
525
527
521
513
504
496
492
483
476
478
483
493
502
515
524
531
530
527
525
529
533
531
521
518
513
508
506
506
515
505
520
514
498
474
472
465
472
511
531
545
540
533
500
494
490
443
430
451
488
507
517
520
526
526
527
528
530
533
531
532
527
523
517
514
507
500
503
502
498
499
496
496
499
506
507
517
518
528
541
539
527
525
524
518
489
489
497
514
501
497
502
495
460
453
460
481
495
510
536
550
547
542
523
511
500
497
498
491
487
491
499
503
507
511
519
526
529
529
530
527
526
521
519
512
503
495
494
491
492
495
496
500
502
497
492
511
527
527
528
530
528
525
518
511
502
497
493
489
486
488
492
496
503
504
510
514
524
524
528
531
528
526
522
518
505
499
494
488
487
485
488
489
492
497
508
519
528
530
534
532
528
526
521
514
502
494
495
489
484
479
484
495
500
504
512
522
531
535
534
533
527
521
514
511
496
488
487
488
487
486
492
494
497
506
520
525
529
531
528
524
531
528
522
512
493
487
483
482
483
479
486
491
498
512
518
524
527
531
543
547
541
524
492
495
504
503
500
503
502
483
496
503
500
503
511
511
509
511
527
529
527
521
517
513
504
495
493
495
492
486
488
489
494
504
510
511
522
524
545
551
548
534
521
516
506
493
485
473
475
486
491
495
503
507
508
515
523
523
528
522
521
526
519
511
499
500
495
494
489
489
490
496
509
522
520
521
525
533
533
532
527
518
499
502
497
489
497
478
467
473
491
499
512
511
514
529
537
541
528
526
534
548
542
525
518
510
498
486
475
441
449
475
499
515
526
540
534
521
521
518
511
504
516
493
455
470
484
491
504
516
523
527
518
516
525
531
530
513
487
497
517
520
523
529
519
503
500
494
483
487
494
495
509
521
534
540
540
542
540
534
525
514
499
492
477
469
478
488
487
488
495
508
514
523
520
517
517
521
525
507
497
492
503
519
517
494
488
483
482
499
507
503
496
508
525
528
545
551
551
542
539
539
521
496
485
482
483
477
480
495
496
492
490
504
517
527
530
525
516
516
525
526
521
517
518
512
512
510
502
485
471
460
459
477
489
520
544
555
560
561
540
517
506
501
476
451
472
500
500
504
507
519
525
508
491
502
512
512
515
523
538
543
540
536
508
497
497
501
492
474
476
484
499
512
519
521
529
531
541
552
532
507
478
479
487
497
501
499
499
494
499
510
502
498
490
502
521
543
553
551
540
530
511
510
507
493
472
469
480
464
493
504
487
497
512
529
540
547
551
548
530
511
511
506
495
484
474
460
492
521
520
516
504
494
503
508
525
533
536
542
534
530
515
510
494
460
459
480
482
492
488
474
508
525
536
539
537
539
550
553
539
521
471
457
467
483
496
498
496
503
512
524
527
527
525
529
530
517
507
503
515
506
495
503
498
493
498
496
498
516
511
506
496
516
525
530
531
513
512
522
531
521
491
492
488
489
484
455
471
488
505
519
531
542
537
524
526
523
511
514
522
515
519
521
511
510
494
488
504
510
520
499
476
470
501
510
486
506
537
539
536
535
530
519
508
505
496
475
483
490
492
500
505
522
524
527
502
512
536
533
523
523
520
515
493
463
480
480
486
501
514
518
528
503
490
507
521
523
529
528
531
529
533
525
508
499
506
503
487
492
484
476
473
481
507
513
523
534
530
516
515
520
527
526
515
505
499
501
497
493
474
468
490
510
508
524
540
536
540
538
540
535
511
487
486
497
498
474
467
479
486
504
516
523
525
530
523
512
517
520
522
518
516
508
505
498
503
508
510
508
504
508
512
501
487
490
499
521
526
521
523
521
516
512
508
500
492
496
503
496
485
493
506
510
513
527
542
547
541
544
519
505
500
492
475
484
483
494
498
494
494
499
496
509
522
527
526
527
533
528
526
517
506
507
503
492
486
488
492
497
500
501
515
522
521
529
528
505
496
505
513
517
513
505
504
507
501
492
501
510
508
508
511
514
513
519
520
525
524
516
513
513
512
500
487
491
499
493
500
502
504
510
515
517
520
537
533
529
527
505
493
495
497
503
517
514
523
518
503
504
507
520
503
507
511
505
503
470
449
433
464
520
536
549
532
515
520
483
470
498
515
519
518
528
538
530
531
531
523
515
520
523
525
503
473
484
506
518
496
470
471
491
511
518
513
521
523
529
528
528
527
518
510
510
513
507
511
502
500
494
487
497
491
503
512
513
517
526
520
497
499
499
500
507
516
519
513
510
507
503
507
512
512
499
495
523
536
535
524
504
500
504
508
503
487
487
503
511
513
507
498
496
496
498
518
527
527
523
516
513
511
514
513
515
499
503
503
497
500
503
505
509
510
514
518
517
516
510
510
511
512
512
505
481
481
487
501
496
504
511
521
523
535
518
525
531
529
508
507
492
481
471
486
471
493
524
529
532
522
527
517
515
531
523
517
508
507
508
498
475
475
503
518
515
520
521
515
501
497
508
507
511
501
496
497
509
522
518
515
518
526
528
537
518
507
508
509
492
496
505
489
495
504
538
556
532
504
493
508
505
450
456
477
505
511
500
516
524
521
521
516
524
523
519
518
522
505
508
513
519
522
512
503
493
500
507
507
505
506
510
523
558
563
547
527
513
478
400
391
451
495
513
519
518
517
517
514
510
501
508
511
512
516
525
525
527
532
524
505
505
521
528
520
503
494
499
499
507
510
497
468
485
508
520
519
513
522
529
523
518
499
496
496
502
498
496
511
523
507
505
505
510
511
514
515
514
512
512
513
511
513
512
508
503
501
503
513
513
504
505
505
510
510
507
510
513
523
524
498
498
508
517
519
502
496
509
504
502
513
503
504
510
496
480
494
514
520
511
511
524
526
533
518
506
494
488
498
504
509
502
502
512
508
511
513
515
516
515
514
519
518
516
511
505
503
505
509
504
497
498
514
519
514
509
510
513
516
512
503
504
507
508
500
498
499
504
496
496
504
487
493
512
516
525
531
536
525
521
518
512
503
503
508
510
506
497
501
502
503
502
497
499
506
512
529
525
517
518
516
513
511
513
504
497
496
502
503
501
503
510
505
512
515
516
518
521
517
508
506
509
511
503
499
497
504
510
519
526
514
499
508
507
485
482
476
494
508
525
519
520
520
522
508
506
501
508
515
500
508
508
512
519
513
502
491
507
518
519
511
506
526
538
537
520
505
495
481
489
500
490
486
498
504
508
525
561
583
577
558
556
529
523
497
467
472
457
443
415
370
396
456
522
551
582
599
591
573
558
544
486
400
408
441
475
512
525
530
529
524
526
526
506
509
517
529
534
531
531
533
532
526
521
504
492
487
491
486
499
510
513
508
498
496
499
508
504
505
524
532
534
530
531
521
507
495
487
503
497
484
495
500
496
484
471
496
523
535
537
538
527
519
508
505
502
499
491
490
499
503
503
504
507
504
507
505
511
514
526
531
527
526
518
513
504
502
492
489
490
495
505
508
505
506
508
530
575
593
581
559
563
532
507
461
430
414
407
424
459
475
506
526
535
526
527
516
520
524
518
518
526
526
520
518
515
513
511
506
501
500
498
505
508
505
504
508
522
526
519
515
517
514
505
501
498
500
504
499
499
492
496
504
508
508
509
513
520
524
520
517
519
522
515
509
504
496
496
496
503
495
484
490
507
509
517
523
526
521
522
518
512
508
508
505
509
503
500
508
507
504
503
501
499
500
505
505
518
522
526
525
517
519
522
515
509
488
492
497
507
507
502
496
508
519
525
524
516
514
514
514
507
504
504
504
497
504
505
502
498
496
499
497
502
518
517
513
520
517
504
504
514
518
510
513
502
499
500
500
502
505
507
512
511
515
522
526
519
523
519
519
512
509
502
490
484
497
521
526
501
487
471
480
497
504
511
523
543
563
544
509
499
498
502
522
513
487
468
488
494
508
507
520
519
507
499
504
519
518
526
524
518
510
507
505
511
510
511
497
506
491
478
500
512
514
518
522
518
515
519
525
504
484
495
507
513
511
507
509
512
509
509
517
509
507
507
500
511
526
529
528
519
510
503
501
497
502
497
491
495
508
514
512
507
504
516
520
518
507
514
518
512
527
541
543
541
518
505
509
475
452
431
421
450
492
512
524
519
521
524
536
542
534
530
532
523
498
511
492
475
502
515
504
502
500
511
524
531
516
520
520
522
529
529
515
484
489
497
505
525
524
536
572
600
607
633
580
515
469
416
317
318
307
356
441
511
549
540
497
470
483
534
569
595
591
560
563
576
561
545
509
499
467
448
461
451
475
489
499
500
512
518
526
535
541
540
535
529
525
518
516
511
512
511
511
508
505
511
521
516
526
535
529
515
486
493
495
497
489
477
467
482
503
518
522
521
501
514
520
512
508
494
509
512
514
513
508
499
494
476
465
484
491
507
520
533
532
519
517
519
523
525
522
518
511
505
511
516
512
522
535
535
514
491
462
466
495
502
497
502
506
517
520
524
526
524
511
507
505
511
520
523
537
519
508
497
492
490
501
506
492
500
510
511
487
488
498
504
521
508
489
496
514
520
519
513
517
508
500
500
512
520
522
525
521
508
509
512
505
508
509
510
518
511
504
499
499
504
503
505
504
501
512
502
508
514
518
520
516
509
522
540
541
537
537
545
527
492
479
467
443
460
458
463
481
505
523
513
499
527
527
524
557
570
558
540
496
474
440
442
457
483
486
506
531
529
536
546
537
530
527
520
513
511
512
511
505
496
500
494
489
495
499
511
512
509
503
504
506
517
519
526
533
532
525
511
508
499
472
475
493
484
493
499
513
536
542
551
525
507
506
486
481
507
516
505
485
488
514
509
511
519
516
514
511
512
520
507
502
513
507
504
510
516
519
517
515
515
502
504
508
508
514
514
517
503
503
499
494
482
481
505
516
519
530
530
521
504
501
498
497
496
494
509
511
519
515
515
516
519
522
493
491
501
505
501
503
504
509
512
518
514
523
522
508
500
508
504
505
508
509
505
512
519
519
511
512
527
518
520
536
520
506
500
484
487
482
482
493
496
505
482
484
496
515
528
530
531
526
521
514
489
486
499
511
492
493
510
517
526
532
528
527
533
516
504
504
495
506
511
512
515
517
513
514
509
508
507
508
512
513
512
511
511
507
505
499
513
519
513
519
519
525
524
532
534
499
497
449
446
440
451
488
539
544
539
534
519
468
480
500
499
525
535
520
524
525
512
484
480
508
530
548
545
517
490
488
480
489
513
522
519
524
521
517
514
504
496
489
502
501
493
507
521
541
552
554
530
497
499
554
566
544
531
494
356
351
371
450
539
571
565
560
528
500
496
490
504
528
514
497
513
520
512
513
516
525
528
527
527
515
486
504
511
516
516
514
508
509
507
508
519
508
519
526
514
507
510
492
490
494
509
514
509
512
518
515
528
522
508
500
480
472
483
490
499
503
510
516
528
540
532
525
527
507
506
478
474
480
486
505
514
519
530
536
538
543
541
513
513
489
480
481
478
493
506
520
517
516
515
523
523
526
521
519
505
496
488
498
511
518
514
506
504
504
498
496
489
490
489
495
498
494
495
501
502
506
503
506
509
510
510
513
508
512
506
498
500
514
518
528
541
549
559
565
567
531
493
472
467
465
475
487
493
487
488
491
487
488
484
502
506
511
509
518
505
515
518
529
508
505
493
495
496
502
521
533
527
519
514
511
512
513
516
515
514
515
517
513
516
513
515
517
514
512
514
513
515
508
498
498
500
500
497
499
495
503
507
509
510
509
506
505
505
511
510
506
507
510
499
501
507
508
507
509
505
510
512
518
516
523
518
516
509
510
507
505
508
507
505
503
503
505
505
510
511
514
513
510
508
497
494
500
506
506
503
508
514
507
504
506
510
513
516
522
515
508
510
510
520
521
512
509
499
498
502
502
502
506
504
510
512
511
509
511
509
512
518
520
518
516
514
515
513
513
508
503
502
503
505
499
500
504
509
509
510
509
508
510
513
515
512
512
509
507
506
504
504
505
504
500
503
508
512
513
521
516
505
512
520
523
516
505
503
506
505
507
505
505
506
504
497
497
497
502
507
513
515
521
519
520
516
513
515
513
508
507
506
501
497
498
499
500
503
510
516
517
513
514
516
512
513
513
510
507
502
499
500
499
499
504
504
508
508
504
510
516
522
516
511
515
508
501
503
506
509
500
500
501
496
499
506
509
510
514
521
523
519
505
502
513
518
523
531
539
557
550
535
519
502
476
448
440
449
464
480
507
524
531
522
517
525
532
551
563
562
551
541
515
483
436
413
400
422
442
484
519
545
550
552
551
531
521
519
523
523
520
523
520
522
522
512
508
504
504
505
511
517
516
518
515
521
518
510
513
505
500
496
496
497
496
495
497
502
505
514
506
509
512
516
506
503
508
512
511
506
500
499
494
488
494
497
509
518
515
513
516
520
525
525
522
515
511
510
512
509
505
505
509
501
498
499
492
500
503
508
510
511
515
519
523
520
521
519
520
513
512
518
517
511
504
499
506
522
543
554
559
552
551
496
439
398
368
382
413
459
498
526
546
543
541
536
531
531
531
523
521
521
519
524
525
514
511
513
509
508
502
504
504
505
505
501
504
510
515
515
521
510
511
516
512
514
505
504
512
513
505
502
499
497
494
495
495
496
504
511
516
521
524
526
526
524
523
519
515
513
510
514
526
542
541
537
530
527
513
447
408
422
465
489
488
500
498
492
486
487
488
488
483
492
513
528
523
523
522
523
524
523
526
530
518
518
517
525
535
524
519
524
528
527
524
526
520
516
515
512
515
512
512
511
507
509
512
508
515
512
512
512
513
513
511
509
507
507
508
506
501
500
505
507
508
510
511
510
513
517
513
512
507
504
502
503
498
498
504
504
504
504
499
490
499
508
513
506
505
513
512
514
512
512
508
509
509
506
504
502
504
500
502
504
500
501
506
505
509
510
512
506
508
512
508
504
505
505
505
503
502
504
505
507
506
506
511
511
513
516
515
517
515
515
514
512
512
509
509
506
506
508
505
506
504
507
509
508
510
513
513
515
513
512
513
510
508
508
503
504
506
504
506
502
503
507
510
510
508
510
512
512
513
516
517
514
511
507
504
502
498
490
495
502
508
507
508
511
511
514
513
516
515
515
513
511
511
508
508
505
504
504
507
505
505
505
508
510
511
514
513
514
512
511
510
508
511
506
505
504
504
505
504
504
507
506
508
511
513
512
512
515
515
512
511
511
509
504
506
504
504
504
503
504
505
507
508
508
513
515
512
511
512
514
513
511
510
507
508
507
504
505
504
505
505
506
508
509
510
512
512
513
512
513
512
512
512
508
504
504
507
505
505
506
505
505
506
508
510
511
513
513
512
514
513
510
508
507
505
505
503
503
505
506
507
507
508
510
512
512
512
512
514
512
514
511
509
506
505
505
504
504
503
504
505
505
508
509
510
511
515
515
513
513
513
508
507
505
505
503
505
508
508
501
505
505
509
508
512
512
512
517
512
512
511
511
510
508
508
508
504
503
501
499
501
504
508
509
513
512
515
516
513
515
511
511
511
510
507
505
508
507
509
506
501
501
499
497
505
512
515
516
513
515
514
511
509
507
508
504
504
506
503
504
506
505
509
510
513
523
521
518
516
515
511
510
510
508
507
492
495
498
499
495
492
502
508
509
511
516
520
522
520
531
534
533
521
510
503
490
474
460
466
493
503
511
519
523
521
521
520
520
515
515
513
513
511
511
507
506
503
507
504
505
505
507
507
511
512
512
514
513
511
512
509
511
511
508
508
502
505
504
505
505
508
505
507
507
509
512
513
515
513
513
511
511
511
508
504
504
511
510
505
509
509
510
508
504
505
502
504
510
511
503
505
509
512
510
510
507
507
507
503
504
505
507
510
511
512
514
516
515
513
512
512
510
509
507
506
505
503
504
504
503
505
504
507
508
513
513
513
514
512
512
510
510
509
505
505
503
504
504
507
505
506
505
508
510
508
511
512
513
512
515
515
511
510
508
504
506
502
505
502
503
504
505
510
512
512
513
513
515
512
514
512
510
506
506
505
505
502
505
503
505
506
505
508
510
511
513
515
519
519
517
512
514
510
503
499
500
495
488
492
500
507
512
512
508
513
517
512
513
512
515
513
512
511
508
506
507
502
505
505
507
505
508
510
510
511
513
514
517
516
515
515
516
511
508
507
501
499
500
497
498
498
502
506
508
513
514
513
515
512
515
513
511
512
511
507
508
505
505
503
505
506
506
505
508
509
513
513
514
513
512
511
508
508
505
506
505
504
503
504
503
507
506
507
508
512
521
525
521
515
515
510
508
496
482
489
494
505
510
512
509
508
511
512
512
512
515
513
518
515
512
511
511
511
508
507
503
503
507
502
504
505
505
508
510
512
511
513
514
513
510
511
509
508
507
505
502
504
504
505
506
509
510
513
512
512
516
513
511
511
508
508
510
512
507
504
504
498
501
504
507
508
507
511
519
530
533
526
521
512
503
495
484
477
491
496
496
505
512
513
512
510
512
514
508
511
513
516
518
514
513
516
511
508
505
504
502
503
502
505
505
508
507
510
510
510
513
513
514
512
514
513
507
510
508
503
504
506
505
503
505
505
506
508
511
512
513
514
512
512
512
509
508
507
507
504
504
505
504
504
507
508
510
513
508
511
513
508
501
502
505
510
515
512
512
508
508
506
505
505
504
505
509
513
513
517
521
526
529
519
512
507
494
489
478
481
492
495
499
503
509
511
512
515
514
519
522
516
518
518
513
510
511
511
509
508
505
505
505
505
503
507
509
510
507
512
514
510
508
504
503
508
518
518
512
508
508
503
499
500
499
497
505
509
508
511
511
514
517
515
512
511
510
509
508
504
504
505
507
505
506
506
508
509
508
508
511
514
515
513
518
523
525
521
514
507
497
488
485
481
479
502
509
512
512
513
513
514
522
520
518
515
514
512
511
509
505
504
503
504
507
507
504
507
512
514
517
514
508
506
509
508
508
508
507
505
509
517
513
502
497
500
503
500
497
507
512
511
509
516
517
516
513
511
509
507
506
504
507
505
504
506
508
510
511
511
512
513
514
513
512
514
510
507
508
504
504
503
505
502
504
505
510
508
512
511
513
515
517
514
515
518
515
512
504
505
494
493
494
494
494
497
507
515
514
517
518
517
519
516
517
512
511
512
508
505
504
502
505
501
504
504
507
508
508
514
511
512
516
515
515
511
512
508
504
506
504
502
505
504
505
503
507
510
509
513
515
516
513
510
511
511
511
505
504
505
504
505
503
503
505
507
509
510
510
511
513
513
511
514
514
511
511
511
509
507
507
504
505
504
503
498
499
506
508
513
513
513
516
516
512
512
511
505
505
507
506
505
503
505
504
506
507
512
510
513
513
514
515
513
512
511
509
510
505
507
506
505
504
503
505
507
506
508
510
511
511
514
514
512
511
510
508
508
506
505
505
504
504
503
505
508
506
509
511
513
512
514
514
513
513
511
510
510
507
505
507
505
506
504
507
505
503
508
508
514
515
515
510
509
511
510
505
504
505
507
507
503
506
505
510
508
507
510
512
513
511
506
508
512
513
509
508
508
507
506
505
504
504
503
507
507
509
510
511
512
515
513
514
514
513
512
508
508
507
503
507
505
505
502
506
505
507
510
510
511
511
515
512
513
512
511
511
507
507
505
502
501
501
505
505
507
510
512
510
512
514
515
512
506
507
510
511
509
508
507
504
505
506
507
506
508
509
508
510
513
515
514
512
511
508
506
505
509
509
505
504
507
505
505
503
506
505
508
510
513
514
513
514
515
513
512
509
509
507
505
505
504
505
503
508
505
504
508
504
511
513
514
516
517
517
515
512
506
502
504
502
495
500
502
505
507
506
511
510
511
511
512
515
514
513
511
511
512
507
506
505
505
507
504
505
505
505
510
511
513
514
511
512
511
512
513
509
508
505
508
509
505
506
504
506
505
502
505
506
508
512
512
516
514
514
511
509
509
507
505
503
505
506
506
505
507
508
511
511
513
514
515
514
510
510
510
508
508
507
504
505
506
507
505
507
507
504
504
499
502
512
517
515
515
514
512
512
511
510
507
505
504
503
500
505
505
507
509
512
513
515
516
516
515
513
508
507
505
504
505
504
502
505
504
507
508
511
510
509
511
511
507
512
513
513
512
511
510
507
506
504
502
503
500
502
505
509
510
512
513
514
514
513
513
512
511
509
509
507
507
504
504
505
504
504
506
508
512
511
513
513
514
513
512
511
512
510
508
508
505
505
505
505
504
505
504
505
503
506
510
512
514
517
515
513
512
510
509
508
506
505
500
500
502
506
508
507
512
512
510
509
513
511
512
512
513
510
511
510
508
504
505
507
504
506
503
508
509
507
509
513
515
516
513
512
512
509
508
503
504
504
503
504
504
506
507
508
507
510
510
512
513
515
512
511
511
511
509
505
506
504
505
506
502
504
505
507
510
511
512
511
512
515
515
514
513
511
509
508
510
506
506
505
499
502
506
500
506
509
511
513
515
513
515
513
512
510
509
507
506
505
504
507
505
505
509
509
509
509
511
510
505
507
510
512
511
511
509
509
507
505
504
506
504
507
504
505
512
510
512
514
518
519
517
515
513
510
503
501
501
495
495
500
504
504
506
508
511
510
513
515
516
518
515
511
512
510
509
507
506
504
504
505
504
505
506
506
508
511
512
513
515
513
509
512
509
507
508
509
507
505
504
506
506
507
505
505
508
511
508
510
512
514
512
513
512
509
508
509
505
504
504
506
505
508
511
509
512
513
511
509
505
510
511
509
512
510
512
505
504
506
507
506
504
508
505
506
510
511
514
516
513
512
507
510
512
509
508
505
506
504
505
506
502
504
505
509
509
511
514
516
515
511
508
509
510
511
517
516
511
504
503
502
494
489
487
497
511
516
515
515
518
520
515
515
508
509
508
504
504
506
504
505
505
508
504
507
511
512
510
512
513
513
511
511
511
509
509
507
507
505
506
506
505
503
497
504
508
514
517
512
511
512
511
510
510
509
507
506
506
510
506
506
509
513
514
511
511
504
504
503
503
505
509
511
512
511
512
508
507
509
505
507
506
506
505
507
511
512
513
513
516
514
513
514
513
514
511
507
504
505
508
503
501
496
504
501
503
506
511
512
519
519
516
512
510
507
507
507
507
506
505
506
505
506
505
505
511
510
513
515
513
514
512
512
510
509
508
507
507
506
503
506
505
508
507
509
502
504
510
512
511
511
512
512
512
511
511
506
504
505
504
505
505
505
505
508
510
509
514
512
512
513
513
512
508
508
509
506
505
505
503
504
505
508
509
511
511
513
515
512
508
504
510
514
511
503
504
502
502
507
508
506
504
507
507
511
512
512
513
512
513
515
511
514
510
508
509
505
505
504
500
505
503
504
508
511
512
514
514
513
510
508
508
510
512
509
508
505
504
505
504
508
506
504
504
504
510
512
515
513
515
513
512
513
512
510
507
505
502
507
504
505
504
507
505
509
508
511
513
511
514
517
508
504
504
506
507
508
507
507
507
505
505
508
507
509
510
511
515
511
513
513
514
511
511
506
509
507
504
504
500
505
505
506
507
509
511
512
512
513
515
515
505
508
510
509
509
507
506
505
505
507
504
506
505
507
508
511
513
511
515
515
512
511
509
508
508
506
503
504
502
504
504
505
508
509
512
514
515
515
510
511
511
508
507
506
509
510
509
506
505
506
508
503
506
505
508
511
511
512
513
516
513
510
510
507
510
506
504
504
499
500
505
508
504
506
511
513
515
513
515
514
513
513
511
510
511
509
505
503
502
502
506
505
500
503
508
512
515
517
516
517
513
512
509
504
506
505
505
507
505
505
504
505
508
508
510
509
510
513
515
513
513
511
508
507
509
505
504
506
503
506
504
507
507
510
512
515
516
516
512
512
511
510
504
504
507
508
506
504
504
505
505
509
508
504
507
514
515
515
515
514
512
511
512
507
508
506
506
505
507
507
508
508
507
503
506
504
510
513
513
511
514
512
511
508
512
508
508
508
508
504
501
499
501
507
505
508
512
515
516
515
512
511
512
509
509
507
506
504
505
505
505
506
508
511
511
511
516
511
510
508
511
514
510
510
511
508
506
504
496
496
501
508
509
508
510
513
514
514
513
515
512
511
508
509
510
506
505
504
504
503
506
507
510
510
512
509
509
511
514
515
515
512
510
511
508
506
506
504
497
502
504
503
503
506
505
507
512
514
512
516
513
515
511
510
508
505
503
501
504
506
505
506
508
509
508
509
512
515
517
515
509
512
512
509
508
504
503
506
505
504
504
501
505
508
508
512
511
515
512
513
513
513
510
509
509
506
506
506
506
507
502
502
505
511
512
504
503
508
513
516
516
513
511
508
506
507
508
504
504
502
504
505
508
511
512
512
514
511
510
514
514
513
510
509
510
508
506
503
502
504
502
502
504
508
510
509
512
516
515
511
512
515
510
505
505
503
505
503
504
504
505
507
505
508
510
513
513
514
514
514
512
511
510
511
506
505
506
504
503
501
503
503
504
508
512
514
514
513
512
515
513
512
510
507
507
505
504
504
503
504
506
509
506
508
511
511
512
513
513
513
512
511
511
508
509
507
507
504
505
504
503
505
507
502
505
510
514
516
515
515
513
512
510
505
503
505
505
507
504
504
504
504
507
508
512
513
515
513
514
512
511
509
510
508
508
506
506
504
503
504
503
505
509
513
511
511
513
514
513
514
511
508
508
508
506
505
504
504
506
505
504
506
506
509
512
512
513
515
515
513
514
511
511
508
507
505
506
504
503
504
504
504
499
503
508
512
514
514
515
515
511
512
512
508
508
505
504
504
503
503
503
506
506
508
512
511
514
515
513
516
513
511
510
507
506
502
504
503
503
505
506
507
505
506
510
513
517
516
514
516
514
511
506
502
505
505
501
502
504
507
504
507
508
508
512
510
513
512
513
514
513
513
510
510
508
507
506
504
503
504
504
505
507
508
511
511
512
514
514
517
512
513
512
510
508
505
503
503
494
499
503
505
508
510
511
511
513
513
513
515
513
514
510
506
508
506
504
506
503
499
496
504
510
510
513
513
513
516
515
516
515
510
508
505
505
500
503
502
505
504
505
508
511
511
512
511
513
513
513
511
510
510
511
509
509
504
504
504
504
507
506
508
505
509
509
510
510
512
512
517
515
513
513
511
508
503
495
499
499
503
506
507
507
511
513
510
516
513
512
513
512
513
511
509
508
504
504
505
505
504
504
508
504
507
513
513
513
514
515
515
511
507
508
508
511
509
509
506
505
504
497
496
503
506
512
513
514
514
513
516
512
513
511
508
509
506
505
503
503
504
504
506
508
511
511
511
515
514
514
515
513
513
507
499
504
505
505
504
505
506
506
507
508
508
509
512
514
515
514
513
513
511
509
507
507
504
505
504
501
505
505
505
504
504
507
508
517
517
515
514
514
513
510
507
508
505
505
505
501
505
502
506
510
510
512
513
512
508
511
513
513
513
511
506
504
504
502
504
505
505
505
506
507
510
513
512
512
511
512
513
511
512
510
506
506
502
502
504
502
504
505
509
510
511
513
510
515
512
515
508
506
512
512
511
509
507
504
503
505
504
503
504
508
510
510
512
513
513
515
513
512
512
510
507
506
502
501
504
504
504
504
505
508
509
513
512
512
513
513
514
511
511
509
508
510
507
502
502
504
506
505
506
508
508
511
513
512
513
514
515
508
509
509
508
509
506
505
506
505
504
505
505
511
512
512
513
515
515
513
512
509
509
510
504
499
499
506
506
505
504
505
506
506
508
512
512
516
514
513
516
515
512
510
505
502
496
502
503
503
507
505
504
507
512
512
511
512
514
513
515
513
512
508
507
509
508
507
506
504
504
507
504
507
506
510
511
514
512
512
516
512
512
510
508
507
506
505
504
504
505
505
506
502
507
513
512
513
513
514
513
512
509
510
508
508
504
505
505
504
504
505
508
508
507
509
510
512
511
509
512
511
513
510
509
508
507
506
504
505
504
504
499
501
508
513
513
513
511
511
513
513
512
512
509
506
504
505
504
504
504
503
504
510
509
512
512
513
513
512
516
513
515
508
505
509
506
504
504
501
502
505
505
507
509
512
511
514
512
513
514
515
511
508
509
506
504
504
504
503
505
503
506
508
511
512
517
514
512
515
511
507
506
506
506
504
506
504
505
503
505
504
507
506
509
512
513
514
515
515
516
513
512
511
506
508
505
496
498
502
504
509
507
508
511
511
510
514
513
513
512
513
510
508
507
508
504
504
504
505
505
505
508
507
508
512
511
512
513
510
512
510
512
507
507
507
505
504
505
502
505
507
507
507
509
511
512
512
514
515
514
512
510
511
506
506
503
503
505
502
506
505
507
507
509
510
511
514
514
515
515
508
508
508
510
509
506
505
504
504
504
502
502
505
509
512
514
516
514
512
513
513
511
510
508
505
504
504
504
504
505
504
506
509
510
511
512
512
514
516
515
514
511
508
507
505
499
494
497
504
508
510
510
509
511
507
509
512
514
515
515
512
511
509
511
507
504
505
505
501
500
503
506
507
510
514
511
513
513
514
513
511
511
510
508
506
503
504
504
504
501
504
507
509
508
511
512
513
514
514
513
513
513
508
506
507
504
504
504
504
505
505
507
511
508
511
512
513
513
511
513
510
509
509
509
506
503
503
504
507
508
508
508
508
511
511
506
502
508
514
516
513
516
511
507
508
504
505
503
504
504
506
508
508
509
512
511
512
513
513
513
511
512
511
509
504
500
499
505
505
507
504
506
509
511
509
512
513
513
515
516
515
513
508
508
508
503
504
505
505
502
502
505
509
510
513
510
514
513
513
515
511
511
510
508
507
507
504
503
503
502
504
504
507
508
513
512
514
515
512
513
513
512
510
507
507
504
503
505
504
503
502
507
508
509
511
513
514
510
512
512
511
512
510
509
506
505
506
503
503
505
506
505
508
508
512
512
514
515
512
512
511
511
510
507
507
506
506
505
506
507
507
505
503
499
506
511
513
513
515
517
515
511
510
508
505
506
504
505
503
504
505
506
508
507
511
512
514
515
513
514
512
510
510
508
506
506
506
504
506
504
504
505
509
508
511
511
513
513
512
513
512
511
510
505
507
505
505
505
504
502
505
504
507
510
511
512
513
512
513
513
513
512
511
508
508
504
505
506
500
499
503
505
510
508
507
510
515
513
514
516
514
512
508
510
507
504
502
503
502
504
505
506
506
509
513
512
514
514
513
519
515
511
509
507
506
502
501
502
502
504
502
505
508
511
511
515
515
514
512
511
511
512
510
505
506
506
504
503
504
505
506
507
510
510
511
512
511
510
511
513
512
512
508
507
507
504
504
504
504
504
506
504
508
509
511
513
515
513
513
513
512
510
508
509
507
502
506
505
503
504
502
503
509
507
513
513
512
512
513
515
513
511
509
508
507
507
504
504
502
497
502
507
510
510
513
514
513
513
513
513
512
512
509
508
509
504
505
505
504
506
505
508
505
507
513
515
511
511
512
514
512
512
509
507
508
505
507
507
508
507
506
507
506
507
506
510
513
515
513
512
512
512
508
510
506
500
497
501
503
505
506
507
510
510
512
513
514
514
514
516
513
511
508
507
507
504
504
503
505
502
505
507
508
510
511
512
513
515
514
514
511
511
510
506
505
504
504
504
505
508
507
510
508
511
512
511
505
508
512
517
514
512
511
508
510
505
508
504
499
498
503
506
510
510
514
513
512
513
512
512
508
508
511
507
508
504
504
504
504
505
507
506
507
510
512
513
513
518
512
515
511
509
507
507
506
503
505
506
505
504
503
503
507
510
511
512
513
516
515
515
512
511
508
508
506
506
505
504
504
501
499
504
509
508
511
511
514
516
515
515
512
511
510
509
507
507
505
504
502
500
502
504
508
511
513
513
514
513
510
513
511
511
505
508
505
508
505
503
504
505
504
506
510
511
512
513
514
514
515
513
508
502
505
508
508
508
505
504
502
506
504
505
509
509
512
513
514
515
513
514
512
511
510
508
508
505
508
509
506
506
505
502
499
501
509
509
516
515
515
515
513
512
511
509
503
500
504
505
502
506
506
508
510
512
516
512
514
516
514
514
512
511
508
506
504
503
501
502
502
504
508
506
510
509
513
516
515
515
514
514
509
507
498
501
505
507
506
507
508
509
507
509
508
509
507
510
511
512
513
514
509
512
508
509
510
506
507
505
502
500
503
506
506
507
512
513
512
515
512
515
512
512
510
506
505
503
504
504
503
505
504
507
508
511
513
515
516
515
513
513
511
502
504
507
508
505
507
504
505
505
505
508
506
508
512
515
515
512
512
515
511
503
504
507
508
505
504
502
505
507
505
507
510
510
512
514
514
511
513
516
512
509
507
504
506
504
502
501
505
505
506
506
506
511
513
513
512
516
511
512
512
513
509
509
509
508
505
502
497
494
499
506
508
511
513
513
517
514
513
511
511
515
512
508
507
505
504
503
500
498
498
507
507
511
513
515
513
515
515
513
509
507
510
508
506
503
505
504
502
504
500
504
508
510
513
513
514
514
515
514
511
511
510
506
506
504
502
502
504
506
507
508
508
509
512
511
515
515
513
510
505
508
508
507
508
504
505
505
504
505
505
509
512
513
514
513
515
513
507
508
511
510
512
511
512
510
505
505
503
505
501
504
507
510
511
512
515
515
514
510
505
505
508
508
505
504
505
504
505
508
506
509
509
511
514
515
514
513
513
512
507
507
508
506
508
505
503
504
504
507
508
508
510
511
512
513
507
508
512
515
512
510
510
506
507
505
505
501
503
505
508
511
510
512
512
511
507
509
513
511
510
513
513
508
506
504
507
504
505
505
501
504
507
509
516
515
510
513
513
515
512
507
502
504
507
504
504
503
504
505
505
509
511
512
515
513
514
510
510
512
510
513
507
507
507
504
505
505
505
505
505
507
510
510
505
502
511
513
512
516
514
512
511
510
510
508
507
504
503
504
502
504
505
510
515
513
515
515
513
513
513
508
507
504
504
504
504
503
502
504
507
511
508
508
512
514
515
508
512
512
512
509
508
510
508
506
503
506
504
503
505
506
509
509
513
510
513
514
513
514
509
510
510
510
511
507
503
506
504
500
494
499
507
512
518
516
515
517
514
510
510
506
507
507
509
506
508
506
503
503
504
506
508
508
513
515
513
514
512
514
512
508
505
508
507
502
503
501
504
508
507
506
508
512
516
515
513
511
511
510
512
509
510
507
505
502
499
507
508
509
505
505
500
507
509
513
513
512
515
516
512
512
508
506
506
505
506
506
505
506
504
505
507
511
512
510
511
512
515
514
511
511
507
506
507
504
503
502
504
505
505
509
510
511
511
513
510
512
514
515
513
512
511
507
504
503
505
505
504
506
506
507
509
509
514
512
513
512
512
512
510
511
510
508
504
499
502
503
503
506
505
504
506
508
515
513
515
517
515
513
512
508
508
508
506
504
504
506
506
506
507
508
510
510
513
512
513
511
512
513
512
508
510
508
508
504
504
504
504
509
507
505
503
508
515
515
515
515
515
511
510
503
502
505
505
507
506
504
503
508
505
507
510
514
519
517
519
520
516
512
503
499
497
491
490
499
504
509
509
508
507
510
512
512
515
514
515
514
513
514
512
510
507
511
505
503
504
505
504
505
505
508
510
511
510
514
512
512
506
511
515
512
508
504
507
504
506
505
504
505
507
507
509
511
513
512
516
512
512
512
512
512
511
509
508
508
506
505
499
497
502
504
505
508
512
511
515
512
514
513
508
508
511
509
507
505
505
505
504
508
506
509
509
513
513
514
515
515
512
514
510
508
506
510
509
506
505
504
501
505
499
500
504
510
511
517
517
509
512
513
512
510
509
508
507
504
503
505
504
505
496
499
508
512
513
515
514
515
514
515
511
510
509
507
506
505
506
503
503
503
507
507
510
514
515
512
516
514
515
515
516
513
505
502
505
505
503
502
498
497
496
494
504
512
516
515
515
517
516
515
512
512
510
505
507
507
503
503
503
506
506
509
510
510
515
512
514
512
513
512
512
510
508
505
506
507
506
509
509
509
513
511
505
499
498
505
505
504
506
510
518
517
510
510
509
508
507
505
504
507
504
508
509
510
513
515
515
514
512
511
511
509
507
504
504
503
505
505
503
508
504
507
504
505
513
517
516
515
517
514
512
508
500
498
500
502
509
510
510
510
509
506
507
502
505
507
511
515
515
518
509
508
510
507
507
508
503
506
501
499
504
511
511
512
515
513
516
513
515
513
511
509
508
507
505
505
504
504
502
505
506
507
510
512
514
513
514
512
510
514
513
510
504
505
508
506
505
504
503
506
511
514
511
507
503
505
508
508
511
513
516
518
511
510
508
505
504
504
502
507
507
510
510
510
515
515
515
514
515
509
508
505
500
504
505
504
504
507
503
503
506
511
510
512
513
513
510
515
514
514
519
516
511
511
507
503
500
499
497
492
492
502
507
514
514
515
515
517
515
512
512
512
510
509
507
503
505
504
503
505
505
511
510
512
517
515
514
515
511
512
508
507
509
506
501
496
500
505
505
509
517
519
516
513
512
508
504
495
496
499
513
514
513
512
509
505
505
505
505
506
507
506
512
512
512
514
514
511
512
512
511
510
507
509
505
503
505
504
504
505
507
507
509
512
512
513
513
512
514
513
512
510
507
502
504
504
505
505
506
507
505
509
509
511
513
512
512
510
513
512
510
508
506
505
504
504
504
505
505
508
505
507
508
512
513
512
513
513
516
513
511
510
507
506
504
503
505
504
504
505
508
508
508
511
512
511
513
513
512
511
509
509
509
506
505
506
506
505
503
505
507
506
509
510
513
512
514
512
513
512
508
510
507
507
506
504
504
506
504
508
506
509
508
510
509
514
515
516
516
510
509
509
509
511
513
508
508
505
503
498
495
496
500
510
515
513
514
514
515
515
512
511
508
508
506
505
507
505
504
506
506
511
514
510
514
516
515
514
506
507
501
494
499
498
509
516
513
512
509
511
505
508
509
511
508
501
506
508
510
513
509
510
510
509
509
507
507
507
508
509
508
509
509
512
513
512
513
512
513
513
509
509
509
504
507
503
504
503
504
504
507
510
510
509
512
512
513
512
511
513
511
509
512
512
511
500
503
503
500
501
499
505
502
505
515
515
515
516
513
513
512
511
509
508
507
505
504
506
505
507
505
509
509
508
513
511
512
511
513
511
512
507
508
506
504
507
506
505
507
507
507
508
510
510
512
512
514
513
507
510
509
512
510
506
507
505
503
501
501
506
508
511
510
510
512
512
511
514
512
513
509
510
511
505
507
504
506
505
505
508
505
506
510
510
512
514
513
512
512
512
510
509
505
505
506
505
504
505
505
508
507
508
511
508
510
513
512
510
511
511
511
508
507
504
507
504
505
505
506
507
506
509
509
512
511
512
514
512
512
511
509
509
509
508
508
504
505
505
506
506
503
505
507
508
512
513
513
513
511
512
510
512
509
508
509
507
506
502
496
500
505
508
509
509
514
512
512
515
515
513
512
510
507
507
505
504
505
504
504
506
507
509
509
512
513
514
514
513
509
512
509
511
510
506
506
504
503
504
505
505
504
510
510
513
514
514
515
509
497
501
505
510
509
509
509
507
507
506
508
508
507
509
510
512
515
514
512
513
512
510
504
503
505
507
508
507
505
505
506
506
508
508
508
512
512
512
513
513
512
511
511
508
507
508
505
504
503
501
507
506
506
509
511
512
512
510
513
512
512
512
512
511
510
507
506
504
503
501
504
508
508
510
510
510
508
510
513
513
513
515
514
518
518
517
511
506
504
500
495
483
475
496
510
507
508
516
525
522
520
519
517
514
505
501
499
502
498
505
504
501
505
512
513
514
515
514
515
514
513
513
510
509
506
507
505
504
504
507
504
506
507
510
509
513
517
516
516
515
511
509
505
502
500
500
496
496
508
509
510
513
513
512
511
512
512
510
508
511
517
519
517
515
520
519
515
509
500
496
490
488
484
484
487
501
518
518
519
519
518
517
514
512
510
511
509
508
506
507
507
509
511
508
511
513
513
514
515
515
512
515
511
511
508
496
497
496
496
502
505
508
512
512
510
510
513
512
510
511
511
513
510
509
507
507
507
505
505
506
508
507
506
510
511
512
513
512
513
512
513
512
509
510
511
509
512
513
511
504
504
504
500
494
498
508
500
496
506
516
516
517
513
513
513
512
507
507
505
506
508
508
507
508
508
511
512
512
512
514
516
515
514
508
504
503
499
499
503
504
506
506
507
507
509
513
516
514
517
516
514
508
505
506
504
504
504
503
505
504
507
508
508
511
511
512
513
512
515
512
512
513
508
508
506
505
507
502
503
505
505
507
509
512
512
513
519
517
511
505
502
503
504
501
501
507
515
512
509
508
505
509
504
506
510
508
506
512
516
513
515
515
511
510
508
507
507
503
503
503
506
507
506
509
510
512
516
516
513
511
509
508
509
506
511
512
516
512
513
507
496
498
500
495
491
488
497
514
519
518
514
513
514
515
512
511
509
510
506
504
506
508
509
511
515
515
515
515
515
512
512
512
502
499
505
502
507
505
509
507
504
504
506
505
510
512
515
516
519
520
518
515
511
509
502
501
499
485
483
499
508
510
511
511
508
508
514
520
515
515
514
517
514
508
510
509
505
504
503
501
504
507
509
514
514
519
522
521
520
519
512
499
495
487
482
493
503
506
510
508
510
504
504
504
507
511
517
520
519
515
516
516
512
511
509
509
507
505
508
507
504
504
501
507
504
507
515
516
513
515
511
511
508
508
508
506
506
504
505
505
507
505
508
507
509
511
512
511
514
512
512
511
510
508
509
504
507
504
505
505
505
507
507
509
508
511
515
513
512
513
513
511
509
509
508
506
504
503
502
503
505
508
508
510
510
512
514
510
512
512
513
514
508
508
506
504
504
502
505
506
506
507
509
510
511
512
513
512
511
512
511
511
509
509
508
504
504
503
505
503
503
505
507
508
511
512
513
514
512
512
512
511
510
510
509
506
503
502
503
504
504
506
508
510
510
512
514
513
513
511
511
512
510
508
508
507
505
504
505
504
505
505
508
509
510
511
512
513
513
513
511
513
510
508
509
505
506
504
502
505
506
507
505
508
510
510
511
512
512
513
513
514
507
510
506
507
505
505
507
505
504
506
505
508
509
509
514
511
511
512
513
513
510
508
508
505
504
504
505
504
504
506
505
510
510
512
515
512
513
510
511
510
508
507
508
507
507
504
504
505
505
505
507
507
511
512
514
512
512
514
512
513
510
505
507
505
507
504
503
504
505
505
507
508
510
508
513
512
515
513
514
512
510
510
508
505
506
503
504
504
505
509
506
508
510
512
513
512
514
513
513
512
509
510
508
505
505
502
505
503
504
509
506
509
509
510
513
513
513
512
512
510
509
508
505
503
501
502
501
504
506
507
505
508
507
511
514
514
512
514
512
512
510
510
508
504
506
506
504
506
505
506
508
509
509
511
513
512
515
513
512
514
509
507
505
507
504
505
506
505
504
508
508
511
509
511
514
513
512
515
512
509
508
508
505
507
505
504
504
506
504
507
505
510
506
511
514
514
515
513
513
512
508
507
506
504
504
505
506
505
504
507
508
508
510
512
515
514
513
514
511
512
508
510
509
504
504
504
504
504
506
505
509
510
509
512
512
513
512
512
510
511
509
508
509
505
505
503
504
505
507
507
504
507
511
511
513
514
511
512
511
513
509
509
508
505
506
504
504
503
505
509
509
509
510
513
513
512
514
513
513
510
505
508
508
505
504
504
504
505
505
508
507
510
510
511
513
512
513
512
510
511
510
509
508
506
504
502
503
503
506
507
507
510
510
512
513
513
514
513
510
509
510
506
507
505
505
502
505
504
508
506
506
510
510
512
513
511
513
513
513
510
510
506
505
505
506
505
505
505
504
508
507
509
509
512
514
513
513
511
511
513
508
508
506
506
507
504
505
503
504
507
507
509
511
512
514
513
513
511
511
511
510
508
507
505
505
505
504
503
505
506
507
510
511
512
512
512
512
515
514
511
507
510
506
503
505
504
506
504
506
506
508
509
511
512
513
511
515
515
512
512
508
508
507
503
505
504
505
504
504
506
505
508
509
511
515
512
512
514
513
513
510
508
505
504
504
504
504
503
504
508
508
510
511
511
516
511
510
512
512
512
508
507
507
505
505
505
505
505
504
506
506
509
511
513
515
513
515
512
513
511
509
508
504
503
505
505
504
503
506
505
505
507
510
512
514
512
512
511
511
511
510
508
506
504
506
503
504
505
506
507
507
509
512
513
515
513
511
512
510
510
510
507
506
505
504
505
503
504
505
508
508
511
512
512
514
511
513
512
512
510
508
507
507
504
503
502
505
505
506
507
508
510
509
511
514
512
511
514
511
511
509
507
506
506
508
504
504
507
504
507
508
507
511
512
513
512
512
512
512
513
507
508
508
505
505
504
502
504
505
508
507
509
509
513
513
513
511
513
510
512
508
508
507
504
505
504
507
504
506
508
505
508
509
511
512
511
512
512
514
513
509
506
508
504
505
502
504
503
505
508
507
507
510
511
513
513
513
515
512
513
509
507
506
507
505
504
504
504
504
505
507
509
508
513
513
512
512
513
510
511
509
508
506
505
507
504
504
504
505
507
507
510
511
513
514
513
512
514
510
511
508
507
505
504
503
503
505
504
504
507
507
507
511
512
513
513
512
512
511
512
511
508
507
507
504
505
503
505
505
507
506
507
508
511
516
512
514
513
511
513
509
510
507
504
504
504
503
504
504
507
507
509
512
511
514
512
513
512
511
511
510
511
506
504
504
504
502
506
505
508
508
510
511
512
514
511
512
513
513
512
507
508
505
505
504
503
504
504
505
508
508
511
511
513
514
512
512
514
513
511
508
507
504
504
502
505
505
505
505
507
506
509
512
512
514
512
512
514
511
511
509
508
506
503
504
503
504
504
506
508
507
511
511
514
513
513
512
512
512
510
508
508
507
506
506
503
504
504
502
508
508
510
511
513
515
512
513
515
512
512
511
507
507
506
506
504
502
505
505
505
505
510
509
512
513
513
515
513
512
510
510
507
508
505
506
503
503
503
505
508
507
511
510
512
513
511
511
512
512
513
507
507
506
505
504
505
505
506
504
508
505
508
511
512
513
512
514
513
510
509
510
510
505
505
506
502
503
504
504
508
508
510
511
512
512
512
514
512
511
511
508
507
508
504
506
503
505
504
504
508
507
508
511
513
515
513
512
511
512
512
510
509
506
504
506
505
505
504
506
507
507
511
511
511
512
513
513
513
513
512
509
508
508
502
504
503
504
503
506
505
507
509
513
513
511
512
514
511
511
510
508
506
507
505
504
505
505
505
504
507
507
510
511
513
514
514
511
511
513
512
509
507
508
507
504
504
505
504
505
506
507
510
511
511
513
513
512
514
512
512
508
507
506
504
504
502
504
504
508
507
508
509
510
513
515
512
513
512
511
511
511
508
506
507
504
503
505
505
508
507
507
510
511
511
512
512
512
513
510
512
507
507
508
504
504
503
503
502
504
506
507
510
509
511
514
514
514
514
513
511
508
508
505
505
504
503
504
504
505
507
508
508
513
511
512
513
513
511
511
513
510
509
509
504
505
503
504
503
506
508
507
508
510
511
517
513
513
513
512
512
509
510
507
505
505
504
503
504
504
505
507
510
508
512
514
512
512
514
512
513
507
507
506
507
507
505
506
504
504
507
506
509
511
513
515
511
514
511
511
511
507
507
507
505
504
503
503
505
505
508
509
510
512
513
512
511
512
516
512
513
508
505
505
504
504
504
504
505
504
508
507
509
512
513
513
513
514
512
511
511
508
507
508
505
506
505
503
503
507
508
508
510
512
513
512
512
510
512
511
510
508
508
507
504
504
505
503
504
505
508
508
509
511
511
512
513
515
512
511
509
510
509
506
504
505
504
504
505
505
506
509
509
511
513
513
511
512
513
511
513
508
507
506
505
504
505
506
504
504
509
506
507
510
513
513
513
513
513
511
511
509
508
505
505
505
503
505
504
506
505
505
511
511
511
512
512
513
513
511
511
508
508
508
505
505
505
503
503
505
506
508
509
510
510
514
511
512
512
514
512
508
508
505
505
504
504
506
505
505
507
506
508
510
511
514
513
512
512
512
512
509
508
506
505
505
502
504
504
504
506
507
510
511
515
513
515
513
512
511
512
510
506
507
505
504
501
503
505
505
508
507
509
510
512
513
512
514
512
510
511
508
507
505
507
505
502
505
505
505
508
507
510
512
515
514
514
513
513
513
511
508
507
504
504
505
502
504
504
505
506
508
508
510
514
515
514
513
511
510
512
509
507
506
507
507
504
505
502
506
508
507
508
511
512
514
513
511
512
512
512
508
508
507
504
504
504
506
503
505
506
507
510
511
512
514
512
510
511
511
510
509
510
509
506
506
503
504
504
505
509
509
508
513
512
515
514
514
510
509
511
508
508
504
506
503
503
504
504
506
508
507
510
510
511
512
511
513
512
511
512
508
508
504
504
505
505
504
505
507
509
508
513
512
512
512
512
514
512
510
511
509
508
504
505
505
504
505
505
507
506
505
510
511
514
514
512
513
514
512
509
507
507
505
506
504
503
503
505
505
507
508
508
512
513
516
513
514
512
511
511
508
505
504
504
508
506
505
504
507
507
507
511
512
512
513
514
513
514
512
510
508
505
504
504
505
504
505
503
509
508
508
511
512
512
513
513
512
513
512
512
508
507
506
504
502
502
502
504
504
508
508
508
510
512
515
512
513
513
512
511
508
507
506
506
505
503
503
505
505
509
510
510
511
511
513
511
512
511
512
510
508
507
508
504
504
504
504
506
504
506
507
512
511
511
513
512
511
512
513
511
507
509
505
504
505
504
505
502
506
508
505
510
512
513
513
511
513
512
511
511
507
508
505
504
505
502
505
504
506
507
508
511
511
514
515
513
513
512
511
512
508
509
506
504
507
505
505
504
505
507
509
511
511
506
508
510
513
515
512
513
508
508
505
505
504
504
506
503
508
510
508
508
510
512
513
511
514
513
512
512
508
508
504
503
504
502
505
504
506
507
510
510
511
513
514
514
513
511
511
512
509
507
504
505
504
502
507
505
507
509
509
508
510
512
513
515
516
513
511
510
507
510
507
506
504
504
506
505
507
507
508
509
512
513
513
513
512
512
512
509
506
508
506
503
506
504
503
503
506
508
508
509
512
513
515
515
513
511
511
509
508
508
508
505
504
504
505
506
504
507
507
510
511
511
514
513
514
514
513
512
508
507
507
504
503
505
504
504
504
510
508
509
514
512
515
513
513
514
510
510
507
506
504
505
504
504
504
505
505
509
507
510
511
511
513
512
512
512
511
512
506
504
507
507
506
504
506
505
505
508
508
509
512
512
515
512
513
512
513
510
509
507
507
506
508
505
504
504
504
508
509
510
511
512
514
512
512
513
511
511
509
508
507
503
506
503
505
504
505
509
507
510
511
513
516
514
511
512
511
511
509
508
506
504
505
504
505
503
507
509
510
512
511
511
515
511
513
512
511
511
505
508
506
507
506
505
504
504
505
507
508
511
511
515
516
512
513
512
509
510
507
507
506
505
502
502
504
506
506
509
508
511
512
512
513
513
513
510
509
510
509
510
504
504
503
501
506
504
505
508
506
511
512
512
513
512
513
512
511
510
506
507
508
502
504
504
505
506
507
508
510
511
512
513
513
511
511
510
510
512
507
506
505
506
506
504
504
502
507
509
509
510
510
512
514
515
514
512
509
512
509
508
507
506
506
504
504
504
505
508
510
508
509
511
516
513
513
513
510
511
506
509
505
503
504
505
504
505
508
506
505
510
512
513
512
512
512
512
511
510
507
505
504
504
504
504
506
505
504
508
507
511
512
513
513
514
517
514
511
512
508
504
505
505
505
504
505
505
506
507
507
509
512
511
512
512
511
511
513
511
508
509
504
503
503
504
502
503
504
508
507
509
512
514
515
511
514
512
511
510
508
507
506
504
505
504
504
504
506
508
510
511
512
512
513
511
515
514
512
509
506
506
507
504
507
504
505
504
505
506
507
509
511
511
512
512
513
512
512
511
509
506
506
506
506
505
505
505
506
509
507
511
510
515
512
511
513
513
511
511
507
509
504
504
503
504
501
504
508
507
507
509
513
513
512
513
512
512
510
512
509
505
506
504
505
504
506
502
504
508
508
511
511
514
513
511
513
512
510
508
509
506
505
502
503
504
504
506
505
509
506
511
511
513
513
512
513
512
508
510
507
508
504
505
505
504
506
504
506
508
508
510
511
514
512
510
512
510
510
511
510
508
506
505
505
504
504
505
504
509
511
510
511
511
513
511
512
510
511
511
507
508
504
504
504
503
501
506
506
510
508
512
512
510
514
513
515
513
511
510
507
508
506
505
507
504
505
504
507
509
510
508
511
513
512
512
512
510
511
512
508
507
505
504
505
503
505
504
505
508
507
510
512
513
515
515
512
511
511
510
508
506
506
504
504
503
505
504
505
509
508
511
509
512
512
511
512
511
511
511
508
505
505
505
506
504
504
504
507
509
509
510
511
512
513
511
513
513
510
510
508
507
503
508
506
504
504
504
506
508
507
510
514
514
513
513
512
511
509
510
506
506
506
504
505
503
505
504
505
508
511
511
512
513
514
514
514
512
508
509
507
507
503
502
504
503
504
505
506
508
507
512
515
515
515
508
511
509
512
511
508
507
505
505
505
504
506
507
506
509
509
512
512
513
514
511
511
511
511
510
509
508
504
505
507
504
502
505
504
508
509
511
511
511
516
514
514
511
512
509
507
507
505
505
504
504
504
503
507
509
510
512
511
512
513
513
513
511
510
511
508
505
505
505
506
502
503
505
507
509
511
510
510
513
513
512
512
512
511
508
507
506
507
503
504
504
504
504
505
511
509
511
513
513
515
511
512
512
510
508
505
506
506
504
504
504
505
506
507
508
509
512
512
512
513
513
513
512
513
511
507
507
505
501
505
504
502
505
507
508
509
512
512
512
514
511
514
510
511
510
506
507
505
504
507
503
503
506
504
508
510
512
511
512
515
512
512
512
511
510
508
506
507
505
504
504
505
505
505
508
508
510
510
513
514
512
513
513
510
511
506
505
504
504
505
503
504
504
507
509
511
513
512
513
513
514
516
510
511
509
504
505
503
503
506
504
504
504
509
510
509
511
510
514
515
513
512
514
511
509
505
506
506
507
505
504
503
505
505
509
508
511
512
512
513
512
512
513
512
508
506
505
503
504
505
504
504
505
507
511
508
510
512
514
514
512
515
512
512
510
509
508
504
504
503
504
505
505
507
508
509
510
511
512
514
512
510
510
511
512
506
505
504
503
503
504
504
505
509
512
507
512
514
515
514
512
513
513
510
508
507
505
504
504
506
504
503
507
506
509
509
512
511
512
514
511
514
512
511
508
507
506
504
504
504
505
503
506
507
507
511
512
512
513
512
510
512
511
509
510
506
505
507
505
506
505
504
507
505
509
508
512
511
512
516
513
512
512
512
510
507
507
505
504
507
506
505
505
508
508
508
511
510
511
513
512
510
510
510
509
508
508
505
504
504
504
505
504
504
509
509
509
513
514
515
512
514
511
509
510
507
505
503
503
505
503
505
505
504
508
508
511
514
514
514
512
512
512
511
509
505
504
504
503
505
504
504
506
505
506
510
512
513
513
514
514
513
512
512
510
504
507
503
506
503
503
503
504
505
510
508
510
512
514
513
511
513
511
512
511
510
506
505
502
504
503
504
505
508
511
510
512
512
515
513
513
512
510
509
508
507
506
507
506
505
504
504
506
506
511
512
508
510
513
515
512
512
510
510
509
507
505
504
505
507
506
505
505
507
510
509
512
511
512
514
513
513
511
509
508
509
507
507
506
505
501
505
505
505
509
507
510
511
512
512
513
513
511
511
511
508
507
504
504
504
503
503
504
509
510
510
512
512
513
514
513
513
513
510
510
505
507
504
502
505
505
504
507
509
509
508
511
511
513
513
511
512
511
510
510
507
505
506
504
505
503
504
506
507
508
508
511
512
511
512
515
511
512
511
508
508
508
504
507
504
505
506
506
506
510
508
512
511
512
513
512
515
512
510
508
508
505
502
504
504
503
505
504
505
509
510
513
513
514
514
514
511
510
510
509
507
505
505
504
504
505
506
506
507
508
510
510
511
510
513
513
512
512
511
509
508
508
504
504
504
504
504
507
510
509
509
510
511
512
515
512
512
511
509
512
508
504
505
504
504
500
505
506
508
508
510
511
513
515
515
511
511
511
512
508
507
505
504
505
507
504
504
505
505
509
508
512
512
513
514
515
513
512
508
508
507
505
504
503
505
504
504
503
506
509
510
511
512
513
514
515
512
510
511
509
507
506
506
504
503
504
505
505
505
509
510
510
512
513
515
513
514
510
508
510
504
506
504
504
505
504
504
505
507
510
508
510
512
513
515
512
513
512
510
509
509
507
504
504
506
504
504
504
504
508
510
512
511
513
516
510
513
510
510
509
510
506
507
504
506
504
506
505
504
509
511
510
511
511
510
513
512
510
512
509
507
507
504
504
503
503
505
506
506
512
510
510
511
511
515
513
513
511
510
509
508
507
503
503
508
504
505
505
506
508
507
510
514
513
512
511
512
509
510
510
506
506
505
505
508
505
505
504
507
510
508
511
511
514
513
511
511
510
510
508
507
508
505
505
506
502
504
505
506
508
508
513
511
515
516
513
513
512
511
510
506
507
505
504
505
503
503
505
506
509
508
509
512
513
514
512
513
510
511
510
506
504
503
504
505
503
504
505
508
509
511
511
511
510
515
512
514
512
512
508
507
504
504
504
504
504
506
506
507
511
511
511
511
514
514
511
512
512
511
510
507
505
506
504
503
503
506
503
506
510
508
511
511
513
513
514
511
512
509
511
507
506
505
504
506
504
504
507
505
509
510
510
511
514
514
512
516
512
510
508
506
504
505
505
507
507
504
507
506
509
509
511
512
511
515
512
512
509
509
511
507
504
506
503
505
505
503
505
509
509
510
511
513
511
514
515
512
511
508
507
505
505
503
502
507
504
504
504
507
510
508
512
511
514
515
513
513
511
510
510
506
505
504
503
504
504
505
505
505
509
511
513
511
512
514
514
513
510
507
508
507
507
506
505
508
505
504
505
508
510
508
511
511
512
515
511
512
511
511
510
507
505
504
503
504
504
504
507
504
508
510
512
510
512
514
511
514
511
510
510
507
508
504
503
506
503
505
504
507
510
509
510
513
512
515
512
513
511
510
510
506
506
505
506
505
504
503
504
508
509
510
511
512
512
513
514
511
511
512
509
506
505
504
505
503
502
505
503
508
511
511
512
513
514
516
513
510
510
507
510
508
506
506
505
504
504
505
505
507
508
510
511
514
515
515
512
511
512
510
509
507
504
504
505
506
501
504
506
505
504
502
510
513
515
516
514
516
512
511
510
508
507
505
504
505
504
504
506
509
510
507
511
513
513
515
511
512
512
510
509
509
507
504
505
504
504
503
505
504
508
511
513
512
511
515
513
512
510
508
508
506
508
507
507
507
504
504
504
505
507
507
508
513
514
516
514
515
514
512
507
504
505
505
503
502
502
503
506
508
509
509
512
514
512
513
513
513
513
510
508
507
507
505
504
506
504
505
506
505
509
509
512
512
513
515
512
511
509
510
509
506
506
504
504
506
504
507
505
507
509
511
512
512
513
513
512
511
512
510
509
506
505
504
506
505
502
505
506
508
510
509
511
513
513
511
515
511
510
508
508
505
507
505
504
504
502
505
505
508
508
510
512
514
514
513
514
515
513
509
506
503
503
503
502
501
504
505
506
509
511
511
512
515
512
513
512
512
512
510
510
505
505
505
504
506
504
504
504
505
508
509
512
513
513
514
512
512
511
510
508
506
508
504
504
504
503
504
505
507
511
508
510
511
513
515
512
512
512
508
508
508
507
505
504
506
504
504
505
505
508
509
511
513
511
513
512
513
512
511
509
507
506
504
503
505
503
504
505
506
511
511
511
512
515
515
511
511
511
511
511
509
506
504
504
504
503
504
506
505
510
507
511
514
514
514
512
511
510
510
511
508
504
505
505
506
504
504
507
507
508
507
511
512
514
514
513
511
512
511
509
508
504
504
503
503
503
504
505
507
511
511
514
513
513
515
512
512
510
510
509
507
505
504
503
506
504
505
506
507
510
507
511
511
512
515
511
512
513
508
510
508
508
501
499
503
503
504
507
506
510
511
512
513
513
514
513
514
512
508
508
506
507
504
503
504
507
506
508
506
510
510
511
512
513
513
512
512
511
508
510
505
505
506
505
505
505
504
506
507
511
510
512
515
515
514
515
513
511
508
507
506
505
501
502
503
503
505
507
507
509
511
510
511
513
513
512
514
513
509
510
505
507
506
506
505
502
505
504
506
508
509
511
513
513
512
512
514
513
510
511
506
507
504
503
505
504
503
505
506
509
510
512
515
512
514
511
512
510
511
507
505
504
506
503
505
504
504
507
507
511
510
512
512
511
514
512
510
510
509
509
508
506
503
505
508
505
505
506
506
508
510
511
513
511
515
515
511
511
511
509
508
506
506
503
506
502
505
506
506
506
509
512
511
515
514
511
511
510
510
511
508
505
504
505
506
504
504
505
508
512
511
511
514
513
511
512
513
512
512
509
504
505
504
505
503
502
503
507
507
510
510
510
513
511
515
513
511
512
512
508
505
506
505
503
505
504
505
507
505
510
512
512
514
514
516
513
514
511
508
504
502
505
506
504
505
503
504
507
508
511
511
511
512
513
515
512
513
511
510
508
504
506
505
504
506
505
504
506
508
508
512
512
512
515
514
513
513
510
509
510
508
505
503
504
504
502
503
508
508
510
509
512
515
515
515
511
512
512
511
508
504
500
503
504
506
504
505
507
509
511
510
511
514
514
513
513
514
511
512
509
505
507
504
503
507
505
505
505
505
509
509
512
513
513
513
512
513
511
508
509
507
504
503
503
506
501
503
506
508
511
509
513
511
512
512
512
513
512
510
509
508
505
504
504
505
502
504
507
507
512
508
513
513
514
514
511
512
510
510
510
507
506
504
504
504
505
505
506
506
510
510
513
516
514
514
512
510
509
508
503
505
504
504
503
506
504
505
503
508
509
510
512
512
512
512
511
513
512
508
505
504
508
506
507
509
506
505
508
507
510
506
508
510
511
513
510
513
512
509
510
507
504
505
505
504
502
505
507
507
510
511
512
514
511
515
514
512
510
509
509
507
507
505
503
505
505
504
506
508
511
510
513
512
512
513
511
512
512
508
508
506
505
504
503
505
505
504
505
506
511
508
513
512
514
512
511
511
511
511
508
505
505
505
504
505
502
504
507
506
509
510
512
514
510
511
514
512
511
511
511
507
505
504
502
501
502
503
504
509
508
512
512
513
514
516
513
512
514
511
510
507
503
499
501
505
502
506
508
508
509
512
513
514
513
512
512
510
510
510
508
506
503
503
503
505
504
506
504
508
511
511
513
513
513
513
512
511
511
508
511
505
505
504
506
507
505
502
504
507
510
511
512
514
514
515
512
511
511
506
508
506
505
505
503
505
502
508
504
508
509
509
512
514
513
512
512
512
512
509
508
507
505
505
504
505
505
503
506
509
510
511
513
513
513
514
512
512
511
510
506
506
507
505
507
506
505
505
505
508
511
509
512
512
513
515
513
512
512
508
510
506
505
503
506
505
501
499
505
509
509
510
513
515
515
514
511
513
513
510
506
506
506
505
504
504
505
505
505
507
510
508
512
513
513
512
513
511
509
509
509
507
503
507
505
505
502
505
503
507
510
508
512
513
512
515
513
512
511
508
509
506
505
503
504
504
503
505
507
509
512
511
511
512
513
513
510
511
512
511
512
507
504
502
502
506
504
504
506
508
512
512
513
513
513
514
511
511
511
509
508
506
505
505
504
505
504
507
507
506
510
510
511
512
513
513
513
513
508
507
508
506
505
504
505
505
504
507
507
511
511
508
514
513
513
515
514
508
509
505
510
508
505
506
505
504
504
506
507
507
510
511
512
513
512
514
512
512
511
507
506
504
504
505
504
503
503
502
506
508
512
511
512
515
516
514
511
511
511
508
510
505
505
503
503
505
502
505
508
507
508
510
513
513
514
514
513
512
510
506
507
505
508
506
506
507
506
503
505
508
507
508
512
512
511
513
514
512
510
507
508
508
508
506
504
505
504
506
503
503
508
509
514
515
513
516
513
511
510
503
508
506
507
504
503
505
504
507
510
505
511
512
512
511
513
516
512
510
510
510
511
505
507
503
503
503
504
504
505
508
511
510
512
514
512
513
513
511
512
509
509
506
504
506
504
506
504
505
507
505
510
511
514
512
512
514
512
513
511
511
511
506
503
503
500
503
497
504
507
507
510
511
512
512
512
516
511
510
511
513
511
508
507
507
504
504
504
504
503
508
509
512
515
513
513
514
512
511
509
508
510
504
505
505
504
505
503
509
512
511
512
512
512
510
504
510
508
508
510
513
505
500
505
507
506
505
504
505
507
510
511
511
512
511
515
515
513
511
508
510
509
505
505
504
506
503
504
505
505
509
509
510
513
512
513
515
515
514
510
509
510
507
503
503
502
503
504
507
507
510
509
508
513
514
512
515
513
512
511
508
511
508
507
505
503
501
504
505
504
507
511
510
512
511
514
515
512
511
510
508
508
506
505
504
505
506
504
504
506
508
509
508
513
514
513
511
513
512
511
506
508
506
503
503
504
503
505
507
505
508
508
512
514
512
513
515
512
512
510
507
509
504
504
505
505
506
504
502
504
506
512
513
513
514
513
513
510
512
511
509
509
504
506
505
500
501
497
501
505
511
511
512
514
513
514
513
513
511
508
509
511
507
506
506
503
505
503
505
507
508
512
512
513
513
514
514
513
511
510
508
509
504
504
502
504
504
503
505
508
509
511
509
512
513
513
515
512
513
512
510
510
505
503
505
504
506
505
507
507
508
512
512
513
514
512
512
507
509
510
510
510
507
504
504
503
507
503
505
505
508
511
508
511
514
513
515
513
511
511
507
509
504
506
506
503
508
505
506
508
508
510
511
511
514
515
513
514
511
512
507
508
503
504
505
506
507
506
507
509
508
510
507
512
512
512
510
508
508
510
509
511
504
505
506
505
504
504
505
508
510
511
512
515
514
513
514
511
508
507
505
507
505
508
504
504
507
503
508
507
508
509
510
512
511
514
515
511
512
508
508
508
502
503
504
507
506
504
504
506
510
511
511
513
514
515
515
511
511
511
510
509
505
504
506
506
507
504
505
508
508
512
511
513
513
515
512
512
511
510
507
508
506
502
505
506
507
503
503
505
508
508
506
511
512
511
509
511
512
512
512
511
506
506
506
504
508
506
506
506
508
508
508
510
512
511
514
512
513
510
508
509
505
506
503
504
504
504
506
507
511
512
511
513
513
513
513
513
512
509
508
511
503
505
504
502
507
506
508
511
510
508
508
512
510
507
511
512
513
511
510
509
508
505
504
505
508
505
506
507
507
510
511
512
514
514
513
509
511
512
510
510
506
505
504
501
506
504
508
503
504
510
510
515
513
513
513
510
511
508
504
506
506
507
505
505
506
506
505
505
511
512
511
513
512
514
514
514
511
511
511
508
505
503
505
502
504
504
504
507
511
509
512
512
510
512
513
510
510
511
510
510
504
504
501
504
507
505
505
507
510
510
509
510
511
514
516
512
512
510
507
508
504
504
504
505
506
505
506
504
511
513
509
514
513
515
515
511
510
508
508
508
504
506
505
505
505
504
505
507
508
509
510
513
512
515
515
513
510
510
508
507
506
505
506
502
504
502
507
507
507
511
509
513
513
514
512
512
512
511
508
508
507
504
506
506
505
503
506
508
507
510
511
510
511
514
514
514
512
509
506
508
503
504
504
505
504
503
506
508
510
511
509
512
512
513
514
513
512
508
508
508
508
504
505
503
506
503
506
505
511
510
511
515
513
514
515
512
510
510
506
508
505
501
504
503
507
503
507
507
511
511
511
510
512
514
512
512
513
510
508
510
507
504
502
505
506
504
505
508
508
510
509
511
513
515
516
513
511
509
509
507
503
504
505
506
505
505
504
507
509
511
510
513
512
513
514
510
511
510
506
508
504
504
502
505
505
503
503
509
510
509
510
513
511
512
515
510
511
512
508
506
504
507
504
504
504
503
506
506
508
511
513
515
512
514
513
511
510
511
508
509
504
505
503
503
506
504
506
508
510
512
508
511
511
512
513
510
510
507
508
508
504
505
504
504
505
503
505
506
512
512
509
514
514
513
514
512
511
511
510
508
504
504
505
504
506
503
507
509
508
512
511
512
513
514
515
512
510
509
507
508
506
504
503
504
506
505
508
504
509
510
509
511
512
513
513
512
511
510
510
510
505
503
507
506
505
505
507
508
509
511
508
515
513
515
514
512
510
508
505
508
504
504
503
504
505
503
506
507
508
512
510
514
516
514
516
514
512
509
506
503
498
500
502
507
506
507
507
509
512
511
511
511
511
507
511
514
511
512
510
508
504
505
505
505
504
505
505
508
509
512
513
514
513
515
516
513
511
509
508
508
503
502
502
504
503
504
508
506
509
511
509
511
514
513
512
512
512
509
507
508
502
503
505
506
506
505
505
506
510
511
512
517
517
515
511
511
507
506
504
501
503
504
507
509
508
508
507
507
509
508
509
513
514
511
512
508
511
511
508
509
509
511
509
503
504
502
504
501
504
511
513
519
514
513
512
510
512
513
508
508
511
509
508
504
502
497
495
491
504
512
519
519
520
524
526
517
513
503
497
502
500
499
489
491
501
510
512
514
513
516
519
528
530
528
529
522
515
498
490
486
485
486
491
487
492
496
514
520
519
519
515
514
517
516
520
517
517
514
511
506
501
502
501
503
505
509
511
511
510
516
519
525
524
511
515
509
493
493
487
488
497
499
507
509
514
509
505
508
511
515
516
516
516
517
516
512
514
511
509
507
508
499
500
507
512
513
511
515
515
513
513
511
504
510
526
524
529
508
491
498
503
497
502
494
485
476
488
498
493
480
487
513
525
523
534
542
537
530
524
516
505
492
487
490
486
494
506
506
505
516
524
521
519
519
522
517
515
516
508
509
504
501
502
502
504
503
495
503
510
512
509
513
516
515
514
512
514
512
509
508
504
507
508
502
501
502
506
507
508
515
519
519
518
509
510
505
500
503
500
501
504
506
505
501
503
505
507
510
511
515
518
518
531
541
542
525
515
502
486
472
461
462
480
501
511
506
513
516
519
519
518
523
519
517
519
515
515
513
510
506
504
504
504
504
505
503
504
506
508
512
512
514
513
512
512
512
512
508
508
514
514
508
509
505
505
496
496
503
499
502
505
512
512
514
516
512
512
510
511
509
506
507
505
507
508
507
505
505
510
514
513
514
513
514
512
511
508
499
503
510
511
510
507
505
502
503
500
503
507
513
514
520
520
519
515
513
513
508
504
501
496
492
495
503
507
514
513
515
519
516
508
496
498
503
504
512
516
515
518
514
512
510
504
502
509
513
518
519
517
508
505
500
493
495
505
499
499
504
513
509
506
508
513
513
509
508
508
511
509
512
512
512
514
516
520
517
513
512
507
505
503
500
502
501
504
503
506
509
512
511
513
515
513
513
517
512
515
508
504
502
497
494
498
505
511
513
517
515
514
515
512
509
499
504
501
495
508
516
518
512
513
510
510
505
502
499
502
504
507
506
506
515
516
515
518
517
516
510
507
508
505
507
505
500
504
504
508
509
504
508
510
513
519
519
520
516
511
507
505
500
503
503
501
498
504
511
512
510
506
507
510
512
507
511
514
515
515
510
507
508
503
503
503
504
509
510
504
505
511
514
514
515
519
519
515
512
510
505
505
504
500
491
489
504
507
508
513
518
519
521
519
504
493
499
508
512
515
514
516
509
512
513
514
505
497
490
497
503
505
503
513
526
528
527
524
516
504
497
492
490
479
482
495
506
516
518
515
513
512
514
519
532
533
524
522
513
504
496
493
486
479
492
502
514
513
510
509
512
514
515
518
517
516
513
514
512
514
517
511
503
497
497
499
498
497
498
502
518
525
521
524
530
536
520
513
515
511
485
474
463
465
491
497
505
519
524
528
520
521
523
516
514
513
510
517
511
494
482
490
506
511
520
536
532
520
510
514
503
488
491
497
471
481
508
507
510
519
521
527
537
526
513
503
495
490
479
479
494
509
520
525
529
535
530
528
528
520
504
500
493
493
489
483
488
502
504
505
513
520
521
518
514
520
526
531
532
536
528
511
489
486
481
489
519
518
521
521
519
530
524
519
526
513
480
455
462
492
482
456
480
501
521
513
513
518
530
547
517
510
505
503
499
505
501
516
504
497
513
548
538
516
517
494
459
440
441
496
535
580
582
552
545
504
499
482
473
476
515
528
519
549
548
518
509
499
483
452
459
468
474
502
540
543
536
531
509
513
515
506
498
471
522
571
579
487
444
477
490
531
521
499
490
503
523
571
599
556
545
470
423
433
508
561
548
463
494
512
489
475
419
390
481
545
530
550
537
536
533
581
566
516
515
504
531
543
504
403
373
419
470
511
510
527
529
515
540
544
527
555
594
561
483
504
509
485
524
556
562
545
511
477
475
490
487
458
423
455
510
518
535
538
520
503
441
426
476
483
539
612
609
597
560
548
524
487
475
449
453
430
474
480
481
535
502
497
528
548
584
593
523
515
483
444
437
467
514
525
486
501
532
523
503
519
510
484
506
544
512
507
524
521
498
512
524
523
555
560
541
560
465
431
426
456
467
478
499
502
500
524
548
515
509
516
551
546
489
497
527
515
496
490
522
509
507
510
520
558
496
464
495
520
544
537
488
496
522
515
512
524
509
494
508
469
451
489
541
533
504
520
504
508
515
524
539
523
483
490
445
481
526
534
529
528
527
540
559
540
490
384
429
492
511
543
513
500
517
542
508
505
506
513
497
486
519
524
526
536
508
492
509
502
507
506
522
518
520
515
513
500
512
501
504
497
486
509
521
529
519
492
509
513
519
499
502
496
505
503
502
496
489
503
549
527
493
507
526
537
481
460
486
495
505
483
527
556
542
528
522
527
524
497
492
516
519
501
509
470
459
468
477
480
531
556
545
543
557
543
505
505
468
504
521
518
498
496
468
485
472
482
507
526
519
513
516
494
510
519
521
521
511
502
529
529
512
496
491
499
511
528
524
520
490
527
538
504
480
492
527
486
496
506
505
510
518
532
522
549
524
498
496
491
491
512
518
530
494
502
498
485
460
517
521
526
523
509
514
471
445
499
511
477
516
543
524
526
575
558
540
484
443
547
493
457
481
502
512
504
516
530
515
514
514
510
513
523
518
505
508
499
506
506
509
512
502
519
506
506
513
521
524
498
492
496
497
535
523
503
503
503
505
516
505
499
493
516
516
492
493
507
525
544
512
494
481
522
537
563
498
481
504
511
503
514
523
505
512
499
459
488
505
529
497
507
496
498
484
496
508
543
574
542
498
468
475
503
514
539
532
506
521
507
526
528
508
481
501
491
477
499
505
512
511
505
511
519
510
510
519
512
512
507
490
482
504
511
536
534
512
526
517
521
496
506
489
478
476
507
571
549
489
485
515
511
510
497
510
536
536
516
502
504
472
464
484
511
502
507
519
511
492
491
513
532
550
505
495
505
511
511
512
528
519
515
512
507
485
472
485
501
519
518
517
536
528
502
511
510
511
513
494
487
509
505
513
513
511
513
505
506
507
503
494
504
497
538
558
527
496
509
508
491
501
519
496
488
514
518
529
522
512
514
483
500
523
499
464
494
506
517
529
527
546
487
483
497
499
514
513
505
526
516
501
498
482
489
494
502
531
551
553
529
482
491
503
477
458
505
539
531
521
500
496
508
519
519
519
525
516
510
507
493
471
497
524
534
501
499
526
533
515
521
515
508
501
507
489
498
495
497
519
502
497
514
518
512
495
505
524
522
507
515
526
515
527
551
526
524
522
468
444
480
478
467
473
523
511
511
520
503
498
508
527
531
529
534
528
545
547
507
509
487
459
463
459
466
487
509
528
531
531
533
521
518
505
510
508
514
528
519
507
509
516
534
530
498
476
472
480
505
529
531
509
521
522
518
513
487
481
483
501
545
524
502
508
496
504
502
522
512
494
501
522
519
499
512
524
516
508
507
507
508
506
510
508
490
494
509
519
524
517
496
496
497
488
511
525
510
502
528
545
510
502
504
512
506
481
484
494
502
520
513
504
527
532
512
507
505
516
519
521
525
518
504
485
494
447
445
495
511
514
516
536
528
514
516
516
518
522
519
518
516
519
505
501
507
507
491
487
494
508
505
509
530
529
508
508
509
507
505
513
511
510
497
513
518
496
497
512
516
523
522
495
501
515
517
499
516
509
515
491
484
503
505
536
553
532
526
476
470
449
490
496
499
507
519
530
524
511
504
501
530
517
498
515
513
507
499
490
518
516
504
512
509
517
527
517
510
500
513
509
511
496
483
486
500
507
513
511
511
511
511
524
520
516
501
497
518
543
521
510
516
513
487
476
499
508
511
513
524
506
497
504
502
519
521
505
498
475
486
498
498
508
527
540
527
515
532
510
507
502
504
512
506
508
519
514
520
520
524
511
489
500
508
495
478
491
489
499
510
517
506
515
527
509
505
497
507
511
520
524
511
521
523
513
492
478
494
511
509
501
511
511
508
521
515
519
507
509
508
505
491
512
503
505
501
507
521
515
542
528
511
512
518
523
504
500
496
499
506
501
479
481
510
508
511
498
501
510
516
516
517
513
523
522
512
509
515
513
512
511
506
500
502
495
508
511
500
508
513
512
505
512
515
504
503
499
488
500
509
521
511
506
505
499
502
515
531
527
514
531
530
512
504
509
506
500
497
515
509
509
522
487
482
502
504
516
509
505
508
502
491
505
516
502
494
513
522
516
521
515
510
522
523
503
495
497
487
489
503
517
520
519
523
521
510
499
532
521
494
488
496
498
508
494
507
543
512
476
487
510
512
515
525
519
516
519
518
502
502
491
502
508
510
527
516
500
497
504
520
527
519
511
510
510
515
528
515
501
505
519
523
524
531
505
449
483
496
470
487
506
533
524
517
511
526
500
480
495
518
511
510
509
495
494
492
484
482
503
501
515
544
546
531
524
526
524
525
504
505
491
489
501
510
529
522
513
511
512
497
499
507
510
515
518
516
512
505
500
501
518
522
522
510
502
496
484
500
510
497
502
508
504
505
493
503
513
519
530
515
525
505
496
497
512
515
509
510
512
501
506
513
523
513
505
486
508
528
515
525
483
480
475
489
507
526
520
503
502
500
519
527
524
512
532
532
543
506
485
486
505
480
483
495
505
524
513
519
531
520
511
516
523
516
503
495
481
486
497
511
512
497
506
515
519
512
507
507
509
525
504
487
518
521
512
516
517
526
522
527
504
492
500
497
495
501
502
504
510
504
504
518
516
516
508
537
526
519
515
520
508
529
541
513
472
472
482
488
481
491
484
493
512
531
539
542
536
531
506
478
453
489
496
500
512
543
536
514
516
503
492
499
492
474
485
522
531
534
521
524
514
513
515
510
512
515
496
485
496
500
519
526
516
504
508
505
500
505
519
518
512
507
499
512
520
510
487
487
515
534
500
480
482
522
534
520
516
524
519
516
509
515
514
512
508
490
477
482
519
511
513
531
530
527
540
515
505
504
478
452
480
492
487
519
516
522
516
504
509
514
529
516
509
515
521
528
531
514
504
485
496
508
500
497
472
477
476
497
510
528
531
529
524
511
547
525
500
515
482
478
504
505
490
507
506
525
532
546
537
526
526
500
501
472
500
487
488
513
513
504
517
513
513
511
518
502
479
453
487
516
520
533
534
533
540
526
516
508
514
500
499
499
496
493
484
482
478
492
498
522
529
548
520
508
521
526
527
521
507
504
516
500
488
488
494
491
491
485
491
512
508
494
504
518
532
567
549
541
531
531
516
504
493
495
485
474
482
495
508
506
521
535
537
543
536
517
503
497
499
491
497
488
475
472
479
475
472
504
509
518
514
509
503
518
529
510
516
537
538
534
529
508
500
508
520
518
505
521
527
511
461
446
472
504
537
554
545
530
504
486
510
511
494
489
491
495
491
503
516
506
512
524
533
532
520
519
523
494
507
545
526
534
519
497
494
497
503
508
499
486
485
493
493
477
481
487
496
505
508
515
521
519
518
500
515
507
494
513
508
502
504
523
540
534
528
529
528
518
503
502
517
504
498
509
512
490
502
499
505
509
507
501
503
526
529
530
525
507
504
480
494
503
500
493
504
516
520
528
522
510
491
497
509
505
501
492
492
502
505
503
504
512
504
510
512
512
513
513
507
502
511
516
529
528
522
526
515
495
495
499
499
509
513
513
525
515
514
506
499
492
479
496
508
513
511
513
528
518
506
506
495
495
507
515
512
514
517
516
517
514
508
491
491
499
512
517
519
512
508
521
530
519
507
496
493
510
507
511
498
503
501
487
491
495
500
516
514
523
532
540
533
504
499
489
487
481
479
497
488
497
507
515
526
524
536
533
526
529
529
523
504
508
520
529
513
497
466
483
492
490
489
492
513
513
510
513
519
522
527
524
528
517
502
512
499
495
508
502
488
480
506
548
523
504
519
526
515
508
500
496
490
510
501
509
502
499
499
514
530
539
533
523
529
515
492
493
479
481
489
505
505
494
493
503
512
509
480
494
519
521
524
540
534
534
532
529
524
524
520
498
480
459
469
474
468
490
492
507
523
526
526
523
526
523
529
536
524
509
506
514
501
493
503
511
504
507
506
510
515
510
526
526
524
518
518
519
508
507
503
499
496
487
487
480
462
456
466
486
495
505
533
524
516
523
524
528
525
521
529
522
511
507
508
508
509
511
512
523
523
514
502
507
512
512
523
512
504
509
503
500
519
515
506
485
487
498
508
512
517
513
514
505
507
515
508
530
511
507
505
509
516
516
508
502
496
490
503
513
529
531
534
519
491
481
482
496
491
495
502
502
498
505
490
488
506
511
508
535
533
513
532
543
542
514
502
497
484
473
468
504
518
522
527
511
504
518
516
500
504
524
506
501
514
521
517
524
515
515
518
510
510
503
499
507
503
495
511
511
516
515
514
507
506
492
492
498
500
500
504
512
518
514
508
514
504
493
497
508
510
506
512
520
502
510
515
515
511
513
516
517
518
527
521
506
481
493
501
494
504
520
543
520
495
508
517
508
494
511
510
528
524
491
496
481
481
492
507
529
522
505
505
513
515
503
507
524
526
515
514
514
500
494
504
507
507
504
504
512
519
506
499
495
486
496
509
515
517
511
505
497
503
513
520
511
512
517
510
509
515
521
519
519
522
526
521
508
507
505
490
500
494
499
501
495
506
530
507
510
517
502
497
506
532
502
511
523
518
505
490
479
489
504
513
521
543
515
496
510
502
497
487
495
519
523
517
502
494
499
502
512
511
506
511
518
508
512
512
513
506
502
523
515
504
500
505
507
514
522
524
515
519
524
513
507
508
503
496
503
516
507
497
494
503
499
497
491
496
512
507
504
496
507
520
524
520
524
528
521
516
523
519
516
517
498
505
505
487
484
495
499
526
513
525
522
517
516
512
496
478
483
508
507
506
488
487
508
515
516
528
523
502
512
516
511
515
503
510
504
515
521
510
507
512
507
493
497
500
503
510
503
512
501
512
507
504
515
519
517
512
508
514
515
514
506
499
507
505
511
511
515
514
524
530
507
496
507
514
500
485
501
518
521
515
519
502
513
529
527
513
503
510
473
478
474
511
535
526
504
499
490
478
473
504
512
524
539
526
530
517
511
513
511
494
490
491
497
497
493
499
496
511
522
530
531
520
510
499
504
495
499
508
506
514
519
510
499
502
516
525
512
519
526
525
514
520
516
502
493
501
512
519
510
504
503
505
501
502
508
509
513
514
510
511
513
508
500
510
507
508
503
501
510
517
520
513
512
505
500
495
509
509
512
519
505
515
474
453
463
494
518
551
539
494
494
511
505
513
524
511
516
509
504
523
523
521
516
512
515
494
494
516
517
512
511
507
505
506
507
514
521
512
506
499
502
506
504
507
500
501
492
489
494
510
517
517
519
516
524
525
515
513
518
516
505
511
514
510
514
494
490
493
493
506
511
510
509
504
511
511
524
525
518
517
508
504
481
492
491
504
500
502
499
514
525
523
537
531
518
526
519
504
489
488
477
483
506
506
516
514
510
530
522
510
497
498
504
508
505
493
508
519
522
524
533
524
508
500
501
510
505
497
495
502
492
493
499
511
529
534
521
503
498
513
514
509
506
509
517
504
505
508
483
486
505
518
510
509
512
519
516
504
499
518
520
519
516
500
499
496
500
501
484
510
543
518
519
531
544
525
514
527
500
490
491
478
488
495
510
491
502
492
505
523
527
515
515
516
511
511
504
506
503
506
517
522
511
519
515
507
509
502
498
504
490
487
505
504
506
513
518
523
515
517
527
525
514
519
507
498
488
486
494
484
487
506
518
515
520
522
519
516
520
518
517
514
505
519
517
515
507
501
492
491
499
510
512
508
511
512
527
529
503
492
489
481
486
506
511
514
517
518
508
495
504
512
518
510
511
519
523
512
515
523
530
534
522
503
476
485
489
494
503
503
500
496
499
494
500
513
514
516
526
526
524
518
511
503
512
512
508
508
505
510
510
512
513
510
504
495
500
509
513
506
509
517
516
508
508
514
515
511
518
511
505
511
505
498
502
505
491
486
500
511
513
514
519
519
517
513
516
515
512
510
517
523
499
488
496
482
502
493
495
515
504
515
520
517
514
516
513
512
511
512
513
500
504
503
509
512
512
511
512
508
507
504
518
522
518
511
493
503
507
512
516
492
490
506
503
507
507
515
517
520
511
514
518
514
504
504
506
509
501
502
509
509
508
502
504
506
519
526
515
513
518
515
502
501
499
508
505
504
499
502
512
512
508
500
501
512
519
508
501
502
508
508
515
508
507
514
513
513
521
514
508
508
507
497
493
499
506
511
510
504
521
526
522
519
515
505
504
513
525
499
479
496
505
495
502
508
509
504
499
508
515
517
511
515
526
524
514
513
508
507
515
492
504
515
509
499
500
503
507
507
507
515
507
497
506
512
501
504
513
511
507
502
520
515
508
503
507
512
515
512
515
513
524
512
502
507
511
513
504
502
498
501
507
515
505
504
512
505
499
504
502
517
522
522
513
517
508
503
505
504
492
503
508
525
513
504
509
515
519
501
492
501
507
508
506
506
516
520
510
507
511
510
507
521
531
521
527
518
492
463
479
510
498
490
489
493
509
508
517
526
525
507
521
526
519
510
513
495
473
497
512
511
510
513
519
515
522
514
505
508
511
512
500
504
512
512
504
513
513
501
501
507
509
512
513
515
515
508
499
497
508
516
515
508
512
501
509
508
507
506
519
522
521
512
511
512
508
507
504
487
497
482
489
510
518
524
529
515
523
529
523
507
508
495
491
467
478
503
515
499
498
519
517
519
532
522
525
529
513
492
490
491
506
505
501
516
516
512
505
507
496
492
504
506
512
523
527
511
510
522
519
503
496
507
516
505
504
507
506
511
509
505
509
510
504
508
510
514
514
512
513
513
513
508
508
505
512
498
509
504
505
516
515
490
493
503
515
516
510
514
510
515
524
529
521
512
504
483
480
478
496
505
523
515
508
510
506
502
508
521
528
525
511
515
523
527
514
487
488
473
485
501
502
495
497
511
519
531
535
519
506
513
524
521
518
513
509
508
481
489
503
505
504
507
507
503
505
512
514
519
515
512
515
510
508
512
515
524
524
515
493
502
502
480
492
504
503
508
507
513
521
517
512
497
508
518
503
501
509
503
502
508
513
510
513
515
521
517
517
525
526
513
508
499
486
507
512
503
496
497
486
488
503
503
509
515
519
512
511
516
521
520
531
531
522
495
482
495
488
499
516
513
514
496
504
505
507
511
521
517
513
516
515
512
511
514
516
514
504
499
504
504
504
500
500
499
499
508
513
520
520
523
501
504
500
504
507
516
513
510
505
508
507
515
512
496
489
498
506
514
519
517
518
517
513
512
512
512
502
496
497
509
515
527
527
515
521
502
476
472
492
506
523
525
510
500
506
522
513
502
498
488
497
508
517
524
519
511
504
512
511
518
512
497
510
525
522
521
501
481
495
501
502
502
505
515
510
513
518
517
520
526
520
510
508
498
491
492
497
509
492
496
502
502
506
518
510
521
530
529
521
513
515
511
499
511
519
507
487
487
496
500
516
506
512
508
504
515
503
509
510
509
511
514
527
518
509
503
504
499
498
508
507
512
507
502
510
522
514
511
519
514
496
494
503
503
510
502
504
514
521
515
514
523
504
489
488
505
505
505
514
516
519
514
515
511
512
511
504
499
512
516
523
523
506
476
478
495
519
511
508
514
522
511
509
508
508
505
511
514
516
510
505
500
506
507
514
510
512
501
511
510
511
513
512
518
512
500
505
509
509
502
489
490
507
511
516
523
514
509
506
507
512
512
514
512
503
505
509
515
501
492
503
514
511
505
505
511
511
520
521
511
502
510
502
505
505
510
501
501
507
503
502
498
519
515
513
513
510
513
508
502
515
519
518
508
519
515
498
505
495
495
494
499
502
508
515
521
521
516
503
503
512
514
515
512
513
506
503
509
507
509
511
500
499
505
503
520
521
516
517
508
507
513
514
503
497
514
515
517
500
496
501
507
521
516
497
490
493
507
510
506
488
513
521
534
517
506
515
519
519
513
517
515
499
493
483
483
490
502
518
527
529
513
498
504
507
509
511
507
519
502
493
501
507
509
513
516
513
512
516
523
519
511
508
502
507
505
504
510
508
504
501
508
516
505
507
516
511
504
510
512
520
513
504
498
496
493
499
504
509
522
525
524
512
513
516
505
488
500
510
507
508
524
527
516
508
502
498
486
492
515
517
503
495
509
509
518
535
536
537
523
502
489
492
487
492
487
480
484
502
510
513
518
523
522
522
515
509
509
513
513
507
515
521
519
513
507
494
492
489
496
515
520
513
513
513
522
519
508
501
499
507
518
509
499
502
503
504
508
507
503
513
510
512
508
512
520
513
510
511
512
523
511
512
508
500
481
483
497
513
506
506
507
515
520
531
517
512
518
501
486
500
508
508
508
508
506
504
509
511
513
514
511
520
519
524
513
495
495
501
500
505
509
513
509
508
511
515
501
506
516
501
494
499
503
515
530
531
529
527
504
483
491
502
495
496
496
508
513
510
498
510
501
503
515
525
527
519
521
515
513
508
504
510
513
502
509
497
501
507
503
494
516
521
516
514
510
507
520
510
504
502
511
512
500
498
511
525
504
492
480
483
505
515
512
509
515
519
531
523
522
525
510
506
507
493
492
507
511
498
500
505
515
502
500
507
510
506
500
508
513
514
520
518
522
521
514
504
506
492
502
506
500
507
510
521
518
503
514
527
518
519
507
504
508
501
486
493
504
487
490
498
506
510
514
525
530
513
518
518
522
516
512
520
529
508
506
493
489
476
480
496
503
512
512
516
516
521
518
513
513
519
517
503
503
502
503
506
513
522
529
516
505
498
481
482
507
510
497
498
503
512
526
528
519
508
514
502
500
500
508
512
510
507
509
512
518
509
507
509
501
505
513
511
514
513
506
507
511
499
493
492
521
534
543
544
520
495
488
477
465
479
492
515
516
512
516
531
523
506
505
497
498
502
510
518
515
513
513
506
512
515
521
519
521
518
521
507
497
491
489
499
513
491
487
515
509
511
510
518
521
517
518
512
509
509
508
507
509
507
510
506
501
512
531
512
502
504
509
507
496
503
496
503
513
518
521
505
493
506
496
518
500
504
497
508
525
517
507
508
501
511
525
533
515
501
500
497
511
504
493
503
503
493
500
524
510
514
531
523
518
506
504
512
519
487
484
496
505
510
523
512
503
500
509
528
518
511
516
519
518
520
511
511
505
496
481
480
495
506
507
511
506
513
519
524
527
526
523
506
492
487
497
511
510
512
504
501
494
504
507
515
507
512
517
516
519
523
519
499
496
508
530
539
540
525
512
474
475
472
477
487
494
495
498
508
530
531
524
510
507
516
521
519
512
524
508
487
492
505
505
509
517
510
499
507
518
519
517
518
511
518
517
497
507
503
504
497
510
514
510
513
509
507
484
491
497
514
525
524
515
512
498
492
495
507
511
519
515
509
507
505
504
504
512
518
523
520
514
512
515
519
509
511
496
490
488
489
502
507
519
520
511
507
501
499
501
510
521
526
526
507
473
491
525
520
503
508
512
510
505
503
507
510
519
523
521
516
510
504
503
507
505
500
509
516
510
511
519
526
515
489
483
488
492
497
509
520
519
516
514
516
519
512
512
512
516
504
492
489
510
515
507
512
507
504
512
509
515
511
512
520
522
518
508
502
504
510
499
492
497
519
501
490
504
521
513
501
505
515
526
517
516
505
495
492
494
492
503
506
510
511
512
512
511
517
526
511
516
517
524
511
498
496
505
508
517
531
532
505
499
496
501
503
502
497
479
476
502
519
508
519
519
510
510
515
512
507
510
510
508
508
511
508
513
515
519
516
510
515
516
513
509
518
509
504
512
515
507
497
497
487
480
499
507
508
506
511
517
513
509
512
511
512
511
508
514
510
511
505
503
509
512
509
510
509
511
513
514
507
508
515
511
505
505
504
506
507
504
503
505
505
507
510
512
512
517
513
510
506
503
516
506
508
529
531
511
512
507
507
515
497
482
482
490
503
513
514
511
507
514
513
504
508
505
506
513
509
508
505
510
513
508
507
513
512
513
517
516
514
515
509
511
507
508
505
503
487
487
496
507
504
510
515
515
514
518
515
517
515
513
515
509
505
507
505
505
505
507
509
510
507
508
510
518
521
521
526
510
503
505
504
480
512
521
511
496
502
489
486
498
504
496
513
515
518
519
522
512
514
511
515
511
511
508
508
504
499
499
500
504
505
507
514
510
513
515
514
517
518
517
515
514
512
507
504
506
501
503
503
506
504
507
513
512
512
513
506
495
514
515
513
507
499
488
484
500
508
507
509
511
511
511
513
512
512
516
515
519
518
515
514
506
507
508
504
505
501
508
506
505
507
507
510
519
523
524
522
526
515
483
485
493
504
505
500
507
508
508
499
498
502
509
511
514
514
518
516
520
516
515
515
503
501
506
509
508
504
501
501
502
508
507
512
518
532
544
552
548
524
501
486
451
438
463
475
495
513
519
504
497
515
516
519
520
519
518
517
515
515
517
522
516
519
512
508
508
508
511
509
503
503
504
508
507
508
511
512
506
507
515
513
509
509
504
499
500
500
502
510
513
514
510
511
511
510
508
505
506
508
504
508
517
521
518
516
515
513
513
507
509
504
506
506
510
496
501
510
501
499
498
503
501
502
503
507
512
520
524
525
524
522
517
511
507
506
505
504
508
506
502
504
502
502
502
504
506
508
510
504
506
502
501
496
496
503
511
505
503
503
506
508
510
512
516
513
515
513
513
505
508
510
511
505
504
505
506
509
510
507
505
509
507
504
507
512
512
511
509
510
507
510
511
507
506
507
505
501
502
504
503
502
499
502
504
510
512
513
515
515
519
521
519
516
517
516
512
508
506
510
515
517
512
509
511
499
494
503
503
504
495
484
493
511
517
518
519
517
516
518
514
512
511
510
512
516
531
536
527
519
519
510
473
468
470
476
491
496
509
515
519
514
513
516
511
510
512
510
511
512
516
518
515
516
515
515
518
513
513
515
512
510
510
510
508
507
505
505
501
501
502
502
503
505
508
509
511
507
511
510
510
511
512
508
505
504
505
503
504
503
508
507
508
510
514
518
518
515
514
513
511
514
510
511
510
509
507
505
508
507
506
505
507
509
513
511
512
510
511
510
512
511
509
509
505
503
502
495
497
494
499
504
506
508
508
512
512
512
514
513
513
509
503
503
506
508
510
510
507
504
505
506
504
509
511
510
513
513
511
511
511
510
508
507
505
504
504
505
507
504
503
506
507
510
510
512
514
511
511
510
511
514
510
508
504
505
509
511
511
507
509
507
507
509
508
510
515
509
511
513
515
513
508
507
503
502
506
503
503
506
504
507
506
509
510
514
514
515
513
515
511
510
509
507
505
507
510
505
504
505
506
505
507
510
510
512
512
510
511
511
512
511
508
508
505
504
506
506
504
504
506
508
506
511
512
512
512
512
515
515
512
513
510
509
507
505
508
506
504
500
505
507
509
509
511
511
512
512
513
513
514
514
512
510
507
501
501
499
501
503
501
503
505
507
509
510
514
512
513
513
510
511
508
506
505
505
509
505
505
504
507
510
511
507
512
509
510
509
511
512
510
510
509
507
506
507
505
504
505
507
507
508
510
511
512
513
515
514
515
513
511
510
507
507
504
504
505
506
508
508
508
509
508
510
510
510
513
512
511
513
510
511
509
506
506
505
504
503
503
504
504
507
508
509
510
515
515
512
514
514
513
512
508
506
505
507
503
502
503
506
502
508
509
510
511
511
514
512
513
513
514
512
509
508
505
504
505
504
504
503
504
504
508
509
513
512
514
512
513
511
511
510
507
505
505
507
505
504
506
504
504
506
506
508
512
513
515
512
515
514
512
513
509
508
508
504
504
504
504
502
504
508
508
510
512
513
513
512
512
513
510
511
508
507
507
504
507
501
504
503
505
505
505
509
509
510
513
514
513
513
512
515
510
507
505
505
504
504
504
505
504
505
507
510
511
512
513
515
513
513
512
511
508
506
507
508
508
504
507
503
505
506
507
508
509
511
511
512
511
513
512
512
511
508
507
505
507
503
504
506
504
508
508
510
512
514
513
511
513
512
513
511
511
509
507
506
504
504
504
504
503
507
507
512
510
511
513
509
512
512
511
511
509
509
506
504
507
503
504
504
506
507
506
509
512
511
513
512
512
513
511
515
509
508
505
505
505
503
504
504
504
504
507
508
510
512
512
513
513
512
511
511
509
510
509
506
508
505
505
504
504
505
509
510
511
512
515
511
513
513
511
512
508
509
506
505
504
504
505
505
505
505
506
511
511
512
513
513
512
515
512
511
507
507
508
505
504
503
504
503
506
507
506
509
510
513
515
512
513
511
512
512
510
505
505
506
504
504
506
503
506
507
510
509
511
512
513
512
512
512
511
510
508
508
507
508
504
503
505
505
505
508
507
508
510
511
513
511
511
514
511
512
510
507
507
505
505
505
504
504
505
507
509
512
512
512
512
512
512
511
511
510
511
508
507
505
504
503
503
503
505
505
507
508
511
512
513
512
512
513
513
511
506
505
507
505
507
505
504
504
503
505
508
508
510
511
515
511
515
515
513
512
508
509
508
508
506
502
506
504
506
507
505
511
510
511
511
513
513
510
510
513
509
508
505
504
504
504
505
504
506
508
507
510
509
512
513
510
512
512
514
514
510
508
507
505
508
503
505
503
504
504
508
508
510
513
514
514
514
513
512
512
508
509
507
506
506
504
504
504
503
507
507
511
510
511
512
512
511
513
513
511
510
510
507
505
505
504
504
505
503
507
509
507
509
511
513
514
514
513
512
513
508
508
508
505
505
505
504
504
505
508
508
508
511
511
513
512
511
514
513
511
509
504
504
506
507
504
504
504
506
508
508
508
511
510
513
513
514
512
513
512
510
507
504
504
504
503
504
503
503
506
509
510
511
511
513
513
514
513
511
513
509
510
505
505
505
505
505
504
505
507
508
509
511
512
511
512
514
514
510
512
509
508
508
504
505
505
503
502
506
505
509
510
512
511
513
513
513
512
509
511
510
506
508
504
505
505
502
503
505
507
509
511
510
512
513
512
513
513
512
511
507
508
507
505
503
503
504
504
505
507
506
510
513
515
515
512
513
511
511
513
509
506
505
504
505
504
504
504
504
507
508
509
511
512
513
512
515
512
510
511
508
506
506
504
504
506
506
506
505
504
508
510
511
512
512
512
513
515
514
513
508
508
507
505
507
503
504
502
504
507
507
510
509
512
515
512
514
512
510
509
507
504
504
508
508
504
505
505
504
504
507
511
510
512
515
513
512
511
512
512
507
507
506
507
504
503
504
504
506
507
509
511
512
513
513
513
512
512
510
510
510
509
505
504
504
507
504
504
508
507
508
510
511
513
514
512
513
512
514
512
508
508
507
504
504
502
504
504
505
504
508
510
510
512
513
513
514
513
511
510
509
508
504
504
504
505
504
502
504
505
508
509
511
513
513
513
512
512
512
512
509
508
506
505
505
503
505
504
504
506
507
510
511
513
512
512
512
512
511
510
507
507
505
506
503
504
506
504
504
507
508
509
512
512
512
511
514
512
511
509
508
509
507
504
507
502
505
504
504
505
508
509
511
513
514
513
511
512
511
511
510
509
509
504
504
501
505
504
503
506
507
511
512
513
512
511
514
514
513
511
508
506
505
504
504
503
505
504
504
509
507
511
512
513
513
512
511
510
510
509
508
507
506
505
505
505
505
506
505
506
508
509
512
511
515
515
513
512
511
509
508
508
505
505
505
504
505
504
506
508
506
509
512
512
512
512
512
513
513
511
507
510
507
504
503
504
505
506
504
505
508
511
510
511
513
512
513
513
512
511
508
508
506
505
504
505
505
505
504
506
507
511
512
511
515
513
515
512
515
511
508
506
503
504
504
500
501
504
507
508
509
511
512
513
512
511
513
514
513
510
507
508
506
504
502
504
506
503
503
507
509
510
513
512
515
510
514
510
511
511
511
508
508
505
504
504
504
505
506
506
507
509
511
512
513
512
514
514
511
510
508
507
503
505
504
504
505
501
506
509
505
511
510
512
512
513
514
513
512
510
509
509
505
506
506
503
504
505
506
509
508
508
512
512
512
513
514
513
511
511
509
507
503
505
505
504
504
507
505
507
510
512
511
513
510
513
513
512
511
511
509
506
505
505
505
502
504
503
506
508
507
510
511
513
513
512
513
512
511
511
508
507
505
506
506
505
506
501
504
507
508
511
511
512
512
511
512
513
512
511
508
507
505
503
505
504
504
504
502
504
509
510
512
515
512
511
513
510
510
511
510
508
505
505
505
504
505
502
502
504
507
510
512
511
513
513
512
514
511
512
508
507
506
505
505
505
504
505
505
507
506
509
509
512
514
511
514
513
513
511
511
508
506
505
507
500
504
504
504
508
508
510
511
512
513
512
513
512
511
511
508
505
505
504
505
504
503
504
503
508
509
511
513
512
512
513
513
513
512
512
508
507
503
505
504
503
504
504
506
506
508
510
511
514
516
512
512
513
509
510
505
507
503
504
506
506
504
504
506
507
508
509
511
512
514
513
514
511
512
510
508
507
505
504
505
504
504
503
507
508
507
508
511
512
511
514
513
513
511
510
510
510
504
503
505
503
503
504
504
508
509
511
512
512
512
511
513
510
513
511
508
507
507
505
505
505
503
503
505
507
508
509
511
512
512
513
512
513
512
512
508
508
506
504
505
504
506
504
504
508
506
512
511
510
512
513
512
512
512
512
508
508
506
502
505
504
504
504
507
506
509
509
511
511
512
512
514
515
512
510
507
506
505
505
506
504
504
505
505
506
510
512
511
511
513
513
512
512
512
510
509
509
508
506
503
503
504
504
504
507
507
511
514
515
513
513
515
515
513
510
508
506
504
505
504
501
503
504
507
508
509
511
511
512
511
514
512
513
511
510
509
507
505
505
506
504
504
503
505
505
510
510
512
511
515
512
513
513
511
510
510
508
506
504
505
504
504
503
505
506
508
510
513
513
515
515
514
513
509
509
509
508
508
504
507
503
504
504
505
507
510
507
509
512
513
513
512
512
511
512
510
508
505
507
505
503
504
505
505
508
508
510
512
514
512
511
514
510
511
510
507
507
504
504
504
504
503
503
505
505
510
511
511
512
513
514
514
514
512
509
508
508
506
505
504
504
503
502
504
507
507
512
512
513
513
513
511
509
509
511
508
508
506
506
507
504
504
506
504
506
510
511
512
513
515
512
510
512
512
512
508
506
505
504
506
505
505
504
505
505
508
508
514
516
515
512
512
513
510
510
508
508
506
504
504
503
504
503
507
508
509
510
511
511
513
511
512
509
513
510
509
508
505
508
504
505
503
504
504
505
505
512
510
512
511
513
514
512
511
510
508
508
508
507
504
503
505
504
507
506
509
509
513
513
514
514
515
513
511
510
508
506
505
504
507
503
504
506
505
505
507
509
511
512
512
512
513
512
509
510
508
508
504
505
505
504
504
503
504
508
510
510
512
512
512
515
513
515
512
509
508
508
507
506
506
504
504
501
504
505
508
512
512
513
512
511
514
512
512
511
508
509
505
507
505
505
502
504
504
507
508
511
512
513
514
513
514
512
511
511
508
506
505
505
505
504
504
503
505
506
510
512
511
512
514
512
513
511
511
510
510
508
504
505
505
504
503
504
504
504
507
510
511
512
514
513
513
512
512
510
510
508
505
502
502
503
503
504
505
507
508
510
511
511
513
512
512
512
514
511
508
507
506
505
504
502
504
504
504
507
508
513
511
512
514
513
512
511
512
510
509
505
505
504
505
504
503
502
507
507
511
511
512
511
513
512
512
511
511
511
509
507
505
504
503
505
505
505
504
508
510
510
510
512
511
512
512
513
511
509
507
503
504
506
506
504
504
505
507
509
507
511
513
513
514
513
512
510
510
511
506
506
504
503
506
505
504
505
503
507
508
511
512
512
513
512
514
513
511
512
508
508
504
504
505
506
506
504
506
506
508
510
512
511
514
511
512
511
511
512
508
508
507
506
505
505
503
503
504
509
509
510
510
512
515
513
511
511
511
509
508
508
506
504
505
505
503
505
508
506
510
512
512
514
513
512
515
512
509
509
507
507
504
506
505
503
503
504
504
505
508
508
512
511
512
514
515
511
512
510
508
506
508
507
507
504
505
503
504
508
507
510
512
512
515
513
514
512
510
512
507
506
504
505
504
504
507
504
504
507
509
510
511
512
513
512
513
511
511
511
510
508
505
504
505
503
504
504
504
507
508
511
512
513
512
514
516
512
511
508
506
508
507
503
504
505
505
503
503
510
509
510
512
512
514
513
510
512
512
509
505
506
503
505
504
504
503
504
505
506
508
512
512
515
514
515
516
513
511
511
508
505
504
502
505
504
505
503
505
509
509
511
511
510
512
515
513
510
511
509
508
506
504
505
505
502
503
504
505
509
510
511
510
514
515
514
515
513
511
511
510
507
504
505
504
504
505
503
507
506
508
510
511
513
513
510
514
512
512
511
506
504
505
504
503
501
504
505
508
508
507
509
513
513
514
513
514
511
513
511
510
508
505
505
505
504
505
504
504
505
509
511
510
512
513
513
513
513
512
511
509
508
505
504
505
505
504
503
507
505
509
510
511
513
510
514
516
513
511
510
505
507
505
505
504
504
504
504
504
508
508
511
512
512
513
511
511
513
511
510
508
509
505
504
505
504
503
505
506
508
506
509
511
515
513
513
513
513
512
512
509
506
504
505
507
504
506
504
505
507
508
511
511
514
515
510
512
512
513
509
506
505
507
504
505
505
504
504
504
508
509
508
512
512
515
513
515
512
512
510
509
508
506
506
505
504
505
503
504
507
507
511
512
512
515
512
514
511
511
509
508
505
506
506
503
502
504
505
506
507
509
510
514
513
515
511
511
510
512
511
508
508
506
503
503
504
505
504
504
508
507
511
512
513
514
513
513
512
511
509
508
507
507
505
504
501
500
502
504
509
509
510
512
514
514
511
515
511
511
511
509
507
507
505
507
506
501
504
504
508
510
511
512
512
513
512
513
513
512
511
508
507
504
505
503
504
506
504
504
511
510
511
512
510
514
512
514
514
511
508
507
507
503
504
503
506
505
505
505
508
508
512
512
512
513
514
513
511
513
509
506
506
505
505
506
504
506
505
507
507
508
509
511
513
511
512
514
514
512
510
508
509
504
504
503
505
503
506
504
506
510
512
511
512
514
513
512
511
513
509
507
504
504
504
504
503
503
505
505
507
508
510
511
511
512
510
514
513
510
509
507
506
505
505
505
505
506
504
507
507
509
512
512
514
515
511
513
513
511
509
506
507
505
503
503
504
504
504
506
509
507
512
512
511
513
513
513
514
512
509
510
507
506
504
505
504
502
504
505
506
507
509
513
514
513
515
515
511
513
509
506
505
503
504
504
504
504
506
507
511
508
511
512
511
513
511
513
512
512
509
508
505
505
503
505
504
505
506
507
507
508
507
512
512
513
512
515
513
511
509
506
507
506
505
505
502
504
505
504
510
509
508
512
512
514
514
513
511
511
510
505
507
505
503
504
505
505
504
508
508
509
508
512
511
512
512
513
511
512
511
508
506
506
504
507
504
504
504
507
510
511
508
513
514
514
509
514
511
510
512
508
506
505
506
504
505
503
503
505
508
509
508
513
512
512
512
513
514
512
510
510
509
504
506
502
504
505
504
505
506
508
510
513
512
512
512
512
513
513
509
508
505
504
504
507
504
504
505
505
507
508
512
513
511
511
513
513
513
512
511
508
507
506
505
504
505
504
504
505
509
508
510
512
512
513
511
514
511
512
509
510
507
505
507
504
503
502
504
507
508
509
510
512
511
514
513
515
512
511
508
505
506
503
503
505
505
502
503
505
508
509
510
512
512
513
511
514
512
511
509
506
506
504
504
504
504
504
504
508
508
508
511
514
512
513
511
515
512
510
510
508
504
507
504
503
503
503
505
505
506
508
511
511
512
513
513
514
513
512
510
506
506
507
506
506
505
501
505
504
507
509
511
513
513
513
512
513
512
511
509
507
505
506
507
507
504
503
505
505
506
507
512
511
514
512
514
513
512
511
509
508
508
504
505
505
502
505
505
507
508
508
510
512
512
515
512
512
512
509
510
507
507
505
505
504
504
502
507
507
508
510
511
511
510
514
512
512
513
512
509
509
506
504
503
504
504
504
504
505
508
510
511
512
511
514
512
512
512
513
509
507
507
504
504
505
502
504
506
508
507
510
511
512
514
513
513
515
512
510
508
507
505
503
504
504
504
503
504
506
507
510
510
513
513
512
513
515
513
511
513
508
506
504
503
504
503
503
505
506
508
509
511
514
515
515
512
511
511
512
508
507
507
506
504
504
504
505
503
507
509
509
513
514
512
513
515
512
510
513
510
507
504
502
506
504
504
506
505
507
510
511
511
511
516
512
512
513
511
512
509
508
505
503
505
505
504
505
504
505
507
508
510
511
511
513
513
512
512
509
509
509
505
504
505
504
505
506
504
505
509
509
512
514
512
511
514
511
510
510
510
507
504
503
504
503
505
505
506
507
510
508
510
511
512
513
513
512
512
511
509
508
507
505
505
506
506
503
505
507
508
508
511
512
514
513
515
512
510
511
511
508
506
506
503
504
503
504
504
507
510
510
512
514
511
511
514
512
513
512
507
506
508
504
503
505
503
504
506
507
507
511
511
511
512
511
513
512
512
513
509
507
505
505
504
505
505
505
506
506
505
509
512
514
515
512
513
514
513
511
508
506
508
506
505
504
506
505
506
505
508
508
512
511
513
513
511
510
512
510
510
507
508
504
504
504
503
503
505
508
509
510
510
511
513
512
513
514
512
511
508
508
507
506
507
504
505
502
504
508
507
509
515
513
511
512
512
512
510
510
509
507
505
504
504
505
504
504
504
508
508
507
511
513
512
513
512
514
512
512
508
507
504
504
505
503
503
503
507
506
508
511
512
513
512
512
514
514
510
509
510
509
506
504
503
505
501
504
505
505
507
508
510
512
511
515
512
514
514
511
509
508
508
504
503
503
503
504
507
506
508
509
512
515
515
513
512
512
510
510
509
508
505
504
503
504
502
505
504
509
508
510
512
514
512
511
512
512
512
511
509
507
507
506
504
505
504
504
504
505
510
509
512
513
512
512
514
514
511
508
508
508
506
506
505
505
504
504
505
504
507
510
511
511
511
513
513
512
512
511
510
508
505
502
504
502
504
503
506
506
508
512
512
514
513
512
514
515
514
510
508
507
506
503
506
504
505
505
504
506
508
508
510
512
514
513
513
512
510
508
511
507
507
505
506
505
503
505
506
507
508
508
511
512
512
512
513
514
514
508
508
505
505
504
505
502
503
504
504
507
509
509
512
512
512
513
511
513
514
513
508
507
506
507
508
504
503
506
506
509
508
510
510
512
514
510
512
512
511
509
509
507
503
506
506
506
503
504
505
504
509
509
510
511
515
512
515
513
512
510
510
508
507
504
506
505
503
503
502
506
508
508
513
514
513
514
512
513
511
511
508
503
507
505
508
503
503
504
507
508
508
510
510
511
513
513
514
512
510
511
511
508
509
504
505
505
504
503
504
506
509
507
508
511
513
512
513
513
512
513
511
507
508
503
503
504
504
506
506
506
512
509
512
511
511
513
512
513
511
511
507
505
502
503
503
505
504
506
505
505
508
510
512
512
514
514
513
515
512
510
506
507
505
507
505
505
505
505
503
507
508
510
512
514
512
515
513
512
511
509
508
508
507
505
504
504
503
502
504
508
508
511
511
511
513
512
513
514
511
510
509
508
506
507
504
504
502
504
503
504
509
508
512
512
516
512
513
513
511
511
510
508
506
505
507
505
505
504
505
507
509
508
512
512
512
513
512
511
511
510
511
507
507
505
507
506
504
502
504
507
509
510
512
513
514
514
513
515
512
510
508
507
505
504
503
505
505
505
505
509
510
508
512
511
513
514
512
511
512
510
510
508
508
504
503
505
504
505
504
507
509
511
512
512
512
515
516
513
512
510
510
507
507
505
503
503
502
504
506
506
510
507
511
512
514
513
512
513
512
509
510
506
505
506
504
506
504
505
504
507
507
510
512
513
512
512
513
512
511
510
509
504
504
505
506
506
504
504
505
508
507
508
511
511
510
512
512
513
511
512
511
509
507
505
504
504
504
503
505
506
508
510
510
511
511
511
513
514
512
509
507
505
505
504
505
505
504
505
507
508
509
510
511
512
514
512
513
513
510
509
511
509
507
503
504
502
503
505
505
505
509
511
512
512
514
511
512
513
513
510
508
509
507
505
505
504
504
504
506
507
508
510
513
512
512
514
514
513
512
508
508
506
506
503
503
504
504
504
506
507
507
511
512
514
514
512
512
512
512
510
510
505
506
504
507
505
502
504
504
507
507
511
511
513
511
510
514
514
512
511
508
507
504
504
504
503
504
505
506
507
507
511
511
512
511
512
512
512
510
512
509
510
507
505
505
504
503
506
504
506
506
509
511
512
512
512
514
513
511
508
510
507
506
505
505
507
502
506
504
508
511
511
509
513
513
512
513
513
512
510
508
505
504
507
503
504
505
505
507
508
508
507
513
512
513
513
512
511
510
509
509
508
505
507
505
505
504
507
506
508
508
510
508
513
512
514
512
512
511
511
507
507
505
504
506
504
503
506
505
507
510
510
511
511
514
514
515
512
511
509
508
506
503
504
505
505
504
505
503
506
508
507
512
513
513
513
515
511
511
511
508
509
506
505
505
504
504
507
506
509
508
509
511
513
512
512
513
512
512
513
507
506
507
505
504
504
504
504
507
505
509
512
511
513
512
515
514
512
512
508
506
506
510
506
506
503
503
504
504
510
508
510
510
509
513
513
515
513
509
511
509
508
508
503
505
504
505
507
506
507
507
508
512
512
512
511
513
512
511
510
508
505
504
504
506
504
504
505
505
507
509
511
512
513
514
512
514
511
512
509
507
508
505
504
504
504
507
504
506
507
508
511
512
512
512
513
514
511
511
511
508
504
504
504
504
505
504
504
505
507
510
512
510
511
514
512
512
512
512
511
510
506
504
504
504
504
507
506
507
508
507
511
513
513
513
514
513
513
512
508
508
507
505
505
504
504
503
506
504
509
509
511
513
511
510
513
513
511
512
508
508
508
506
504
505
504
504
505
505
506
510
511
510
512
510
513
512
511
513
510
508
508
507
505
505
505
505
506
504
507
510
509
509
511
511
514
512
514
512
510
509
507
504
503
503
504
505
504
505
507
508
510
512
511
513
513
513
512
511
511
508
505
505
504
504
506
503
504
504
507
510
511
512
512
512
512
514
512
510
512
509
506
504
504
505
504
504
503
506
507
510
510
513
514
515
515
513
512
510
509
509
506
505
504
505
505
504
505
504
508
509
509
509
510
513
512
513
514
511
510
507
506
504
503
505
507
504
504
505
508
509
509
512
512
513
512
513
511
511
510
509
508
505
505
503
503
504
505
504
509
508
509
512
513
511
513
515
513
508
512
511
504
504
503
505
505
504
504
506
507
509
512
513
513
511
514
512
511
511
509
509
506
504
502
504
504
506
504
504
508
508
511
513
513
513
513
513
513
512
509
507
508
505
505
506
504
502
502
507
508
511
512
511
512
513
513
511
512
510
511
506
508
506
505
504
503
504
505
505
508
510
511
512
512
512
513
513
512
512
510
510
505
504
504
504
505
503
507
504
507
508
510
511
511
512
513
512
512
511
509
509
508
505
504
505
504
504
505
504
510
510
511
511
514
511
512
513
511
510
508
508
506
504
504
507
504
504
506
506
509
510
511
511
513
511
513
513
512
511
511
508
506
504
502
504
503
504
505
505
508
509
508
512
512
513
512
514
513
512
511
509
508
504
506
502
503
503
505
505
506
510
510
510
512
512
512
512
513
510
513
511
506
505
504
504
503
504
503
505
505
508
510
511
513
514
513
512
512
509
509
506
507
504
507
504
505
505
505
506
507
509
511
513
513
514
513
512
512
511
509
507
505
507
502
504
504
506
504
505
507
509
509
512
513
513
513
514
512
510
509
511
507
507
503
507
505
505
504
505
507
508
509
512
512
515
513
513
511
511
510
510
504
506
506
505
504
505
504
505
508
508
511
513
513
513
512
515
512
510
508
508
506
505
504
505
506
502
504
505
508
508
511
511
513
511
515
515
511
511
510
509
508
505
504
505
503
503
503
505
506
510
511
511
512
512
514
513
511
512
508
508
506
505
505
504
503
503
505
506
508
510
511
513
512
511
514
511
510
511
509
509
505
505
504
503
505
505
505
506
509
511
510
512
508
513
514
515
513
511
509
508
505
505
505
505
505
504
505
504
507
511
513
514
513
512
513
512
511
511
509
507
505
503
503
504
504
502
504
505
506
509
510
512
512
513
514
512
513
512
509
507
507
505
504
503
505
504
508
504
507
511
509
513
511
513
513
512
512
511
507
508
507
507
504
504
503
503
504
506
508
510
511
513
512
514
512
512
512
511
512
507
507
504
506
504
504
504
506
507
509
510
511
512
513
514
513
514
511
513
508
508
507
504
505
504
504
503
503
504
509
508
507
512
511
513
511
514
513
509
509
508
507
505
506
504
504
502
506
505
508
511
510
513
514
511
512
512
512
511
508
507
507
504
504
505
504
504
506
504
507
508
512
512
511
512
513
514
513
512
512
508
506
503
505
503
505
503
504
505
505
508
510
513
512
516
514
515
510
509
510
508
507
504
506
506
504
503
503
505
508
509
510
511
512
514
511
515
512
511
509
507
504
504
505
502
505
506
505
506
507
508
508
511
512
515
513
513
512
511
511
508
508
504
505
504
506
504
505
504
505
510
509
512
513
514
515
511
513
512
509
508
505
505
504
505
504
504
504
504
509
510
513
513
513
515
513
512
513
512
510
508
507
501
505
503
504
503
506
507
508
508
510
511
513
512
514
514
514
512
510
506
509
504
504
504
504
503
504
505
505
509
511
511
510
513
515
514
514
511
510
505
504
504
504
505
502
504
505
508
508
508
511
512
512
512
514
513
514
511
510
507
505
505
502
503
503
502
504
506
507
508
512
512
513
514
514
511
512
512
509
508
505
504
504
506
504
504
504
505
505
509
511
513
511
514
513
513
514
510
509
508
507
505
503
505
505
501
506
505
508
510
510
511
513
512
513
515
512
513
511
508
505
505
504
504
507
504
503
505
508
510
511
512
514
514
512
513
511
510
511
507
505
508
505
503
503
505
504
504
508
508
511
512
513
511
512
514
511
510
510
507
506
506
504
504
503
502
504
504
508
511
512
513
513
513
513
512
513
510
510
508
507
505
506
504
505
504
506
505
507
511
510
511
515
514
512
514
514
511
509
508
505
505
506
504
504
503
504
504
508
512
510
514
512
513
512
514
512
510
508
506
504
503
504
503
504
504
505
507
511
511
511
512
513
512
514
513
512
511
511
506
505
505
503
504
503
504
502
505
507
510
510
512
513
515
512
513
513
513
509
507
504
502
504
505
503
503
506
505
507
511
512
515
511
513
514
513
512
512
510
507
505
503
504
504
506
504
505
503
508
510
510
512
512
515
513
514
515
511
508
507
508
504
503
504
505
503
507
505
508
508
512
511
511
512
513
514
512
509
509
508
505
503
505
506
506
504
505
504
507
508
510
513
514
515
513
515
511
511
510
508
504
507
503
504
504
507
506
505
507
511
511
513
510
511
512
513
513
511
511
508
505
504
505
503
504
505
504
504
508
509
511
513
514
515
511
513
514
510
508
508
507
505
503
504
504
500
504
505
509
510
512
512
512
514
514
514
513
511
511
505
508
508
505
504
503
505
504
505
509
510
511
511
511
513
513
513
512
511
507
507
505
505
503
504
503
502
507
505
508
510
510
511
513
515
512
512
512
511
511
508
505
505
503
507
504
502
505
505
508
509
512
512
513
512
510
513
511
510
510
509
507
505
506
505
504
504
504
504
507
508
509
511
512
513
513
512
511
512
511
505
506
505
505
503
504
501
504
506
509
509
513
512
514
514
512
514
514
511
509
508
506
505
504
503
505
503
504
505
509
511
509
511
513
511
513
515
512
512
511
508
508
503
504
504
502
504
507
506
508
509
512
512
514
514
511
511
512
509
510
510
508
504
505
505
504
503
504
504
507
507
510
512
512
512
515
513
511
509
508
508
506
506
503
505
504
504
504
504
509
510
511
512
513
516
511
513
512
511
509
508
505
505
504
506
503
502
502
505
508
511
513
513
513
513
512
512
512
510
507
508
505
506
506
506
504
503
504
504
506
509
511
513
513
515
514
511
513
510
510
507
508
505
504
505
502
503
505
507
508
510
511
512
514
515
515
513
512
511
509
508
504
506
505
503
503
504
504
505
509
508
512
513
512
513
512
513
512
512
510
507
507
506
503
504
503
504
504
504
507
510
511
513
512
513
512
514
513
510
509
508
506
504
504
504
504
503
505
504
508
511
512
512
515
513
513
513
511
510
509
509
506
504
504
508
504
501
506
506
509
510
511
513
511
513
514
512
511
512
508
510
504
505
504
505
503
504
505
505
506
510
510
513
514
515
514
512
514
510
508
509
506
504
503
504
504
504
503
506
508
508
510
512
512
512
513
514
511
511
509
508
507
504
504
507
504
504
505
506
508
510
510
512
513
512
512
513
513
509
510
508
508
505
503
502
504
505
504
505
508
511
512
510
511
514
513
514
510
511
511
509
507
507
503
504
502
504
504
505
509
509
512
512
513
513
513
513
511
511
509
506
505
503
503
505
504
505
506
507
507
511
512
513
511
513
514
513
511
512
511
508
504
505
505
505
504
502
504
505
509
508
512
511
513
512
514
512
513
509
507
508
507
504
504
504
503
502
505
507
508
510
512
513
512
515
515
514
510
508
509
509
506
506
503
505
502
504
505
506
508
508
510
512
514
514
513
515
511
512
508
510
507
504
504
502
504
504
505
505
509
512
509
513
512
512
515
516
511
509
511
507
506
504
504
503
503
505
505
505
509
509
512
513
513
511
514
514
511
509
509
508
504
505
503
507
503
502
506
506
506
511
512
513
515
514
514
515
511
508
506
506
507
504
505
505
505
505
505
505
508
508
511
512
512
513
511
513
512
508
508
508
506
507
504
505
503
503
504
505
508
508
512
511
512
511
512
516
512
509
509
507
506
506
505
505
503
504
505
504
509
510
511
512
514
515
515
513
512
510
508
507
505
504
504
504
504
505
504
505
507
510
513
511
513
512
514
513
514
510
510
507
507
504
503
505
504
503
505
508
508
508
512
512
512
515
513
514
513
512
509
506
507
504
503
504
504
505
503
507
507
510
512
513
513
513
512
513
512
511
509
508
506
506
506
505
505
502
504
504
509
510
511
515
513
513
514
514
512
508
510
507
505
505
504
501
502
503
504
504
508
510
511
513
511
515
515
513
512
511
511
507
506
504
507
506
503
504
504
506
508
510
509
512
514
511
512
513
513
511
510
509
504
504
504
505
504
502
504
507
508
510
512
512
514
513
513
513
511
511
509
507
505
505
505
504
506
504
507
508
508
508
511
512
515
513
512
515
513
511
509
504
505
504
505
501
503
503
502
507
508
509
512
512
511
512
513
514
510
512
510
508
506
504
504
504
504
504
504
506
509
513
513
515
513
511
514
513
511
510
507
507
505
506
503
505
504
503
502
505
505
511
510
512
513
512
515
516
512
513
508
509
506
504
502
502
504
504
504
506
510
510
512
512
512
516
515
514
512
510
510
506
506
503
505
504
504
506
505
506
508
508
510
511
512
513
512
511
512
512
510
508
506
506
504
505
504
504
504
506
510
509
511
515
513
514
512
513
511
509
509
507
505
504
504
504
505
504
504
504
509
511
512
512
512
512
515
515
514
510
509
508
504
504
503
504
503
504
507
507
507
512
511
512
512
514
514
511
512
509
510
506
505
506
501
504
504
504
503
505
508
510
511
513
513
512
514
513
511
511
508
510
505
506
506
505
505
503
504
507
510
510
510
512
512
514
514
512
513
510
510
507
506
504
504
507
502
504
505
506
510
508
510
511
512
515
515
514
512
512
508
506
506
507
503
505
504
503
504
507
509
509
511
513
513
512
516
514
512
509
509
506
504
504
505
503
503
504
504
505
507
510
511
513
513
514
512
513
512
511
509
508
506
505
504
506
502
505
505
506
508
509
511
513
513
511
511
511
511
511
510
508
508
504
502
505
504
504
504
507
509
509
512
512
513
514
512
513
511
511
510
509
505
503
506
504
504
504
506
505
508
509
510
512
512
513
513
514
510
508
511
508
507
504
504
505
505
505
505
507
510
511
511
513
513
513
512
513
510
509
509
509
506
504
503
502
504
502
504
507
509
509
510
513
513
514
513
513
511
509
509
507
509
504
505
506
504
504
504
504
508
508
513
513
512
511
514
512
511
511
510
507
506
510
504
504
504
502
503
507
508
511
511
510
513
514
515
512
512
510
509
507
507
504
503
503
504
503
504
507
509
509
512
515
512
513
514
514
512
512
509
507
505
503
504
507
503
507
507
505
510
511
513
512
514
513
513
512
511
509
509
507
508
506
507
505
505
504
505
508
508
509
511
511
512
512
514
512
513
510
508
506
505
504
503
505
505
505
504
504
511
511
510
512
512
513
514
512
511
510
507
508
507
505
504
506
503
502
504
507
508
511
512
512
513
514
514
514
512
509
510
507
505
505
504
504
505
503
503
505
506
510
512
513
512
515
514
515
513
510
507
508
508
505
504
504
503
503
503
507
508
510
511
512
515
513
513
513
512
511
509
505
505
504
504
504
503
504
504
508
509
510
511
514
514
514
514
513
514
511
508
508
505
503
502
504
504
504
505
507
507
510
512
514
514
514
512
514
510
509
508
506
504
505
503
503
504
504
504
506
507
510
512
514
513
516
512
513
511
509
507
505
505
506
504
504
504
502
505
507
510
509
510
515
514
514
512
512
511
511
509
507
507
505
504
506
502
504
505
507
509
508
512
514
511
514
514
512
512
510
510
507
506
508
505
503
504
505
507
507
508
510
511
513
513
514
515
512
512
510
510
509
507
502
504
504
504
504
505
504
508
510
512
513
513
514
514
514
511
508
507
506
506
505
507
505
505
504
504
508
506
509
511
511
513
515
514
513
511
510
509
507
504
507
507
507
502
504
504
506
508
510
513
515
515
515
512
513
513
511
509
508
504
504
506
502
503
504
504
506
509
510
512
512
512
512
514
511
511
508
510
507
507
503
502
504
504
506
505
508
510
509
510
512
513
512
513
513
509
510
510
507
505
505
503
505
502
507
505
506
509
510
511
513
514
514
513
511
514
510
508
508
504
504
505
505
502
502
506
506
511
509
512
513
512
513
513
513
511
509
508
507
506
505
503
504
504
506
505
505
509
509
511
512
513
514
514
511
511
510
508
508
505
504
504
506
503
503
503
506
509
510
512
515
510
514
515
512
511
511
509
508
505
504
502
505
504
504
505
507
508
510
512
511
512
513
513
513
511
509
510
508
502
504
502
503
504
504
506
506
509
510
511
513
515
513
513
512
513
510
509
508
506
504
504
505
504
506
507
507
510
509
511
512
512
512
512
513
510
508
508
507
505
504
504
503
504
504
506
508
510
509
511
513
514
513
513
511
513
510
505
508
506
506
505
503
503
502
506
508
507
510
510
513
513
512
516
512
512
509
508
505
506
507
503
505
502
504
505
507
508
510
510
512
513
514
516
512
512
509
509
505
505
504
504
506
504
504
506
508
510
511
513
513
511
511
512
514
511
508
509
508
505
503
504
506
502
504
506
508
509
510
512
515
512
513
516
512
511
507
508
506
506
504
504
505
505
506
507
507
510
510
512
513
511
514
514
511
510
508
504
507
504
507
506
505
505
504
505
507
508
511
514
512
514
515
515
514
513
508
508
508
504
505
504
505
501
504
503
506
508
511
514
513
514
513
515
515
513
509
509
506
505
503
503
503
504
504
505
508
511
512
510
512
512
512
513
512
510
507
510
508
507
506
504
504
505
502
504
505
505
511
513
514
513
513
516
510
511
510
509
506
504
503
505
504
504
503
506
508
511
510
510
512
511
514
514
511
512
508
508
508
504
504
504
507
504
504
507
506
507
510
512
513
514
514
514
513
511
509
507
506
505
504
505
505
505
504
504
507
512
510
511
512
512
515
514
512
512
511
509
507
505
503
503
505
503
504
505
507
509
511
511
511
511
513
514
513
513
511
509
507
505
504
504
507
506
504
504
506
510
510
510
512
515
515
512
514
511
511
508
508
504
505
505
504
503
504
506
506
509
511
513
513
514
512
512
511
509
507
509
507
505
505
503
504
502
505
507
508
510
512
515
511
513
512
513
513
511
509
508
507
505
507
504
504
503
505
505
507
509
510
513
511
513
512
513
512
510
507
508
508
506
505
505
505
503
504
504
508
510
510
510
513
514
513
515
513
510
510
509
507
504
505
506
504
503
504
506
506
510
511
511
513
513
512
515
512
511
510
509
506
505
504
505
505
502
505
507
508
510
514
513
513
513
512
515
512
510
510
507
504
505
504
505
505
504
504
504
508
508
512
512
515
512
515
512
510
511
509
507
507
504
503
504
505
502
506
507
506
509
510
511
513
512
512
513
512
510
509
508
505
504
506
504
507
502
505
509
508
509
510
514
512
513
514
513
513
511
509
508
506
505
503
504
504
505
504
503
510
510
511
512
512
513
514
515
513
511
509
509
506
505
505
503
505
504
504
505
505
510
509
511
513
511
513
514
512
512
506
507
509
505
504
504
504
504
506
505
508
512
512
513
513
513
512
514
512
512
509
509
505
505
504
505
506
503
504
507
509
507
509
510
513
513
513
513
511
509
509
507
506
506
503
504
505
504
506
506
508
509
509
511
513
513
514
515
513
511
508
508
505
505
504
503
503
503
505
507
509
511
511
511
512
513
513
516
512
510
507
506
508
504
505
505
505
504
503
505
508
511
511
513
514
512
514
513
511
511
509
507
507
507
505
504
504
504
505
504
508
512
511
514
514
515
512
512
511
511
508
508
506
503
503
505
505
504
505
506
507
508
509
512
512
512
513
513
512
511
510
509
507
504
507
505
506
505
505
504
505
508
510
512
513
512
512
512
512
512
509
509
505
505
504
503
504
504
505
506
507
512
510
511
514
515
515
513
512
512
509
505
505
503
504
502
506
501
504
505
509
512
510
513
515
513
514
513
513
510
509
510
505
505
502
506
503
504
504
505
507
510
509
512
512
511
516
513
512
510
510
509
507
505
504
505
504
505
506
507
505
510
511
514
512
513
513
511
510
511
510
509
507
504
503
504
504
504
505
505
507
510
512
511
512
514
513
512
511
509
509
508
505
504
505
505
505
500
504
507
508
511
511
512
513
513
515
511
512
511
507
508
507
504
505
504
504
504
505
507
507
508
509
513
513
512
514
514
512
511
509
507
504
504
502
504
505
503
506
505
504
508
511
514
513
513
513
515
513
511
508
507
507
504
504
504
506
504
503
507
509
510
512
511
515
513
513
513
514
510
509
507
506
504
504
502
504
504
502
504
508
511
511
510
511
512
515
514
513
511
509
509
506
504
505
506
506
504
505
504
508
509
510
513
514
512
512
513
513
510
507
510
506
503
505
505
503
501
505
508
507
510
511
514
511
514
513
513
513
511
507
508
505
505
508
505
503
505
505
507
506
508
513
513
511
514
515
511
512
509
508
510
504
505
504
505
503
504
505
504
507
511
510
511
514
513
516
512
511
509
507
507
506
505
504
504
504
503
506
504
507
509
510
511
511
512
515
512
515
512
511
508
505
504
504
505
504
503
506
505
508
509
510
513
511
513
515
514
511
509
508
510
507
504
504
504
504
503
504
508
508
513
512
512
513
512
515
513
513
510
509
507
505
506
504
504
505
507
503
505
508
509
510
515
512
513
515
512
511
512
508
508
504
503
505
504
505
504
507
505
508
508
510
513
512
515
516
514
511
511
510
508
507
503
505
502
502
504
507
507
507
510
511
515
511
513
516
512
511
511
509
508
507
507
504
502
505
503
506
506
508
510
511
511
512
513
515
512
511
511
508
507
505
504
504
503
506
504
505
509
509
511
511
513
514
513
514
512
511
511
507
509
505
504
507
505
505
504
504
507
510
508
509
512
512
513
513
513
512
512
510
507
507
508
506
503
504
504
506
505
507
508
510
511
512
513
514
515
513
511
508
507
507
504
501
503
505
504
505
506
507
511
514
513
513
514
513
513
510
511
507
508
505
504
506
505
503
504
505
505
507
510
513
512
512
514
516
511
512
511
509
507
505
506
504
504
504
503
505
506
508
510
512
513
512
514
513
512
513
511
508
508
505
506
504
504
505
504
505
507
508
511
512
512
512
512
516
514
512
511
506
507
506
506
504
506
506
504
504
507
507
508
510
512
516
512
515
511
511
511
508
509
505
507
505
504
503
504
504
506
507
511
513
513
513
514
513
514
510
512
508
508
504
505
504
506
504
503
504
508
505
510
510
514
