478
473
476
483
490
503
512
525
532
535
539
543
542
535
525
517
506
494
485
483
478
475
476
485
490
502
513
519
530
535
539
544
540
535
526
516
505
496
488
481
476
473
479
486
490
503
515
522
530
533
540
541
540
535
527
514
505
492
486
481
479
475
476
483
490
504
512
523
531
532
538
542
540
533
526
514
506
495
487
482
477
473
477
486
492
504
514
521
530
534
537
542
538
536
526
515
503
494
487
483
480
473
475
484
490
502
513
524
530
536
539
544
539
533
526
515
504
494
486
483
478
472
477
481
490
502
511
521
531
534
538
544
537
534
527
514
505
493
489
483
478
474
478
485
491
502
512
521
529
534
540
545
541
535
526
515
504
494
487
481
476
474
478
483
491
504
512
523
531
536
538
544
541
534
528
513
502
494
486
483
478
475
477
485
492
502
514
522
531
533
538
543
539
535
526
516
505
496
484
481
476
474
477
483
490
503
512
519
531
536
539
542
543
535
526
516
505
496
488
483
479
473
474
483
491
503
512
522
530
535
539
543
538
534
527
516
503
494
488
483
478
476
477
484
489
501
513
519
529
533
539
544
543
537
526
515
505
495
488
481
478
474
478
484
489
501
512
522
530
535
538
541
538
534
528
516
505
493
486
483
479
476
477
484
491
502
512
521
530
534
540
545
539
535
528
516
504
495
485
482
477
472
475
480
489
504
512
522
531
535
539
543
541
536
526
514
504
494
487
482
477
472
476
483
492
504
512
520
529
533
538
542
541
536
527
515
505
495
487
483
479
473
476
484
488
501
513
519
532
535
538
543
542
535
527
516
504
495
486
483
476
475
477
486
488
500
510
520
530
535
539
545
541
536
527
517
508
495
490
482
478
472
478
483
487
501
511
521
528
533
538
540
542
536
527
516
505
498
485
483
480
475
477
482
489
503
511
521
532
534
538
544
540
534
528
515
507
495
487
483
476
473
475
481
491
501
513
521
530
532
537
543
542
536
529
519
506
495
487
482
477
474
475
481
488
502
513
520
530
533
538
544
541
535
529
516
506
495
487
482
479
474
473
483
489
503
511
521
531
535
539
544
541
535
527
516
504
494
488
483
479
473
474
481
487
501
512
520
531
535
537
543
541
534
529
515
506
496
489
483
480
476
475
483
488
501
513
523
529
532
540
543
538
535
527
518
507
496
486
483
477
472
474
484
491
502
512
520
528
532
537
544
543
533
528
516
507
495
489
485
480
474
474
483
489
502
511
519
528
531
536
543
542
536
528
516
508
496
488
480
480
473
474
483
487
502
510
521
530
534
537
545
541
534
530
516
506
496
489
483
478
475
477
483
490
499
510
520
527
532
538
543
542
534
527
516
504
495
488
484
479
475
476
487
491
501
510
519
531
534
537
542
541
536
529
519
507
496
487
481
478
476
475
481
490
499
511
519
531
533
537
545
540
537
530
516
508
494
487
480
479
472
474
482
488
499
512
522
528
533
538
544
541
535
529
518
507
497
487
483
478
472
472
483
487
501
510
519
529
534
539
545
542
536
527
520
508
496
487
484
480
474
473
483
487
499
508
518
527
534
539
544
540
536
529
519
507
497
489
481
478
474
472
481
487
499
510
519
529
532
538
542
542
536
528
517
507
499
487
481
479
472
475
481
490
499
508
519
528
533
535
542
541
537
530
519
508
497
487
483
479
476
476
481
488
500
509
519
530
532
537
543
541
536
529
517
507
497
489
484
478
473
476
484
490
499
509
519
528
531
539
541
543
536
531
519
508
497
488
483
480
473
473
480
486
497
509
520
531
534
539
543
540
537
531
519
509
499
490
484
478
474
472
481
486
499
508
518
526
533
537
544
542
534
530
520
507
496
487
482
479
475
475
482
488
499
510
519
530
532
534
543
544
536
530
518
508
498
489
485
481
474
476
481
488
497
510
517
527
532
538
542
543
538
527
519
507
497
488
482
476
476
474
482
488
500
510
519
527
536
536
542
542
535
528
518
508
497
488
483
479
474
475
481
487
498
509
519
528
531
539
541
541
537
528
519
507
501
490
486
480
474
475
481
487
499
509
517
529
532
536
542
542
538
528
520
508
499
491
486
480
476
475
481
488
499
508
518
530
529
536
542
541
535
527
520
509
497
489
484
481
475
472
483
488
500
510
519
529
533
536
543
544
536
529
519
508
499
489
486
479
474
475
481
485
496
509
519
529
535
538
541
540
535
527
519
510
498
488
485
481
476
476
484
487
498
510
518
529
531
537
540
543
537
531
520
509
499
491
483
478
473
474
481
486
498
508
519
529
530
537
539
542
537
530
522
511
497
490
483
481
476
474
482
485
498
508
517
527
533
536
542
544
537
530
519
509
497
491
483
481
477
475
484
485
497
509
518
528
535
535
541
542
538
530
518
509
499
492
482
480
473
475
482
485
499
509
518
528
535
536
543
544
538
529
521
509
500
491
486
481
475
473
482
485
497
509
518
527
534
536
541
542
537
529
519
510
498
491
483
481
474
474
482
487
498
507
518
527
532
537
541
543
536
529
521
509
497
489
482
480
477
474
480
484
496
508
518
528
533
537
543
541
536
529
521
510
497
488
483
482
476
476
482
486
497
506
516
527
533
538
541
543
538
532
520
509
500
491
484
481
475
474
481
487
497
508
517
527
532
538
540
544
537
531
521
508
499
489
483
480
476
476
481
487
497
508
516
527
534
536
541
543
538
529
520
508
499
491
483
481
476
473
480
486
495
507
517
528
532
535
540
542
535
531
521
510
499
492
483
483
476
473
482
488
496
510
516
525
533
537
541
543
538
530
520
509
498
490
484
481
475
472
482
486
496
506
519
527
533
537
542
541
536
530
520
511
500
490
485
480
475
475
482
485
499
510
519
529
533
537
540
540
536
531
522
510
499
491
483
483
477
474
482
485
496
508
518
527
532
536
542
543
537
531
520
511
499
489
482
479
474
474
482
488
495
508
517
526
532
535
542
544
538
531
520
510
499
490
482
481
475
474
484
485
498
504
517
526
531
537
540
544
536
529
519
508
499
492
483
483
476
475
482
488
497
507
516
527
534
536
540
541
539
530
523
511
500
493
483
480
475
473
481
488
494
505
516
527
530
536
540
543
537
531
522
511
499
490
482
481
476
473
482
487
496
505
515
526
533
535
541
543
538
531
523
510
501
490
483
483
475
473
480
485
498
507
515
528
531
537
541
541
537
532
522
510
501
491
485
483
478
473
481
485
496
507
518
528
531
533
541
541
537
530
521
512
501
489
483
479
479
473
481
486
494
506
516
527
532
536
540
543
538
532
522
510
499
492
483
483
476
475
481
485
497
506
514
524
531
534
541
543
538
533
521
511
501
493
484
479
477
472
481
484
494
506
516
526
533
536
540
541
539
529
523
511
501
489
484
481
475
472
480
486
496
507
515
527
532
536
540
544
538
532
523
509
501
493
485
482
475
473
482
483
495
507
513
525
531
536
540
542
538
531
522
513
500
492
484
482
477
472
481
483
494
507
517
525
531
536
540
542
539
530
521
512
503
492
484
481
476
475
480
484
493
508
514
524
534
535
541
542
540
532
520
510
501
492
484
481
478
477
482
484
495
508
516
525
532
535
539
543
538
532
522
512
499
488
485
483
476
473
479
484
496
505
516
524
532
533
540
543
539
531
522
511
504
492
486
483
476
472
478
484
495
505
516
526
532
537
542
543
541
534
522
512
503
493
485
480
477
473
480
486
494
505
515
524
530
534
537
545
540
533
523
511
502
492
483
483
477
473
481
483
496
506
516
524
531
534
540
540
539
531
525
512
502
491
482
481
475
472
482
483
493
508
516
526
531
535
543
543
539
531
522
512
502
493
483
481
477
474
478
483
492
505
514
525
531
537
541
544
539
530
524
511
501
493
486
482
476
476
481
483
495
505
514
526
531
533
540
543
540
532
524
511
501
491
486
481
477
475
480
486
494
506
515
525
531
535
540
543
539
532
525
511
500
492
484
483
478
473
480
486
493
504
513
525
531
536
542
542
538
534
523
511
502
493
486
483
476
471
479
485
493
504
515
525
531
533
540
542
537
532
523
512
503
494
486
483
476
475
481
486
495
506
515
525
532
534
539
542
540
535
523
512
501
491
484
482
475
475
481
484
496
504
514
524
531
536
540
542
538
531
524
513
501
493
482
482
477
473
481
484
495
504
514
524
531
535
541
546
541
533
524
512
504
491
484
481
478
472
479
484
492
503
514
526
530
534
540
543
540
532
524
512
502
494
486
481
476
473
478
484
495
504
514
523
530
534
539
543
541
534
525
514
503
495
484
481
475
473
481
482
495
505
515
525
527
534
539
543
540
534
526
513
503
492
485
482
479
473
479
483
494
504
513
525
531
533
537
542
539
535
524
512
503
492
484
481
477
474
480
483
494
505
514
524
532
534
538
544
537
533
525
512
504
492
485
483
478
474
479
484
493
503
513
524
528
533
539
542
537
534
526
513
506
494
483
482
478
473
477
483
490
505
513
525
529
534
540
541
540
533
524
515
506
494
484
483
477
473
479
487
493
507
513
525
530
533
538
542
540
532
525
512
504
494
487
483
477
475
478
484
494
505
512
524
529
534
539
541
539
531
526
513
505
495
484
481
476
473
479
483
491
504
514
524
532
535
539
544
540
533
524
512
503
493
485
482
478
475
479
483
494
504
513
525
531
535
538
542
542
533
525
514
505
495
485
484
477
473
478
483
492
506
514
523
529
535
539
543
537
534
526
512
502
493
486
482
480
472
476
481
492
504
512
524
530
535
539
542
538
533
524
513
503
493
486
483
477
475
480
486
492
502
514
526
532
536
539
544
540
533
524
514
503
496
484
480
479
472
477
484
492
504
513
523
532
533
539
541
540
535
527
513
504
496
484
482
477
474
477
483
492
504
514
522
532
535
537
543
540
534
525
515
503
496
485
482
477
473
477
484
490
502
513
523
531
537
541
543
540
535
525
514
502
494
486
481
477
473
476
483
491
503
511
523
529
535
540
543
540
536
527
515
503
493
485
483
481
473
478
481
491
504
511
521
530
533
540
543
541
532
523
515
505
496
484
484
477
473
477
483
492
504
512
524
530
535
540
543
540
532
526
512
504
496
485
483
476
475
477
481
489
504
512
522
529
536
538
540
541
532
525
513
505
496
485
482
477
474
476
485
492
504
514
522
531
537
540
543
539
534
527
515
504
495
486
483
480
474
475
480
488
502
513
522
529
535
539
543
541
533
525
514
505
494
486
485
476
473
476
482
491
502
513
524
531
534
540
542
539
534
527
514
505
496
487
482
478
474
478
485
492
502
511
522
531
534
540
541
541
536
527
514
504
495
486
483
478
474
477
483
492
504
512
523
531
532
536
541
540
531
528
515
504
497
487
484
477
474
478
482
491
504
511
523
529
535
537
543
541
533
527
514
505
495
486
481
478
473
479
482
490
501
512
523
531
535
537
543
543
535
529
515
505
495
486
483
478
472
477
482
487
502
513
522
528
532
540
544
539
534
527
516
507
494
487
484
478
474
479
481
492
503
511
521
528
532
539
541
540
533
528
514
506
495
487
483
478
474
478
484
489
502
511
522
531
533
540
543
541
534
527
517
504
496
485
483
478
474
476
482
492
502
513
524
529
534
538
543
540
533
526
515
505
495
485
482
478
473
479
483
491
500
511
521
529
534
538
543
543
534
527
516
507
495
486
486
478
473
479
483
491
503
511
522
527
532
536
542
540
533
527
516
505
495
486
485
479
474
477
483
492
503
512
519
528
535
537
543
544
534
529
515
505
495
486
482
480
475
478
482
488
502
513
523
530
534
539
543
540
532
527
515
506
494
487
484
478
475
476
485
491
502
512
523
527
532
537
542
541
534
527
516
505
498
486
484
478
475
477
483
491
499
511
522
528
533
538
544
543
534
527
515
504
494
487
482
477
472
477
482
492
502
511
523
529
535
539
542
542
536
529
514
508
496
485
483
478
473
478
482
488
503
511
521
529
533
538
542
541
533
525
515
505
496
488
483
480
473
478
483
490
503
512
521
531
536
540
543
543
532
527
517
506
496
487
483
480
475
476
482
489
499
510
522
529
533
538
543
542
534
528
515
505
495
486
483
480
474
478
481
489
501
511
521
528
534
537
541
542
534
527
516
507
498
488
484
480
473
476
482
489
501
512
521
528
533
538
542
543
533
528
517
506
497
488
483
479
475
476
483
488
500
511
521
527
533
537
541
542
534
526
515
505
497
490
484
480
474
478
483
488
503
511
522
530
535
537
542
541
534
528
518
507
499
487
482
479
473
478
481
490
499
511
521
528
534
539
542
542
534
529
516
506
498
487
485
480
475
476
482
489
501
509
519
528
533
537
542
542
536
529
516
505
496
488
483
479
474
477
480
491
500
511
520
529
534
536
542
543
531
527
515
506
499
487
483
479
477
480
483
487
496
512
519
527
535
538
541
540
535
529
518
509
497
488
483
478
471
476
482
488
500
509
521
529
535
537
542
545
534
531
518
508
497
489
483
480
474
476
480
488
500
511
523
528
536
538
542
541
534
527
518
507
498
486
484
479
475
475
481
487
501
510
519
526
532
537
543
543
534
529
517
508
497
485
483
480
474
477
482
490
502
512
520
527
533
536
542
541
534
529
519
508
498
487
484
478
473
476
481
488
502
511
518
526
531
538
543
544
536
527
516
506
497
486
483
479
476
477
483
488
502
510
520
526
533
535
540
541
534
529
518
505
497
487
483
481
477
476
481
488
499
511
519
528
531
536
541
542
535
530
517
506
497
490
486
482
475
474
481
489
501
510
519
528
532
538
542
544
534
529
517
508
499
486
482
482
473
477
483
489
498
509
519
527
534
536
540
541
534
527
519
508
498
487
484
478
476
476
483
489
498
508
520
528
536
539
542
543
535
527
518
508
497
487
484
479
476
475
480
487
498
508
519
528
534
538
542
544
536
531
519
508
497
488
483
479
475
476
481
488
499
508
520
528
534
536
543
543
534
529
517
506
497
487
482
478
475
477
483
487
498
510
519
530
533
539
540
543
536
531
519
509
498
486
482
481
474
474
481
486
501
510
519
527
534
536
541
544
534
531
518
509
498
488
484
483
475
476
482
490
500
510
518
525
534
535
541
543
535
528
519
507
498
488
481
480
476
475
481
487
498
510
520
527
532
537
542
543
532
529
518
508
499
486
482
478
475
474
480
489
499
510
520
528
532
536
543
544
536
530
519
507
498
489
482
481
475
476
482
487
496
509
520
527
532
536
542
541
536
529
521
508
497
489
483
481
475
476
481
488
498
509
520
526
533
536
543
543
536
530
519
508
496
488
483
480
477
475
480
487
498
509
520
527
533
536
541
543
536
531
519
507
497
487
483
480
475
475
480
487
499
508
523
529
533
538
540
543
536
529
519
506
500
489
484
481
476
476
480
486
495
509
519
526
532
535
540
543
535
531
519
511
498
488
483
482
476
474
481
488
497
508
521
528
533
537
542
541
536
530
519
508
499
487
483
479
476
474
481
485
499
510
519
528
532
536
540
544
534
531
519
508
499
490
483
480
475
476
479
487
499
510
518
526
532
537
542
542
537
531
520
508
499
486
483
481
473
473
478
489
500
509
517
526
533
536
541
542
536
531
519
512
502
489
485
481
473
473
479
486
497
508
519
527
532
536
543
544
537
532
521
510
499
487
483
481
476
474
481
487
497
510
517
526
534
536
540
543
537
529
519
510
499
490
484
481
476
476
480
485
499
508
519
525
532
535
540
542
535
531
519
510
502
489
485
479
475
473
481
487
497
507
522
528
533
536
542
542
537
529
519
510
501
487
485
481
476
475
480
487
496
510
518
526
533
534
542
543
534
530
521
509
497
489
484
479
475
475
482
488
499
507
519
527
533
535
540
545
534
530
519
509
499
487
483
481
474
477
479
488
496
509
519
526
534
535
543
543
537
530
519
511
499
488
483
480
476
473
480
487
499
509
518
526
533
536
542
544
536
529
519
508
501
491
484
482
474
475
479
485
497
508
519
526
535
536
540
543
536
532
523
510
499
490
484
480
475
476
481
486
497
510
517
524
532
537
540
543
535
530
522
512
501
489
483
480
477
472
479
485
495
508
519
526
531
533
541
542
536
532
522
510
499
488
484
480
475
473
480
488
497
508
518
526
533
535
542
545
535
529
521
511
501
489
483
480
475
475
480
486
497
509
519
527
531
536
540
543
534
533
522
509
500
488
482
482
475
476
479
487
496
507
518
524
532
536
540
543
535
531
522
509
499
490
485
481
475
476
480
489
497
508
517
527
533
536
541
544
535
531
519
512
499
490
484
480
477
476
479
486
496
508
518
526
531
536
540
542
535
532
521
510
501
491
484
480
476
474
482
486
496
509
518
526
532
534
540
544
537
531
519
509
500
490
484
480
476
473
480
486
496
508
519
525
533
535
542
543
536
532
520
509
498
488
486
481
475
476
479
487
495
507
519
524
533
536
541
543
536
530
521
509
503
490
484
480
475
476
480
486
496
508
519
524
532
536
542
543
536
531
521
507
499
490
484
479
477
476
480
486
495
509
518
527
536
537
539
541
537
532
520
509
500
491
485
481
475
474
479
487
496
505
518
526
535
536
541
543
537
532
520
511
502
492
482
481
473
473
478
486
496
508
519
525
531
534
541
543
536
531
520
509
503
489
485
480
475
475
482
485
494
506
518
525
536
536
540
543
537
529
523
510
503
489
482
481
473
476
480
485
495
506
514
527
532
537
542
544
538
533
521
511
498
488
486
482
475
473
479
486
496
508
520
527
535
537
543
544
536
529
521
511
501
489
483
481
475
474
479
487
495
506
519
524
534
534
539
545
536
532
520
511
499
489
485
482
476
474
479
486
496
507
517
524
532
535
540
543
537
534
521
511
503
491
482
480
476
474
479
487
496
507
516
526
533
534
543
543
535
531
520
510
499
488
481
481
478
476
482
487
495
508
518
525
532
536
540
543
534
531
523
512
502
491
483
482
474
476
480
489
495
506
515
523
534
535
539
543
535
533
522
511
500
492
481
483
476
474
480
485
496
506
517
525
532
534
537
543
539
532
523
509
500
491
486
482
477
475
480
484
496
507
516
525
532
535
543
543
537
531
520
511
499
490
483
481
477
474
478
486
495
507
516
525
533
535
542
543
539
531
521
511
500
489
484
481
476
475
481
487
494
504
517
526
535
536
542
543
537
530
523
511
499
490
487
480
478
476
479
486
495
510
516
527
532
534
539
542
538
531
523
511
502
489
484
480
475
475
478
486
494
507
516
527
531
535
541
543
537
532
523
511
501
492
486
483
477
474
479
485
494
507
517
524
530
535
539
542
539
532
521
512
502
492
484
481
477
472
477
485
495
505
516
526
535
536
539
544
536
531
523
512
502
492
485
484
476
475
476
484
495
507
515
526
534
535
539
543
536
532
524
511
503
489
485
482
478
472
478
484
493
504
516
526
534
535
541
547
538
531
523
511
502
491
486
481
476
472
478
485
496
505
516
523
532
536
541
543
536
532
524
510
502
488
485
481
476
475
478
485
494
507
516
526
532
536
539
544
537
533
522
510
502
493
484
483
476
474
478
487
494
508
517
525
533
535
539
543
534
534
523
510
503
489
486
481
475
475
480
485
495
505
514
524
531
536
540
543
539
534
522
511
502
490
485
483
478
473
479
485
494
504
516
525
532
535
539
543
536
534
522
512
500
490
485
482
478
475
477
486
495
506
518
523
532
533
539
543
538
532
523
512
501
489
486
480
478
473
476
486
492
505
517
524
531
534
539
546
538
533
522
510
502
492
484
483
476
474
479
485
493
504
514
525
532
535
542
543
539
534
524
511
502
489
484
481
476
476
479
485
493
507
516
525
533
534
540
543
539
533
524
513
504
489
484
482
476
474
475
485
495
505
518
523
529
534
540
542
539
534
524
511
503
493
486
484
477
474
478
484
494
505
514
523
531
535
541
545
536
532
523
512
501
491
483
483
478
476
476
487
494
504
516
523
533
536
540
545
539
533
523
514
502
491
484
481
475
474
479
487
496
505
515
524
533
534
537
544
537
534
524
511
503
491
483
480
478
474
478
486
495
506
515
524
531
533
540
543
539
533
524
511
500
491
486
481
476
475
479
486
493
504
515
526
534
535
539
544
540
535
522
513
504
490
482
480
479
476
477
484
493
502
518
524
531
536
540
543
538
533
524
514
503
490
485
483
476
472
479
485
492
504
517
525
531
535
539
544
538
531
524
511
503
492
486
481
478
475
480
486
493
506
516
523
530
534
540
542
537
535
523
511
502
491
484
484
478
474
478
485
491
507
516
522
531
535
540
541
539
533
525
514
502
492
484
483
478
475
478
487
492
506
515
524
532
532
540
543
536
532
525
513
504
491
484
483
478
472
476
484
493
504
515
525
531
536
539
544
540
532
524
513
504
491
484
481
476
473
478
485
494
505
514
526
531
534
540
543
537
532
526
513
504
491
486
483
477
475
477
486
494
504
515
524
531
536
539
545
537
531
524
515
504
490
486
481
477
473
478
483
492
505
515
523
531
533
537
543
536
533
524
511
504
493
487
481
478
474
478
482
493
503
515
523
531
534
539
543
539
533
526
511
504
491
484
483
477
475
476
485
492
504
515
523
531
535
539
543
539
533
526
513
504
492
484
482
478
472
476
484
492
504
515
523
531
534
539
543
538
533
523
512
504
492
486
482
477
473
477
484
492
505
515
524
532
537
538
545
540
534
523
513
502
492
484
485
476
473
477
483
493
504
515
525
533
534
538
544
538
532
525
511
501
492
484
482
475
471
480
483
493
504
514
520
532
535
537
544
540
534
524
512
505
492
486
482
478
476
478
484
495
504
517
522
531
534
538
543
537
535
526
514
506
492
485
480
476
473
477
485
493
502
516
522
531
536
537
543
536
534
524
511
503
492
484
484
477
475
477
484
493
506
515
523
532
535
539
543
536
532
525
514
505
493
487
483
478
473
475
485
494
505
515
521
532
536
541
544
538
533
524
514
504
493
483
483
477
474
478
484
494
503
514
524
532
534
538
544
538
534
525
515
503
493
486
483
476
473
476
483
491
503
516
523
531
536
539
545
537
535
524
514
503
492
485
483
478
475
477
483
492
508
516
524
534
534
539
542
538
532
526
515
504
494
487
483
478
473
475
482
493
505
513
523
532
533
536
543
537
536
526
515
503
492
485
483
477
477
477
484
494
504
515
524
530
533
538
545
539
533
527
512
502
492
485
481
476
473
478
481
492
504
516
522
534
535
540
543
539
532
524
515
502
492
487
485
477
473
477
484
493
504
515
524
532
533
540
544
540
534
525
513
502
492
488
484
478
476
475
485
492
505
513
522
531
533
538
543
537
532
526
513
507
494
487
481
477
472
477
485
493
505
515
523
530
533
539
542
538
531
525
512
507
492
486
485
478
476
478
483
492
504
513
522
530
535
539
543
539
535
525
513
504
492
486
484
478
475
475
483
491
504
513
521
531
534
539
546
540
535
526
516
505
492
485
481
479
475
476
483
491
503
514
522
530
534
539
543
541
535
527
513
503
495
483
483
479
475
478
483
492
503
515
522
531
533
538
543
539
532
526
513
507
492
485
481
478
473
476
482
489
502
515
523
532
534
539
544
541
534
526
515
506
491
487
484
477
474
477
483
490
503
514
522
529
532
538
545
539
534
526
512
505
495
486
485
478
474
476
485
494
505
515
521
530
534
541
545
540
533
526
515
505
495
485
482
476
474
476
481
490
504
515
523
531
536
539
543
542
535
526
514
505
493
483
482
476
477
475
483
489
505
515
522
530
532
539
546
540
533
524
515
508
494
486
484
477
472
476
486
490
502
514
521
530
535
537
544
538
532
525
515
505
496
487
485
478
475
475
483
490
503
516
522
530
535
540
542
540
532
524
514
504
492
487
483
479
475
477
483
489
504
512
522
529
533
540
544
538
534
527
514
507
492
486
484
480
473
477
485
493
503
511
523
530
534
537
542
537
532
525
515
507
492
488
482
480
474
477
483
491
503
513
524
532
534
538
545
539
534
526
513
503
491
487
483
478
475
476
485
492
504
513
523
530
534
537
543
540
533
527
512
506
496
487
484
479
475
478
484
493
502
512
521
530
535
540
543
540
534
526
516
505
492
487
481
479
474
476
483
491
502
513
523
533
535
537
541
539
532
524
514
504
493
485
485
480
474
472
481
491
503
512
523
531
534
540
543
539
535
527
516
507
493
486
484
479
475
478
483
489
502
512
522
530
534
538
546
538
534
525
514
504
491
483
484
479
473
478
485
492
501
513
521
533
534
541
544
540
535
527
515
505
495
484
483
478
474
476
485
491
502
511
523
531
535
536
543
539
534
526
515
504
493
485
481
478
474
478
485
489
502
512
522
530
535
539
545
542
535
527
516
504
494
487
482
477
475
475
483
488
500
510
520
530
532
538
543
543
536
527
516
507
495
486
484
480
473
473
481
489
501
513
520
530
534
537
543
543
535
527
516
505
493
486
483
478
475
475
483
487
501
511
523
529
536
540
542
540
532
526
515
508
495
487
484
479
475
476
483
489
502
512
520
530
536
539
543
539
536
528
513
505
496
487
483
480
477
476
484
491
502
512
521
530
535
539
543
538
533
526
514
505
493
487
483
479
473
477
485
491
504
512
520
530
535
538
544
542
535
528
516
505
496
486
482
476
476
476
484
489
502
511
519
531
532
539
543
539
532
528
517
504
493
487
483
480
476
477
484
488
503
512
523
530
534
538
543
540
535
528
516
505
494
488
483
480
473
476
480
491
501
512
519
531
534
538
544
540
533
527
515
505
496
486
484
479
476
475
482
490
502
511
520
529
534
539
543
540
536
528
517
504
495
486
483
479
476
473
483
489
501
513
520
529
535
538
544
541
534
528
513
506
494
486
483
478
474
473
482
490
503
513
521
528
534
538
544
540
537
529
518
508
496
486
483
480
476
473
480
488
501
511
520
528
534
536
542
541
535
526
516
504
495
487
484
479
473
474
483
491
503
511
521
527
533
538
543
540
533
528
517
505
494
487
484
477
475
475
481
491
500
512
521
529
533
541
545
542
535
527
516
507
495
486
484
479
475
476
481
489
500
512
519
531
534
539
543
540
535
527
516
506
496
488
485
479
475
474
482
488
502
512
518
529
533
538
544
543
535
528
515
508
497
485
483
478
476
476
483
492
501
514
522
529
535
539
543
540
533
528
515
507
494
485
482
478
475
476
484
489
500
513
519
529
534
538
542
540
533
527
516
506
498
488
483
478
473
475
481
491
500
514
520
529
534
536
543
539
534
528
516
508
498
487
483
478
476
476
481
490
501
512
519
529
535
538
542
541
533
528
516
506
496
488
484
481
474
474
483
490
500
509
520
527
533
537
541
540
537
528
517
506
493
487
483
478
474
475
483
491
502
511
520
529
533
536
542
540
535
527
516
509
497
488
482
480
474
474
483
488
498
510
520
530
535
539
542
541
535
526
518
507
495
487
483
477
475
475
482
487
502
512
521
529
532
536
544
541
535
526
518
509
494
488
483
478
475
472
482
489
501
511
520
529
534
537
543
543
537
527
518
509
499
487
481
476
475
475
484
490
501
511
517
529
533
536
543
542
536
528
518
508
497
489
483
480
474
474
481
490
501
511
520
529
535
536
544
541
534
528
518
508
496
488
483
480
475
474
483
487
500
512
519
531
534
537
543
540
536
528
519
507
495
487
485
480
475
474
481
487
499
511
521
529
534
537
542
543
536
528
517
507
496
486
483
478
476
476
481
487
498
512
521
530
531
537
542
542
536
529
515
507
497
488
483
481
477
474
483
487
499
513
518
530
532
537
544
542
535
530
517
509
496
487
483
479
474
472
481
490
499
512
519
528
533
539
543
544
535
530
516
508
497
487
482
480
475
473
481
489
500
511
521
529
532
537
542
541
536
531
519
508
496
489
484
480
474
475
481
489
500
512
520
527
532
537
542
541
535
529
519
507
496
486
484
478
474
475
481
488
499
512
518
528
534
536
544
542
537
531
519
510
495
487
483
480
475
475
483
489
500
509
517
528
531
536
545
539
535
531
520
508
496
490
482
481
475
473
483
488
499
512
519
527
532
536
541
539
537
528
520
508
496
488
484
480
475
472
482
487
501
512
519
529
532
534
541
542
535
528
516
509
496
489
482
479
473
475
481
490
500
510
519
529
534
537
543
544
534
530
518
510
497
487
482
480
476
475
480
487
499
510
517
528
533
536
541
541
534
530
518
509
495
490
484
481
477
476
481
486
497
508
517
529
533
536
544
542
536
531
518
510
498
490
483
480
477
475
482
488
499
512
516
528
532
536
543
539
535
529
517
509
497
489
486
480
473
473
480
489
498
510
520
528
532
537
543
539
532
530
519
510
495
488
483
483
476
476
485
487
502
510
519
528
533
536
539
543
534
529
519
507
497
490
484
481
476
472
480
487
500
511
519
529
534
535
543
542
535
529
518
509
497
489
483
478
475
472
480
488
498
511
517
529
534
537
541
543
538
530
521
509
498
488
485
481
475
475
479
488
498
510
516
529
532
536
542
540
536
531
519
509
496
488
483
479
473
473
482
488
498
511
520
529
531
534
542
543
537
532
521
509
497
489
485
480
475
473
481
489
497
509
519
529
534
536
543
541
535
529
519
508
497
489
482
479
476
475
479
487
499
508
518
528
535
537
541
541
537
530
519
508
496
489
483
480
476
475
481
487
500
511
519
529
533
535
541
541
535
530
521
509
497
489
484
479
476
474
482
487
499
509
519
527
534
535
543
540
535
531
519
509
497
488
483
480
477
473
481
487
499
510
518
528
534
535
543
542
537
528
519
509
499
489
484
483
477
472
480
487
497
510
519
529
532
535
540
542
535
531
519
508
496
488
483
481
478
476
481
487
499
510
516
526
532
533
542
540
536
529
521
511
497
490
484
483
478
474
482
486
497
511
518
528
535
537
541
539
536
531
519
508
498
488
482
479
477
473
481
487
500
509
517
527
531
535
541
543
533
531
520
510
499
491
484
480
476
473
480
488
500
509
517
525
534
535
541
542
536
530
520
510
497
489
483
480
476
473
482
489
497
508
519
527
533
535
543
542
535
531
519
510
500
490
483
481
476
474
484
487
495
507
516
528
534
535
540
540
537
532
519
509
497
488
483
480
476
473
481
487
499
510
518
529
532
537
543
541
536
529
523
511
497
489
484
479
476
476
482
487
497
510
518
525
532
536
541
542
536
528
519
510
499
490
486
482
476
473
479
487
495
508
517
526
534
536
543
543
539
531
519
508
498
490
485
479
479
472
478
487
497
511
519
527
533
536
543
542
536
529
521
509
496
491
484
479
475
476
480
485
496
509
516
527
536
536
543
540
537
530
519
509
497
492
485
481
477
473
481
486
499
509
516
527
534
535
543
543
537
530
519
510
499
487
484
481
476
473
483
484
498
507
519
526
533
536
540
542
536
532
519
509
499
489
484
481
475
474
479
487
497
509
517
527
530
536
542
543
535
533
519
509
499
491
484
480
478
471
479
485
496
510
516
528
532
536
542
543
537
529
518
510
499
491
483
483
477
474
480
484
497
509
517
527
532
537
542
541
536
530
521
511
500
490
486
483
476
472
478
485
496
510
519
526
531
534
542
541
537
530
523
510
498
488
486
482
477
472
481
486
496
510
516
527
531
536
542
541
538
531
519
512
501
493
484
482
476
472
481
487
495
506
515
529
533
535
542
542
537
530
521
512
499
489
484
481
477
473
481
487
496
507
513
524
531
536
541
542
537
532
521
512
499
487
485
481
477
472
481
486
496
506
517
525
533
535
541
542
537
531
522
511
499
490
484
481
476
473
479
485
496
509
515
527
533
535
543
542
538
532
519
511
500
490
484
480
477
473
481
487
496
507
516
528
531
535
541
542
538
531
521
510
499
491
486
482
477
473
479
485
496
508
516
525
531
536
540
542
537
531
520
511
502
492
483
481
478
472
479
486
494
510
517
526
532
536
540
539
536
531
523
512
498
492
484
480
479
473
480
486
497
508
516
526
531
534
541
540
538
530
523
511
500
491
484
481
476
472
482
486
495
506
514
526
533
536
542
542
536
529
520
511
500
490
485
484
477
474
479
486
496
507
515
526
535
536
538
543
539
533
523
513
499
490
483
483
478
471
480
485
494
506
518
527
532
535
541
541
538
531
520
511
497
492
485
483
478
472
480
484
494
505
516
527
532
536
542
542
537
531
523
513
499
491
486
482
478
473
480
486
496
508
515
526
534
535
540
540
537
530
522
513
497
489
483
482
477
474
480
485
495
506
517
526
533
535
542
540
537
531
524
512
499
489
482
480
477
473
479
486
496
508
515
526
533
537
541
542
536
532
523
511
500
493
484
481
477
472
479
486
495
507
515
526
532
537
540
543
537
532
524
511
499
492
483
481
478
474
479
485
493
507
517
526
532
536
542
540
536
530
522
511
500
489
484
483
478
472
481
486
494
507
513
525
532
535
541
541
537
531
523
513
499
491
487
483
478
475
479
483
495
509
516
525
531
534
540
541
535
531
524
511
500
492
484
482
478
471
479
485
495
506
517
526
532
536
540
543
537
531
523
511
499
493
485
482
477
470
480
484
495
507
515
525
533
535
541
542
537
532
523
513
501
493
486
483
478
473
479
485
493
506
513
525
532
535
541
542
537
533
522
515
501
492
486
482
478
472
480
484
495
507
514
525
530
536
541
542
536
532
524
512
501
490
483
483
478
476
480
485
495
508
516
527
533
536
538
542
540
531
524
513
501
489
483
483
479
472
480
484
495
509
515
525
532
534
540
541
536
530
524
512
503
491
485
483
478
473
480
483
494
507
517
524
532
536
539
543
538
532
524
511
499
491
483
481
478
475
480
483
494
507
516
524
531
535
541
541
541
532
523
513
500
491
485
481
478
473
479
486
496
506
514
524
531
536
541
542
538
530
524
511
501
490
486
481
478
473
480
484
492
508
515
525
533
536
540
541
540
532
522
511
501
493
484
484
479
473
479
483
495
508
515
526
531
534
540
543
537
531
521
513
501
491
484
484
478
475
480
484
493
504
516
525
530
534
540
544
538
532
524
512
501
492
483
481
478
473
479
483
492
507
515
526
529
536
540
541
538
532
524
512
502
491
484
481
478
472
480
487
493
506
515
524
531
535
540
541
538
533
524
514
501
494
484
482
479
473
480
486
494
506
514
523
531
534
542
542
537
534
523
514
502
492
484
482
478
473
478
485
494
507
513
523
532
536
540
543
538
532
525
516
498
492
485
484
479
473
480
486
494
504
512
524
530
534
539
544
537
532
525
514
504
492
486
480
478
473
479
483
493
505
514
523
531
532
542
542
538
532
524
514
503
492
485
482
477
473
479
483
493
507
514
525
531
535
538
542
540
531
524
515
502
492
484
483
477
473
478
486
496
508
513
524
530
532
540
543
537
533
523
513
502
492
486
484
478
473
478
485
494
506
514
524
532
534
539
541
537
532
523
514
503
492
486
483
476
475
480
488
493
507
513
523
532
533
542
542
540
531
524
514
502
492
485
482
479
475
478
483
493
506
516
524
529
534
540
542
540
533
525
513
503
493
484
482
479
472
480
485
495
503
515
524
531
532
539
543
538
532
524
516
502
493
485
483
479
474
479
483
494
506
513
523
529
535
539
542
540
533
526
513
503
492
487
483
477
473
479
483
493
507
513
524
531
534
540
542
538
533
525
513
503
493
485
482
477
472
478
481
493
507
512
523
532
535
540
542
538
533
524
515
505
492
486
484
479
471
480
484
491
503
513
523
530
535
539
539
540
533
524
515
503
493
486
482
480
473
477
485
493
507
512
523
531
535
539
543
539
534
525
513
504
492
487
483
476
472
477
484
492
504
511
523
532
534
540
543
540
533
525
515
502
495
485
487
478
474
479
485
491
506
513
521
529
533
539
542
539
533
526
515
503
493
484
482
479
474
476
483
492
504
511
522
531
534
541
543
539
536
526
513
500
491
486
483
478
474
477
485
494
507
512
525
530
535
539
540
539
532
526
515
501
494
485
483
480
472
479
485
494
503
512
523
532
536
540
542
541
533
524
513
503
494
484
483
476
472
477
482
492
506
510
523
531
536
540
540
539
533
527
515
502
494
485
482
480
475
480
486
491
506
511
522
532
532
541
543
538
535
524
514
502
493
486
483
480
472
476
484
492
505
513
523
531
536
539
541
539
534
527
518
502
494
487
483
479
472
476
483
492
504
514
522
532
533
540
543
539
536
526
515
503
494
484
483
479
473
478
483
491
504
512
523
532
534
541
542
539
533
525
514
503
493
484
485
481
475
478
484
490
503
512
524
531
534
537
542
540
535
524
515
501
494
485
481
478
475
480
485
491
504
511
523
532
532
538
540
539
535
527
515
502
494
483
480
479
473
478
482
492
503
513
523
530
532
540
541
539
533
527
515
505
495
486
482
481
475
478
484
491
504
510
523
534
536
539
543
540
534
525
515
504
493
484
481
477
472
476
483
490
505
512
522
531
534
542
544
538
534
527
519
504
497
487
484
478
473
478
483
491
505
511
521
531
535
540
543
540
534
526
515
504
494
487
483
479
473
476
484
491
503
511
524
530
535
539
541
540
533
526
514
503
492
487
484
480
476
479
483
491
504
512
521
531
536
538
541
540
533
526
515
505
494
487
484
479
473
478
483
490
504
512
521
530
533
540
543
540
532
526
518
503
494
487
482
479
473
478
484
489
503
510
522
530
534
540
541
540
532
526
515
504
494
485
484
480
477
478
483
492
502
512
521
528
533
540
542
540
534
526
513
503
496
486
482
480
473
479
483
491
503
511
522
530
532
540
543
541
535
527
515
504
496
486
483
480
474
477
484
490
503
512
521
529
536
540
541
537
532
527
515
504
495
487
484
478
474
476
484
491
504
513
523
529
532
537
542
540
534
527
516
504
493
487
483
480
472
479
483
492
502
510
520
530
533
541
542
539
535
527
515
504
494
485
483
480
475
477
483
490
504
511
522
531
532
539
542
540
534
527
515
505
493
486
483
480
474
478
482
491
504
507
522
532
535
539
541
543
536
528
515
507
495
488
485
480
474
474
483
488
502
510
520
528
534
539
542
540
536
527
518
503
493
487
483
480
472
476
487
490
502
510
521
530
533
540
543
542
532
527
513
503
494
484
484
482
473
476
485
489
503
511
522
530
535
538
542
542
532
527
518
505
494
487
484
481
476
477
482
490
500
511
521
529
535
538
539
540
534
527
518
505
496
487
483
480
473
477
483
491
503
511
519
529
535
537
542
543
534
529
517
506
494
488
484
481
472
475
483
489
501
512
519
528
534
539
542
543
536
529
515
504
495
487
482
478
475
474
483
489
503
512
522
529
533
540
542
541
534
527
519
505
495
484
484
480
475
478
482
489
501
512
520
531
534
540
540
541
533
526
518
507
494
489
483
480
473
476
484
491
503
510
519
529
534
539
542
541
535
528
516
505
494
489
483
480
475
476
482
489
503
510
520
527
531
536
543
540
533
528
517
505
496
486
486
481
475
476
481
490
502
510
521
532
533
538
541
542
535
528
516
505
497
488
484
482
472
475
483
492
500
509
520
528
532
540
543
541
533
528
518
506
495
487
483
482
474
477
483
490
501
508
519
527
534
537
542
540
534
527
517
507
496
486
483
480
473
476
483
489
502
510
522
530
534
539
542
542
536
529
519
502
494
486
481
481
475
474
482
489
503
511
521
529
534
537
541
543
535
526
516
504
493
486
486
480
476
478
481
490
503
510
519
529
534
537
542
542
533
527
517
505
496
490
482
482
474
476
483
491
501
512
519
529
535
537
541
539
535
528
517
506
498
487
485
479
474
475
481
490
502
511
520
527
535
538
543
542
535
528
517
505
496
490
482
479
475
476
484
487
499
511
521
529
533
538
541
540
534
530
517
505
496
489
485
479
476
476
482
489
499
508
519
527
533
539
541
542
535
529
519
507
497
488
482
482
475
476
481
488
499
510
519
530
533
537
543
543
532
529
521
505
496
487
484
480
473
475
482
487
501
508
519
529
533
537
541
543
535
530
519
509
496
490
484
480
477
475
483
487
500
508
520
529
534
538
542
540
534
527
518
507
498
490
483
482
474
475
483
489
500
510
520
528
534
536
540
541
532
528
519
507
497
487
482
482
475
477
485
488
501
507
519
528
534
539
542
543
534
528
519
506
495
485
482
482
475
476
483
490
503
508
520
527
532
537
540
542
534
528
519
508
496
489
484
478
473
476
483
489
502
510
519
528
532
539
541
541
536
530
518
507
495
487
484
481
474
476
483
486
502
508
519
527
535
537
541
541
535
529
519
508
497
489
484
481
473
475
482
491
500
508
519
527
531
536
541
543
534
530
519
506
496
491
483
480
475
474
481
487
500
511
519
527
532
536
542
543
534
527
518
508
498
489
483
480
474
473
482
487
499
511
520
529
535
538
541
540
536
528
519
508
495
489
485
482
476
478
484
489
500
508
519
530
531
537
539
542
533
527
518
508
495
488
483
482
475
473
480
488
501
507
519
528
534
539
539
543
535
528
519
507
499
489
484
484
476
474
481
487
499
505
520
528
533
537
541
542
537
529
518
508
497
490
482
482
473
474
484
488
499
509
521
527
533
538
542
544
537
532
520
507
498
488
483
483
476
474
482
487
501
507
518
525
531
536
541
542
536
531
520
508
497
489
484
484
475
476
479
487
501
507
519
527
534
536
539
540
535
527
522
509
497
491
485
481
474
473
482
486
500
509
519
527
534
538
540
542
534
531
519
506
497
490
483
482
476
476
482
487
499
510
519
528
533
536
540
543
537
530
519
508
497
489
484
481
475
473
481
489
500
508
517
526
533
535
540
544
535
532
522
507
499
489
483
481
473
475
483
489
502
509
519
527
532
537
539
543
537
531
520
507
497
490
483
483
478
474
480
485
499
509
519
524
532
536
541
543
535
529
521
509
499
488
486
480
476
475
482
489
497
507
520
526
534
535
540
542
538
530
520
507
499
487
483
480
478
475
481
487
499
508
518
529
535
537
539
542
536
529
521
510
499
488
481
483
476
473
481
487
499
508
520
527
532
536
540
544
536
534
521
509
500
488
483
480
475
475
480
488
499
510
519
529
536
538
540
541
536
531
520
505
497
488
482
482
474
475
483
487
499
507
518
528
531
537
541
542
536
532
523
509
498
489
484
481
476
475
482
488
499
508
516
528
532
535
540
542
536
529
521
507
500
491
485
483
476
475
480
486
497
507
517
527
532
535
540
543
537
533
521
507
498
490
485
484
478
475
480
489
498
505
516
526
534
536
540
542
535
530
521
510
498
487
484
482
475
475
481
487
498
507
516
526
533
536
541
543
534
531
521
507
498
490
483
482
476
473
481
486
498
507
517
526
534
537
541
543
534
531
521
508
501
489
485
482
472
473
481
486
498
506
517
527
534
537
540
543
536
533
522
511
498
490
485
482
476
473
479
486
498
508
519
526
533
537
541
541
533
529
522
509
501
490
485
482
476
476
481
487
496
507
516
526
532
538
541
540
537
531
521
508
497
491
484
484
475
476
481
487
498
507
519
526
532
536
539
541
536
531
524
510
499
491
483
483
473
476
480
487
498
506
517
524
532
535
539
544
535
529
522
511
500
491
483
483
477
473
480
484
498
506
519
526
532
537
542
544
536
530
519
508
500
491
483
484
474
473
482
486
498
509
516
527
532
535
540
542
536
533
522
507
502
490
484
482
478
473
482
485
497
505
518
527
532
537
540
543
536
531
521
508
498
490
483
481
478
474
480
487
496
505
518
527
533
536
542
545
536
531
522
508
500
491
483
483
476
475
481
484
497
506
518
525
534
536
538
543
536
531
521
509
499
491
482
483
475
474
479
486
496
506
515
526
533
538
537
543
537
531
524
511
502
491
484
483
475
473
480
484
497
504
517
526
532
536
540
544
537
530
524
511
500
491
485
483
477
473
480
486
498
507
516
526
533
538
540
542
536
530
521
510
499
491
485
482
475
474
478
486
497
507
518
527
533
539
540
543
536
532
522
508
498
490
483
483
475
474
481
487
496
507
517
527
533
536
539
543
536
533
521
510
502
491
485
486
477
474
480
487
496
504
516
524
532
537
540
541
536
530
523
510
501
490
485
482
475
473
479
486
499
507
516
527
531
537
541
543
537
534
523
510
501
489
484
482
475
474
481
485
496
505
515
525
533
536
539
543
536
532
524
510
500
492
484
481
476
476
480
486
497
507
515
524
534
537
537
542
537
532
525
511
500
491
482
481
472
472
479
486
496
507
517
526
535
535
539
541
537
533
523
510
501
491
483
483
473
474
480
487
499
506
515
524
532
536
540
543
537
531
523
510
499
491
485
483
475
473
479
486
496
506
515
527
532
535
540
544
537
531
523
511
501
494
485
483
476
475
479
483
495
504
517
529
534
534
538
545
539
531
523
511
502
490
484
481
475
472
478
487
496
503
516
527
532
536
540
543
537
532
525
512
502
489
484
483
475
474
480
485
496
508
516
524
531
535
540
543
538
535
525
511
502
492
484
484
477
473
480
484
496
507
515
525
531
536
539
543
537
530
523
512
502
491
485
483
476
475
479
485
496
506
516
524
529
537
539
543
538
532
524
513
502
491
485
481
477
476
479
486
496
506
515
526
531
536
537
542
539
532
524
512
500
491
486
483
476
475
481
487
494
505
514
524
532
536
540
542
538
532
524
511
502
493
485
484
475
473
478
484
494
507
515
523
531
537
540
543
539
534
527
513
504
492
486
482
475
473
478
485
494
504
515
523
534
536
537
543
539
532
523
510
504
491
485
482
476
472
481
484
496
504
516
526
534
536
539
542
539
531
522
510
501
494
483
484
474
475
480
484
494
505
515
527
532
537
538
545
537
533
523
512
499
491
486
482
476
474
476
486
495
505
515
524
531
536
539
541
536
532
526
511
503
491
484
483
473
475
477
484
497
504
515
526
533
535
536
540
540
535
528
513
503
494
483
482
476
474
478
486
494
505
514
524
531
535
539
544
537
532
526
511
502
490
485
482
479
475
479
485
495
502
515
524
532
535
539
543
537
531
527
511
502
493
484
484
476
473
477
484
496
505
518
524
534
537
538
543
538
534
524
511
502
493
485
484
476
473
476
484
496
506
514
524
533
536
539
543
539
535
524
512
502
491
484
483
478
472
478
483
495
503
515
526
533
536
539
543
539
535
525
512
503
492
486
484
476
473
478
485
494
504
514
524
531
535
539
542
539
533
525
511
504
493
485
484
478
476
479
484
495
505
513
521
531
533
539
542
538
530
524
512
503
495
487
483
475
476
476
482
494
504
514
523
532
536
537
542
537
533
526
510
502
490
488
485
477
474
481
484
497
504
513
524
532
536
540
543
539
533
525
512
501
492
484
483
478
475
479
486
492
503
514
523
532
538
539
544
540
534
526
513
504
491
482
484
476
473
476
487
493
504
515
524
530
535
538
543
538
534
526
514
501
495
486
484
476
473
476
482
491
502
513
525
531
536
537
542
539
533
526
512
502
492
486
484
476
473
477
482
494
507
513
522
530
535
537
543
538
534
525
514
501
494
487
487
478
473
477
482
495
504
514
524
533
537
538
544
541
531
524
513
503
493
484
483
475
475
476
483
493
503
512
527
531
535
539
543
540
533
526
511
503
491
486
485
478
476
479
483
493
503
515
522
531
535
538
541
540
533
526
514
504
494
487
484
476
475
479
484
492
503
514
526
533
535
536
544
539
535
529
516
506
494
485
483
478
475
476
483
492
500
514
525
532
534
538
543
539
534
526
515
506
494
484
483
479
474
477
486
492
505
515
523
531
536
538
542
540
534
528
512
503
492
484
481
478
474
478
485
496
501
514
523
531
535
538
541
540
534
525
512
504
494
487
485
478
476
476
484
492
503
512
524
531
535
536
541
538
531
527
514
505
493
487
483
477
474
479
485
493
504
513
523
531
534
539
542
541
535
527
515
504
493
487
482
477
474
477
485
492
503
512
521
530
533
540
543
541
535
526
512
504
494
485
485
478
475
475
481
492
505
513
524
531
535
537
545
540
533
527
514
506
494
483
483
479
474
478
483
492
501
512
522
531
535
538
544
541
534
527
513
505
492
486
483
480
473
479
484
491
501
513
520
531
534
536
544
541
532
523
514
505
492
486
483
479
477
479
483
493
504
513
521
531
535
537
543
540
535
527
514
504
493
487
483
476
474
475
480
493
503
514
523
531
536
538
542
539
534
528
512
505
493
485
487
477
473
475
483
491
502
512
521
530
536
537
543
540
535
530
515
507
495
487
485
478
472
477
483
492
500
513
521
531
534
536
543
543
535
528
514
505
496
487
482
477
473
473
480
493
502
514
523
530
534
536
542
540
533
531
514
503
494
484
482
477
476
476
483
492
502
512
521
529
534
539
541
540
535
528
515
504
494
486
485
477
476
476
484
492
500
512
519
530
536
540
546
541
533
528
515
505
495
487
482
478
474
476
483
490
501
513
520
531
534
537
543
538
534
527
515
507
495
487
484
479
473
478
482
491
501
512
519
529
533
536
542
541
536
528
513
505
495
487
484
479
474
476
483
492
499
511
519
530
534
537
542
542
536
530
513
505
494
488
483
479
475
474
481
492
501
513
521
529
536
538
543
540
534
527
516
508
496
487
483
479
476
476
482
491
501
510
521
528
535
539
543
541
533
528
512
505
494
486
484
477
472
476
481
490
501
513
523
533
536
536
543
540
534
529
515
505
496
485
485
478
475
476
482
489
501
510
522
531
534
537
543
541
536
530
515
506
496
486
483
476
471
476
481
490
502
512
523
531
535
535
543
540
535
528
515
506
496
485
485
478
474
476
483
490
501
511
523
531
535
535
542
541
535
526
513
507
495
488
485
479
475
476
483
490
501
512
520
529
534
537
543
541
534
528
515
506
496
488
484
481
475
476
481
491
501
511
519
527
534
536
543
539
533
528
514
506
495
487
485
480
476
477
482
489
500
512
520
529
534
539
542
540
535
530
517
510
498
487
482
480
473
475
483
490
501
512
520
531
535
535
543
542
534
528
515
506
495
489
484
478
475
477
483
489
500
510
522
531
535
537
543
541
535
527
513
505
496
486
483
478
474
475
483
489
498
511
521
529
536
537
544
542
535
531
516
505
494
487
485
479
475
477
483
491
500
510
520
529
535
536
544
541
534
529
516
507
497
485
484
477
473
475
481
490
499
514
522
530
535
537
542
540
533
528
516
506
495
488
485
480
474
478
483
488
499
512
520
529
536
536
541
541
536
529
516
505
496
488
485
479
476
476
484
490
499
512
523
529
534
535
542
540
535
531
516
506
494
487
483
478
472
476
482
488
498
510
520
529
532
538
541
541
536
531
519
507
496
487
484
478
477
474
483
489
499
511
520
528
535
536
543
541
536
529
516
508
495
488
481
478
473
475
483
489
499
512
522
528
534
535
543
540
535
529
516
505
495
488
483
479
475
476
484
487
499
508
519
529
533
538
542
541
535
532
517
508
497
488
484
482
472
475
482
490
500
509
519
529
534
534
541
540
536
530
516
507
499
488
483
480
475
475
482
491
498
512
519
527
535
536
543
542
535
530
516
507
496
488
484
480
475
477
481
489
498
510
519
528
536
536
540
542
536
530
517
505
498
488
487
480
476
478
482
486
497
511
522
528
534
536
542
542
535
531
519
508
495
487
483
478
474
476
482
491
498
508
518
527
535
538
542
543
535
532
517
508
497
489
483
480
473
475
484
489
498
510
520
528
535
535
542
542
534
527
518
506
497
487
484
481
475
474
481
488
497
511
521
527
534
535
544
544
536
531
517
510
496
487
484
479
476
475
483
489
499
508
519
528
534
535
541
543
536
531
517
509
498
488
484
480
476
475
480
487
497
511
518
528
535
536
541
543
535
531
519
507
497
489
485
481
476
476
483
487
494
510
519
527
534
536
541
542
534
530
516
508
498
487
486
482
476
475
483
489
500
508
518
526
534
535
540
542
535
531
519
507
497
487
485
480
476
474
482
487
497
511
519
529
534
537
544
542
534
531
519
508
497
491
486
480
475
474
481
487
499
509
519
529
536
534
541
543
536
530
519
508
498
488
483
480
474
475
482
487
499
510
518
528
534
535
544
543
535
532
520
508
497
488
483
481
476
474
482
486
496
508
518
528
534
537
542
542
536
532
517
508
500
490
486
482
477
473
483
489
496
508
518
527
535
536
542
540
533
531
519
508
498
489
483
480
476
471
480
486
496
509
519
528
535
534
541
543
536
532
519
507
497
487
484
480
475
473
480
487
495
509
519
529
536
535
542
544
533
530
519
510
496
492
484
481
473
475
480
488
496
508
517
528
532
537
542
542
534
530
517
510
498
492
484
481
476
474
482
489
498
510
519
527
533
534
542
544
536
528
517
506
497
487
486
480
475
477
482
489
497
510
519
528
535
535
539
541
536
530
518
511
495
489
483
481
474
474
481
489
497
511
520
527
537
535
539
540
535
533
521
508
497
488
484
480
475
475
480
488
496
508
516
529
534
535
541
542
536
533
519
510
497
489
483
480
476
473
482
486
495
508
516
527
534
534
542
542
536
534
521
510
499
490
483
480
476
474
480
487
498
510
516
527
534
534
540
544
539
533
522
508
498
487
483
480
476
473
481
489
496
508
517
527
534
531
540
542
534
532
520
510
498
487
484
480
476
474
481
488
494
511
519
528
533
534
542
543
538
530
520
510
499
491
484
480
475
473
481
486
495
508
519
526
534
533
539
543
536
534
519
510
500
488
484
481
475
472
481
488
496
508
518
528
533
534
541
541
536
531
522
510
499
490
483
480
476
473
480
488
496
507
517
525
534
536
541
543
536
535
519
511
503
488
485
481
475
473
480
484
495
507
519
527
534
536
540
543
540
531
519
508
499
491
483
480
478
473
481
487
496
508
519
526
534
535
541
542
536
533
519
510
500
492
486
480
477
473
482
486
493
507
517
527
535
533
541
540
537
533
523
510
498
489
482
482
477
473
481
487
494
507
515
527
534
535
541
542
537
532
523
510
501
492
485
481
477
473
479
485
495
506
517
526
534
535
540
542
537
533
521
512
500
490
485
481
476
473
481
487
494
508
516
526
533
532
540
545
537
532
523
512
500
489
484
483
477
472
479
483
497
508
515
527
534
535
540
543
536
532
521
511
502
491
486
480
476
472
480
484
496
506
514
527
533
534
541
542
537
533
520
512
500
492
485
480
476
472
479
483
492
506
515
524
536
536
544
548
541
534
521
509
500
491
483
482
478
471
478
483
493
504
514
527
535
536
541
546
540
534
520
512
501
492
485
480
475
475
480
486
494
505
515
525
532
530
537
542
536
533
526
515
503
491
485
479
474
474
480
490
494
507
518
526
535
536
537
538
533
529
518
512
504
497
491
485
478
474
486
488
492
508
515
523
529
531
537
540
536
534
524
511
502
491
483
481
475
472
479
487
495
507
513
524
531
534
539
543
538
534
524
511
497
488
483
487
487
482
483
487
493
504
514
524
531
531
537
540
537
534
524
514
499
489
487
484
476
472
478
488
496
508
517
527
535
532
537
540
536
530
519
510
500
491
490
486
478
475
480
487
493
508
515
524
533
533
539
544
536
535
519
513
501
489
487
481
478
472
475
485
492
505
515
524
532
531
538
542
537
533
525
517
512
500
487
480
476
473
478
484
491
504
514
524
531
532
538
544
540
535
521
511
497
491
482
478
479
477
480
487
492
504
513
524
532
535
539
541
537
535
524
511
502
491
490
486
480
472
479
487
494
507
511
524
533
533
539
544
538
535
525
512
502
488
485
480
475
472
477
485
493
506
514
525
534
536
541
542
540
535
524
511
503
488
488
481
475
474
478
486
494
506
515
523
536
535
540
544
538
534
524
511
502
492
485
480
481
472
476
483
495
507
513
524
534
535
539
544
540
534
521
512
503
494
483
477
476
471
476
485
494
505
515
525
534
533
538
543
538
535
525
514
502
491
484
482
479
471
479
485
492
507
515
524
529
535
542
545
539
535
521
509
500
492
486
480
475
475
483
489
492
503
513
523
532
536
542
542
536
529
522
511
499
492
489
484
480
475
480
485
492
507
518
529
533
533
538
542
536
532
520
510
504
492
486
481
477
472
479
486
491
503
515
525
534
536
540
544
539
532
521
512
505
494
487
483
477
473
476
484
494
507
513
523
532
534
537
542
537
531
524
514
499
491
485
482
481
479
479
483
490
507
516
525
534
535
538
541
540
531
519
507
503
488
483
480
475
470
478
492
502
514
522
529
532
531
533
538
537
531
520
511
500
489
483
479
473
473
479
487
493
504
515
521
530
531
538
546
544
540
530
515
500
483
478
473
469
464
469
481
492
507
520
529
536
536
537
539
539
536
527
513
502
495
492
491
489
479
483
494
502
507
519
527
537
536
542
548
544
536
527
513
503
491
484
481
473
471
477
489
494
505
515
524
533
537
537
537
535
530
522
514
512
496
486
484
478
475
480
483
491
501
509
520
532
531
537
543
538
535
527
522
513
499
486
481
476
469
474
482
490
508
521
532
540
540
541
543
536
530
517
509
499
493
482
480
475
472
475
481
487
503
510
519
528
536
541
545
544
538
521
508
498
484
480
476
474
472
476
485
492
504
515
525
533
533
539
544
542
536
523
511
500
490
480
478
476
468
473
483
489
503
515
527
535
536
543
546
542
534
524
510
503
496
489
484
480
475
477
481
491
503
513
524
535
533
539
544
541
536
526
515
504
493
483
480
474
468
474
482
489
502
514
523
535
535
546
545
539
533
525
515
508
494
487
481
475
471
478
487
492
504
513
515
521
525
535
542
543
537
526
522
521
510
496
491
480
470
475
485
492
500
511
520
532
534
540
545
539
533
521
511
503
495
487
477
470
463
475
491
494
504
510
523
526
522
536
546
553
545
533
521
510
495
487
480
472
460
458
462
472
487
503
519
528
547
569
566
569
553
534
520
504
484
472
464
459
464
466
481
489
499
509
515
538
545
536
544
558
550
546
530
510
491
487
486
483
486
487
470
466
478
496
521
518
532
546
549
534
548
546
523
514
487
476
493
514
517
538
529
536
515
480
476
507
530
573
575
580
539
513
466
449
441
416
422
432
436
462
499
540
554
493
489
515
530
567
556
545
547
520
532
518
523
515
521
487
481
448
440
495
509
504
537
537
497
528
534
517
551
549
480
473
476
527
533
617
654
542
396
357
385
418
438
507
554
602
566
549
558
587
529
470
440
441
465
479
490
492
492
502
503
517
543
523
517
518
517
520
536
536
515
522
499
506
537
534
495
478
467
413
435
458
466
473
525
571
586
649
606
547
537
453
435
439
481
531
560
501
494
484
504
541
559
554
537
538
563
543
538
505
508
505
472
497
469
452
478
471
460
450
502
543
578
508
463
520
523
528
523
515
502
497
489
489
498
516
498
493
504
515
485
483
510
522
509
542
543
538
547
504
499
524
505
492
458
483
492
499
510
496
507
510
499
513
515
532
540
540
531
527
519
507
511
524
528
532
491
450
479
494
506
516
506
499
496
511
520
531
542
531
520
511
494
492
497
489
505
490
484
476
501
494
491
523
560
531
484
506
519
501
500
515
511
508
521
528
512
489
504
515
511
512
509
500
518
508
522
520
517
528
522
526
510
485
486
489
500
488
478
490
512
507
516
531
499
511
536
541
542
500
511
520
484
496
510
500
489
511
515
504
500
495
507
534
529
514
531
581
529
448
489
498
505
492
497
492
495
494
477
479
488
507
529
529
543
536
517
536
515
493
524
540
512
514
535
513
481
444
435
483
511
492
481
516
534
534
535
547
557
585
521
485
472
505
510
471
428
510
551
464
448
486
520
526
529
537
552
545
536
530
511
475
468
492
522
540
506
486
469
488
508
531
538
568
564
462
446
509
533
523
526
509
485
483
476
493
508
514
507
476
482
486
484
515
549
547
535
548
565
568
531
507
496
537
551
516
470
411
417
461
493
469
484
512
511
537
538
540
558
554
497
512
524
501
496
494
541
540
497
507
477
418
460
521
518
545
552
495
515
555
510
507
536
504
515
508
468
422
494
531
520
507
547
541
517
527
527
471
472
489
529
507
509
492
496
465
433
466
517
544
555
542
557
563
524
503
475
512
515
513
530
525
507
506
507
496
479
461
442
477
500
517
555
607
587
537
499
473
465
521
529
513
533
504
433
443
486
499
539
528
500
501
485
492
519
516
527
579
583
562
537
470
436
523
505
483
460
477
498
500
497
507
530
526
512
507
511
529
529
528
532
510
524
529
528
488
455
473
509
477
510
500
527
498
526
540
457
491
548
538
513
507
495
469
495
490
477
499
513
524
512
492
521
543
517
501
519
519
543
564
549
520
484
445
466
506
504
459
492
493
507
508
509
526
544
532
536
537
518
527
505
481
492
544
571
503
474
460
432
464
465
495
501
514
542
558
572
565
536
495
513
486
483
510
518
516
498
483
462
492
510
514
499
518
506
508
543
550
515
527
521
508
513
493
474
508
515
482
466
485
504
503
528
524
510
527
531
520
521
548
552
521
488
497
492
500
496
487
501
512
512
472
447
488
519
536
543
516
510
542
545
533
455
481
503
518
513
507
483
478
474
521
523
494
516
537
546
540
527
511
494
491
507
505
500
482
496
495
491
494
506
527
523
531
527
528
519
520
524
528
511
499
492
476
481
489
483
489
499
496
508
539
530
515
503
500
542
572
535
516
508
524
509
503
487
451
468
500
505
473
496
528
512
548
507
481
516
517
508
511
512
527
507
508
523
527
518
487
477
473
492
547
536
533
529
493
474
521
549
502
509
515
511
507
492
483
487
485
479
486
507
528
539
547
537
522
511
510
510
531
528
494
476
488
481
485
481
484
483
515
519
518
528
531
537
536
544
535
541
508
481
496
512
486
477
487
502
495
467
487
498
514
526
535
522
535
540
534
520
524
503
492
512
519
489
499
489
497
471
473
499
513
561
521
503
514
504
517
529
543
510
480
497
517
522
499
469
462
512
521
506
504
523
533
551
561
534
496
454
487
521
531
510
488
494
487
483
492
499
483
491
510
497
529
527
521
552
563
544
523
514
493
495
505
498
488
434
451
478
477
495
506
552
613
609
543
498
498
522
517
500
487
465
467
498
526
482
486
479
455
467
499
548
576
548
564
549
517
495
516
524
500
499
497
516
499
431
459
506
500
515
521
521
537
529
560
530
497
490
511
524
519
521
517
487
467
489
488
476
493
527
548
458
443
511
547
597
557
523
532
513
503
529
535
513
450
467
504
503
427
450
486
471
451
525
582
563
536
570
580
493
484
485
492
514
547
576
513
433
518
555
500
472
480
442
448
502
494
509
540
540
543
560
541
513
502
483
539
499
498
461
418
467
508
545
521
493
560
570
533
531
513
505
501
512
535
540
498
500
476
422
435
472
529
550
560
537
520
515
518
520
496
504
496
498
520
510
494
483
427
480
506
549
561
516
540
551
529
515
526
537
543
495
464
519
540
536
514
468
436
412
395
464
524
549
536
544
539
549
559
526
499
488
501
514
507
493
440
474
491
515
518
523
550
540
527
529
521
508
499
518
516
518
487
504
557
557
509
411
433
535
478
463
529
508
501
515
534
540
523
511
510
489
517
521
514
495
478
448
486
528
496
512
528
519
527
539
561
547
533
551
486
466
485
523
512
417
404
507
521
497
511
542
557
542
538
535
532
531
504
503
510
500
492
499
514
504
487
487
475
449
492
495
487
518
531
527
515
519
574
575
527
504
496
494
501
483
487
496
499
496
494
496
504
521
535
534
556
570
558
524
463
440
496
505
480
455
473
485
492
511
504
529
531
531
529
527
533
536
515
522
513
507
485
481
475
487
509
524
523
474
494
507
524
529
524
508
519
536
517
510
510
524
523
501
462
507
504
491
482
489
506
521
511
523
516
540
548
529
519
508
495
500
501
495
486
478
534
550
525
502
414
410
535
575
536
527
558
532
519
516
503
512
488
479
479
483
509
511
503
530
519
474
490
516
525
509
519
534
510
499
515
512
503
493
497
495
503
509
516
501
492
503
532
503
489
506
544
557
574
564
503
479
487
491
485
483
480
492
504
495
535
535
520
507
504
523
496
497
511
504
508
536
513
493
482
491
478
466
481
497
507
509
489
510
557
575
559
546
578
527
499
505
478
458
495
504
497
484
488
507
515
516
535
556
580
563
550
471
396
425
479
456
456
472
513
513
507
519
529
579
583
560
571
533
515
508
482
476
476
511
504
497
480
477
478
480
489
513
512
525
533
524
540
521
526
520
521
545
530
510
515
515
492
478
481
501
497
497
482
490
508
517
521
518
535
538
511
496
546
543
509
496
471
422
461
498
514
555
523
541
485
464
506
486
502
519
530
531
535
514
483
478
520
510
504
496
497
475
472
488
514
539
551
535
531
530
529
539
536
532
541
500
491
478
468
471
475
475
515
525
496
496
518
551
558
555
538
515
506
514
519
523
504
477
460
459
454
465
470
497
514
514
521
558
564
564
542
518
489
473
505
472
460
497
533
503
508
523
534
478
470
517
519
502
529
535
482
502
564
539
497
502
511
479
478
494
492
515
494
475
489
516
539
537
516
543
520
507
517
524
528
529
520
493
500
526
492
486
500
523
528
527
540
507
491
481
493
524
510
501
506
511
476
472
496
510
494
494
477
479
510
529
547
505
504
503
530
526
519
496
501
540
531
506
522
478
474
479
453
503
521
502
524
518
529
568
574
520
482
444
472
513
533
542
503
509
488
482
456
490
508
510
531
553
547
535
519
521
523
510
514
497
493
491
498
495
530
551
525
508
524
516
505
495
496
508
478
457
505
548
554
521
497
525
505
459
435
465
476
495
496
524
541
515
487
489
572
627
606
590
508
474
408
414
444
436
482
497
502
524
537
564
557
532
527
520
534
527
530
516
496
476
489
473
472
518
476
493
497
491
490
532
551
547
538
541
565
553
569
535
500
480
480
489
467
420
423
453
519
542
558
573
561
520
450
438
481
507
531
528
515
534
521
489
498
496
456
440
476
495
525
555
548
536
528
513
500
532
560
561
528
494
431
429
480
493
474
492
526
547
520
519
534
562
541
529
510
500
504
507
513
513
499
480
484
483
503
489
513
501
509
522
548
551
505
498
524
550
523
553
515
440
466
502
515
508
481
487
510
492
499
509
503
507
514
523
527
553
551
508
505
506
504
501
484
462
472
522
489
496
500
504
524
538
536
543
521
511
502
520
514
481
497
492
482
492
495
491
508
512
496
503
473
494
537
512
572
590
543
559
529
460
486
462
475
457
455
500
516
527
518
539
543
551
543
524
519
534
537
499
470
473
470
492
513
478
482
519
495
485
522
509
496
517
524
510
523
530
542
522
526
527
513
498
487
470
477
485
488
496
516
512
483
492
514
520
529
556
544
539
532
526
508
488
490
483
460
492
498
500
500
513
503
532
507
552
562
486
479
535
510
482
481
495
497
516
513
505
499
509
511
495
516
510
515
496
511
515
531
535
527
513
515
531
521
504
482
478
481
510
503
508
520
562
558
502
523
521
513
520
508
475
470
486
490
506
489
458
468
467
484
530
579
555
524
511
492
497
532
576
531
486
504
496
462
462
485
492
474
483
528
531
587
567
507
473
500
504
534
542
519
513
507
514
527
496
484
482
489
487
472
475
465
537
572
564
562
545
513
518
529
526
499
475
471
468
457
454
468
471
491
521
550
559
541
535
548
553
552
536
503
471
455
479
547
536
521
477
436
417
450
500
522
518
535
529
603
589
580
454
450
459
448
480
483
504
520
512
526
563
536
470
490
521
543
576
584
574
542
462
478
493
470
462
459
472
467
497
508
513
535
536
537
529
524
494
514
525
583
567
528
509
486
477
472
473
470
473
483
522
542
544
531
491
523
548
556
547
525
467
458
472
481
514
516
517
517
423
390
452
480
510
514
531
572
576
551
543
552
552
500
457
471
496
509
509
520
502
472
476
466
484
506
543
542
530
534
540
548
530
507
485
493
493
489
485
485
496
495
492
498
515
536
534
543
548
536
523
502
496
494
508
519
519
517
495
483
473
488
515
538
507
506
466
428
507
565
581
563
529
522
494
470
417
439
488
497
495
505
547
560
551
495
513
480
475
521
547
552
547
538
527
509
518
493
497
495
392
392
466
527
541
553
556
547
537
527
518
523
520
527
531
520
496
496
490
463
468
489
476
523
545
518
513
539
526
539
542
532
509
487
474
497
495
492
489
539
498
505
497
463
425
489
512
500
518
542
540
530
536
537
519
508
506
480
429
506
514
533
556
527
453
491
549
539
455
480
538
524
563
576
521
509
496
487
423
493
487
465
475
509
530
558
556
552
501
479
499
515
532
531
538
515
512
468
475
488
523
537
534
522
491
488
529
530
523
514
509
528
535
506
448
438
459
492
512
555
553
476
511
496
423
426
456
519
638
644
582
529
480
470
461
442
409
475
504
540
555
518
481
460
470
507
438
501
522
527
576
619
553
507
508
515
483
490
534
515
524
508
526
532
495
494
518
538
537
535
530
489
511
538
499
523
491
486
503
498
487
487
470
470
511
563
598
580
528
484
507
534
460
428
433
493
457
449
424
486
512
474
510
534
583
606
568
568
517
472
514
473
452
452
491
534
522
514
471
466
505
505
507
498
518
539
517
520
543
583
574
556
520
504
532
504
461
482
484
476
485
507
572
594
530
470
529
544
570
595
531
404
367
473
490
545
509
489
460
462
468
469
489
531
523
521
534
528
534
521
503
510
513
531
549
507
495
521
493
471
472
499
478
475
502
486
571
573
540
592
590
499
474
452
481
495
495
503
532
508
526
501
493
415
438
498
540
548
534
543
560
556
509
495
535
440
398
446
494
537
547
539
525
500
499
524
555
527
523
489
508
532
629
588
544
498
400
405
463
452
400
455
526
556
551
531
517
524
544
539
511
511
518
519
531
525
516
488
503
511
503
492
457
463
511
515
512
502
513
507
515
550
555
504
466
446
460
532
527
539
574
570
536
550
542
503
420
491
577
557
491
443
476
538
561
518
499
479
452
422
398
472
521
466
467
513
586
592
633
566
440
432
509
533
495
497
532
518
501
480
473
477
483
477
512
527
534
568
543
539
518
512
514
536
532
482
480
494
518
501
491
475
469
480
495
516
519
521
523
544
543
526
549
531
521
512
523
508
510
507
518
530
516
467
503
522
527
469
450
485
449
496
528
508
518
496
500
537
508
502
496
504
501
497
490
530
550
529
512
509
523
519
512
499
489
489
521
516
506
528
577
556
496
443
449
486
525
497
471
511
509
510
508
513
498
500
493
482
474
471
492
523
540
559
561
558
551
556
560
542
524
528
513
493
486
494
496
460
455
478
471
461
475
484
495
516
546
536
571
534
504
514
520
523
495
475
501
495
483
504
502
493
496
503
511
524
529
527
532
531
518
521
511
457
480
530
507
499
489
510
525
506
499
498
479
479
490
521
523
515
559
558
514
536
534
463
489
495
496
479
473
487
502
507
518
524
540
524
531
555
554
557
550
504
468
461
457
477
491
478
479
484
478
506
553
549
538
538
522
507
527
524
521
512
507
504
494
503
493
488
495
488
489
494
505
540
523
511
514
501
519
546
517
509
501
501
497
492
483
472
506
524
504
502
504
506
521
529
532
531
544
521
518
544
549
543
519
467
452
435
455
467
469
514
516
525
530
536
523
499
519
527
553
577
608
547
480
473
422
410
425
436
443
496
542
547
539
531
524
533
551
540
542
533
511
497
495
488
487
481
484
481
485
492
508
517
532
553
551
526
539
537
526
514
480
483
492
508
499
476
463
467
482
502
515
524
544
556
556
551
534
507
493
487
505
538
531
523
490
488
467
501
526
541
540
518
378
321
449
531
567
565
554
530
550
548
504
497
508
508
517
501
495
492
476
462
525
516
507
513
505
528
540
543
527
523
522
511
491
483
484
485
483
494
502
504
515
521
522
517
531
535
529
515
509
501
481
493
491
489
509
491
475
504
521
532
545
533
525
519
535
533
518
511
547
539
499
399
395
436
484
480
495
531
542
530
547
541
527
527
520
516
525
525
518
507
501
495
497
496
513
512
508
502
511
506
434
455
536
527
520
517
549
554
543
517
491
484
477
481
489
498
496
483
479
505
514
522
553
561
554
541
524
512
501
492
486
491
475
483
491
490
515
523
519
534
527
504
511
525
555
548
520
495
498
477
487
478
478
467
483
491
499
495
509
564
572
563
545
498
448
500
524
480
453
499
505
532
548
531
492
483
468
464
499
521
527
552
548
529
525
532
530
507
506
508
480
478
472
472
497
512
510
496
522
531
534
527
515
512
514
509
505
496
492
487
516
545
526
516
527
512
496
496
504
519
516
510
510
517
555
534
496
487
469
500
503
488
478
484
491
495
508
517
523
544
545
525
543
529
519
515
510
505
500
512
497
455
452
460
469
505
490
496
519
524
518
531
531
523
543
535
524
508
502
501
480
487
511
516
491
484
507
513
512
511
518
536
525
516
522
515
519
509
502
514
501
487
475
475
481
490
511
528
554
552
508
488
493
522
525
519
512
510
517
510
501
492
495
477
480
496
503
504
501
517
529
532
519
532
532
519
516
521
508
488
486
496
498
491
508
504
496
484
500
524
527
507
521
560
548
524
499
493
500
498
498
471
510
510
498
497
492
505
508
514
522
513
515
524
533
528
526
525
514
489
477
492
476
462
478
495
518
533
523
522
524
529
533
539
525
520
524
523
519
519
501
487
462
453
472
491
489
520
517
512
512
520
518
521
531
527
532
528
518
527
497
468
465
490
481
473
488
508
515
513
513
541
555
561
544
513
498
494
496
500
495
503
504
493
489
488
498
476
496
500
527
552
551
542
540
534
520
504
490
500
499
489
486
484
465
490
526
556
571
569
528
478
415
494
536
518
520
509
497
495
521
500
496
481
489
499
492
502
507
500
507
531
553
539
513
515
511
478
484
511
506
502
501
498
483
482
505
497
478
507
526
513
513
541
541
530
537
543
541
527
530
486
445
461
472
451
462
504
521
518
523
521
540
546
527
542
549
527
510
503
488
476
471
461
488
524
519
504
532
542
528
519
519
510
508
531
529
510
500
493
485
482
496
504
512
493
495
497
507
513
503
502
514
521
518
515
515
521
521
508
499
488
487
492
503
503
505
500
500
507
519
524
525
524
526
531
534
531
510
496
509
490
484
503
490
489
502
515
516
500
512
522
523
505
515
520
525
524
518
519
525
504
492
481
475
498
518
527
524
501
490
471
505
533
525
516
530
524
524
506
495
489
481
473
480
498
504
514
527
521
492
497
547
564
535
509
508
515
508
500
491
488
488
483
484
486
492
514
519
516
506
519
516
516
551
553
526
514
499
492
489
499
502
487
504
509
502
508
513
492
522
549
548
512
498
506
487
494
494
539
532
491
475
484
491
491
494
497
515
518
521
508
519
534
534
535
521
512
515
511
495
489
501
494
484
483
495
499
502
510
516
514
519
531
531
499
524
523
515
499
505
512
505
510
507
500
506
538
509
462
461
510
543
529
511
521
527
513
510
516
510
512
512
477
454
460
489
508
519
519
530
547
533
521
512
523
534
517
494
485
501
492
496
496
457
499
525
523
514
515
513
512
524
537
538
528
521
511
502
494
493
493
504
504
491
470
479
513
521
503
512
525
528
534
539
526
524
518
498
504
493
503
509
483
440
448
497
519
521
519
528
542
539
531
535
527
526
515
508
509
505
492
466
475
470
469
477
480
533
551
544
535
529
524
511
511
516
523
510
492
492
507
504
499
491
491
459
464
506
523
530
530
532
556
556
519
519
504
479
496
509
485
503
527
509
484
491
508
501
504
514
524
526
527
514
511
519
526
516
514
500
483
492
486
479
492
496
493
505
523
534
544
535
507
500
513
520
519
519
517
532
528
452
429
493
529
500
487
511
520
525
523
514
528
525
515
500
507
502
529
511
481
489
514
522
512
512
507
488
485
494
504
527
535
530
528
540
523
500
505
498
498
488
482
474
463
486
506
507
528
530
530
530
525
520
529
540
517
508
487
478
489
487
482
487
506
518
508
516
534
541
526
531
508
502
512
512
514
510
518
504
481
460
485
507
503
494
488
501
509
531
538
535
535
551
518
520
530
490
437
457
502
514
515
503
483
475
484
501
510
534
547
544
541
545
542
511
501
492
503
507
519
498
475
470
477
491
519
539
515
524
515
474
482
587
580
499
491
508
498
488
486
484
485
493
510
502
500
510
551
526
492
482
521
538
531
517
503
501
509
508
499
494
500
507
503
524
557
559
527
493
463
432
474
515
503
516
531
514
502
513
519
499
491
493
499
487
459
510
562
563
538
542
536
525
512
521
519
504
492
483
473
481
473
470
465
521
559
575
546
500
496
512
503
506
500
506
509
524
518
515
516
499
472
479
503
492
479
469
495
518
524
538
528
533
518
518
537
542
536
497
471
455
494
523
528
541
516
480
419
466
497
509
565
559
546
528
524
507
493
485
499
492
484
486
495
500
519
535
532
517
487
492
517
527
530
531
532
519
511
490
469
476
511
517
496
489
496
502
520
521
527
525
527
542
539
528
513
510
507
499
489
475
473
476
483
493
505
519
518
522
519
513
527
534
530
531
515
507
516
515
503
505
475
454
480
489
500
514
515
521
505
513
519
517
529
536
527
514
491
480
485
491
502
499
523
524
528
518
508
504
507
516
527
526
522
522
528
526
510
495
483
476
473
476
484
494
503
517
522
516
511
509
523
521
536
531
510
501
499
496
503
504
505
508
519
519
513
498
502
508
516
516
524
526
524
518
510
503
489
481
483
487
494
487
488
500
513
523
533
524
536
532
521
515
498
478
464
440
429
444
476
525
575
595
604
591
541
532
519
527
516
522
526
524
512
501
496
490
489
483
477
466
464
472
484
496
510
520
514
514
515
515
523
527
520
534
527
514
516
499
492
479
483
492
490
487
486
497
512
521
531
534
518
511
517
535
528
535
529
504
487
487
483
484
493
503
509
508
506
509
515
507
497
505
519
524
518
543
516
515
521
502
484
478
472
482
508
510
514
524
522
524
526
527
526
524
520
511
508
500
499
499
496
492
486
483
493
499
501
501
506
518
526
528
526
532
531
517
514
510
504
505
502
494
489
488
492
493
503
512
515
521
514
519
522
520
516
514
510
499
501
495
491
491
495
500
507
513
516
515
517
528
532
531
523
519
517
509
503
497
491
487
486
485
489
495
502
512
520
525
526
525
534
534
525
527
524
514
510
499
502
497
481
476
479
482
491
505
511
516
524
531
536
538
528
523
515
508
501
495
486
482
480
481
487
497
506
516
530
528
532
534
533
528
526
524
519
514
508
500
494
491
479
476
474
478
485
496
508
517
521
524
531
535
541
534
527
520
506
494
499
494
489
487
489
494
495
502
512
516
521
524
528
532
529
524
520
509
507
496
492
494
490
488
489
494
500
493
459
438
451
475
497
521
576
650
659
615
572
512
479
470
467
464
470
479
486
502
507
504
512
506
507
516
518
520
516
513
507
497
493
489
489
485
486
494
501
511
515
520
527
527
530
534
529
525
519
514
505
496
491
488
488
485
483
492
499
505
514
519
527
530
535
532
515
491
470
460
444
408
377
409
512
555
578
615
703
698
640
593
561
530
488
482
478
479
471
466
468
465
464
467
471
468
474
483
488
500
508
515
524
528
529
533
531
524
521
513
506
497
492
490
487
486
489
496
502
509
512
521
526
527
529
532
528
529
520
512
505
496
489
491
487
487
488
494
495
504
515
521
524
524
528
536
534
526
519
508
503
493
491
490
488
484
491
501
500
504
514
518
525
525
530
532
528
524
517
510
504
495
490
489
489
487
487
493
500
505
512
521
526
527
532
535
533
527
524
512
504
494
491
490
483
481
483
492
496
509
514
517
522
520
522
531
528
524
515
516
512
502
499
500
496
481
485
489
494
509
515
512
516
518
517
517
525
527
522
519
523
519
521
508
487
480
483
487
494
500
505
510
517
520
521
517
515
516
504
492
483
487
480
483
511
538
551
540
524
521
529
515
512
511
511
518
515
511
507
497
495
493
489
490
486
485
489
493
499
504
508
511
518
519
533
543
540
542
540
532
525
506
498
491
486
484
485
490
495
503
508
513
523
523
526
528
522
517
505
493
494
502
489
496
497
495
507
503
497
516
534
540
539
517
515
519
522
519
518
510
504
491
486
487
498
504
492
488
491
504
512
511
511
503
507
512
501
499
507
522
538
547
539
532
509
487
488
489
489
497
504
507
513
517
518
527
525
522
518
510
501
495
490
489
485
483
485
490
496
504
512
519
529
526
528
532
527
526
519
513
507
497
494
490
488
484
492
494
496
506
512
529
528
527
526
533
528
525
519
512
509
498
493
488
485
486
489
490
494
498
509
519
522
520
538
544
537
534
518
504
495
487
483
478
487
490
496
517
532
522
517
511
511
514
520
525
525
524
516
511
504
496
492
490
487
486
487
488
496
505
512
519
525
526
528
531
529
526
518
509
502
493
483
482
483
481
491
501
511
527
531
526
520
523
526
534
530
524
521
508
505
495
489
488
484
480
484
492
489
500
509
514
526
523
523
527
526
533
536
515
509
511
496
489
492
481
468
472
483
497
513
524
541
548
552
536
532
524
519
513
504
498
492
485
481
479
482
487
493
502
511
516
522
525
528
531
529
525
522
513
506
497
495
491
487
486
488
494
499
505
511
520
526
524
524
531
529
523
515
501
493
477
467
472
476
496
508
515
550
555
550
528
519
518
522
527
519
523
513
501
487
477
468
477
478
483
497
520
520
512
493
492
504
505
518
540
569
568
546
521
493
476
469
478
480
492
515
528
527
517
514
516
523
522
514
516
517
516
514
507
504
494
490
489
485
482
484
490
496
504
510
517
523
524
527
533
528
527
520
514
508
500
493
492
486
487
487
494
497
506
514
519
524
524
528
529
526
524
520
511
507
499
492
490
487
485
486
490
496
507
530
526
533
526
525
530
528
521
517
509
504
496
494
492
491
486
486
492
501
507
513
518
522
524
525
528
525
524
519
511
506
497
493
492
488
486
488
497
500
505
512
516
522
524
529
531
527
521
518
511
504
498
495
490
489
487
488
494
500
507
512
517
522
522
526
529
527
524
522
511
507
498
492
492
491
490
490
494
498
505
511
515
521
524
527
528
527
524
521
511
508
500
495
494
489
489
489
492
496
505
512
518
520
525
529
531
526
523
520
513
508
502
496
492
490
489
489
496
497
506
511
515
521
524
528
528
526
522
518
512
508
500
496
494
491
490
489
492
498
508
512
514
520
523
525
530
528
524
518
511
505
498
493
493
488
489
490
494
499
506
513
518
523
527
527
527
523
515
513
508
507
498
495
494
491
491
488
494
497
505
512
517
521
526
524
532
524
522
519
514
507
497
495
497
493
488
491
495
499
505
511
517
522
523
525
527
526
521
518
511
505
501
494
494
492
489
489
494
495
502
511
515
523
524
530
531
525
522
518
511
504
498
496
494
492
493
488
493
497
505
514
517
522
524
525
528
526
523
519
512
505
501
495
494
491
491
488
494
497
507
513
515
521
523
524
530
527
522
519
512
508
500
496
495
492
486
486
496
500
507
511
518
521
523
527
529
528
521
520
510
506
498
494
495
492
487
489
494
500
507
510
514
521
520
524
528
527
525
519
511
508
501
497
494
492
489
491
495
497
505
512
514
522
523
526
527
525
522
518
512
505
497
495
496
491
491
491
496
498
505
511
517
519
523
525
529
525
521
515
511
505
499
495
494
490
489
489
495
500
508
512
517
522
521
523
526
528
521
521
514
508
500
494
494
493
491
488
495
501
508
512
516
519
520
523
527
524
524
519
513
508
498
493
492
490
489
492
495
499
505
510
520
523
523
524
526
527
521
517
512
504
499
495
493
493
489
492
494
499
508
511
516
522
523
526
526
524
519
519
511
508
500
496
494
493
487
489
496
500
508
513
517
522
522
523
527
525
521
517
511
508
503
497
494
490
490
489
493
499
506
512
517
522
521
523
527
525
524
518
513
507
500
494
491
491
491
491
494
500
508
511
514
521
522
525
527
522
524
517
511
506
499
495
495
493
491
490
496
500
507
509
516
521
521
521
527
527
523
520
515
509
501
494
492
490
492
491
496
496
507
513
518
522
524
524
524
525
521
516
512
503
500
498
497
494
489
488
494
500
504
511
513
521
527
524
528
526
522
519
509
506
501
496
494
493
492
489
495
498
506
510
515
521
523
524
528
524
522
519
512
507
498
496
495
492
491
489
494
499
504
513
518
520
520
524
529
528
523
519
513
508
499
492
494
493
490
492
494
498
507
510
515
522
521
524
527
526
523
519
512
508
500
496
495
491
488
487
496
498
504
510
517
519
523
526
525
526
523
519
512
506
498
494
495
491
490
491
495
499
506
512
517
521
524
525
527
524
521
519
512
508
499
496
496
491
491
489
492
500
505
511
515
519
521
523
527
527
521
519
514
507
500
496
493
494
491
492
496
498
506
512
516
524
524
524
526
525
520
520
513
507
498
495
495
493
490
491
494
498
505
513
516
522
524
522
526
526
523
521
510
506
500
495
495
493
492
491
495
499
505
511
516
523
520
524
528
527
523
519
511
505
497
497
492
492
490
492
495
498
507
513
516
523
520
524
526
527
522
517
513
508
499
496
493
494
493
491
495
496
505
511
514
523
524
525
527
527
524
515
511
505
498
499
496
492
489
492
496
498
504
510
512
520
522
524
527
525
522
519
515
506
502
497
495
495
491
492
495
497
503
509
515
521
522
524
526
527
523
518
512
506
498
495
492
493
493
489
495
501
506
514
517
518
523
523
527
526
524
519
512
505
500
496
493
494
491
491
495
496
505
512
514
519
523
523
526
526
523
519
515
508
500
497
495
495
491
489
494
499
506
512
513
519
518
523
527
526
524
519
512
508
502
499
497
492
488
487
495
497
505
511
516
521
523
524
526
526
521
518
511
508
500
496
494
493
488
488
496
496
505
511
516
521
522
524
527
526
524
519
512
505
502
496
492
493
491
491
497
498
505
510
515
521
524
524
526
524
522
521
514
507
499
496
495
495
490
492
494
497
505
511
516
522
522
524
527
526
522
519
511
507
499
495
492
493
489
487
492
498
504
514
517
523
526
528
526
524
519
519
513
508
499
496
495
494
491
489
493
498
505
511
515
520
523
522
527
526
523
519
514
508
500
498
493
492
491
489
496
499
502
507
515
519
524
524
531
529
524
519
513
507
501
496
493
491
490
488
497
499
505
511
515
519
522
524
527
526
521
519
511
507
498
496
494
492
490
489
494
497
505
510
515
520
525
525
528
526
523
519
513
508
498
495
495
493
491
491
498
500
505
512
518
522
521
525
526
524
521
515
513
508
500
497
495
493
491
489
494
496
504
510
515
519
521
524
525
526
524
520
513
508
499
495
495
493
490
491
497
496
505
512
517
519
523
524
526
525
526
521
513
509
502
495
493
491
489
491
493
499
506
511
515
522
524
526
527
527
522
520
513
509
500
496
492
492
492
490
495
497
505
511
515
518
523
523
527
527
522
519
512
506
500
495
492
494
489
491
496
498
505
511
513
520
522
525
525
526
522
519
514
506
502
497
492
492
493
492
496
498
505
509
513
519
524
524
524
525
524
521
513
508
500
496
492
494
492
488
497
502
506
512
516
519
520
525
527
524
523
519
513
507
500
496
495
494
490
489
496
499
504
511
515
519
522
522
526
526
523
520
515
510
499
495
492
492
491
489
496
496
505
510
513
520
523
526
526
525
520
519
515
510
504
496
496
491
489
487
495
499
503
511
513
519
523
526
526
528
521
521
513
507
500
496
494
494
490
488
493
497
504
513
517
518
523
522
528
528
524
521
513
506
501
496
494
494
493
488
492
496
504
510
515
517
523
523
528
528
524
524
515
506
502
494
496
492
492
491
492
497
505
510
514
521
521
524
524
526
519
520
512
507
501
495
494
494
493
491
495
496
504
510
515
519
524
524
527
526
524
520
516
510
503
497
495
492
491
489
494
497
502
510
515
517
522
524
527
526
522
519
514
508
503
498
495
493
492
489
495
499
505
510
515
522
523
526
527
526
521
517
514
505
499
497
494
495
492
488
493
497
504
510
511
519
523
524
527
525
524
523
517
507
501
496
492
494
489
490
493
496
505
512
516
519
522
527
527
524
522
519
512
508
499
498
496
496
490
490
494
497
506
511
513
518
519
523
526
526
524
519
512
508
502
498
494
493
491
488
497
498
504
511
513
518
523
524
527
524
523
519
515
508
501
495
492
492
490
489
494
496
504
508
512
518
521
521
524
528
525
521
515
511
504
496
494
493
492
489
493
497
504
510
514
519
522
524
527
527
522
519
513
506
500
496
492
494
492
492
494
496
504
512
515
521
521
524
526
526
523
518
512
510
500
497
494
496
491
489
495
497
502
511
515
520
521
524
527
525
521
520
514
508
499
496
494
493
493
491
495
496
503
511
513
518
522
524
528
527
522
518
514
509
499
499
494
492
490
488
495
495
506
511
518
524
525
524
521
525
522
518
513
507
499
498
494
493
491
489
494
498
504
509
513
521
523
525
526
526
522
521
513
508
500
497
496
492
491
491
495
496
504
506
515
521
522
524
527
527
524
521
513
509
500
499
495
492
490
492
493
497
503
511
513
522
523
523
525
525
520
518
511
508
502
496
492
495
491
490
493
497
506
511
515
521
524
524
525
527
522
519
516
510
502
496
491
492
491
490
495
498
504
514
518
519
522
527
525
526
524
521
513
508
502
496
493
493
490
490
495
496
503
511
518
521
521
523
528
526
522
520
513
508
501
497
493
494
490
490
497
498
502
508
514
519
523
525
525
528
526
520
515
507
500
496
495
492
494
490
495
497
501
509
513
519
523
523
525
526
522
520
515
508
502
499
494
494
492
488
495
496
500
507
512
519
525
527
526
531
526
523
513
508
504
496
494
492
488
489
492
497
504
511
517
520
523
523
523
527
523
519
516
511
500
494
492
494
492
494
494
499
503
508
514
519
519
525
526
527
524
520
515
508
502
496
491
493
492
491
496
497
504
511
514
518
522
523
524
526
524
520
513
507
502
496
494
494
492
491
492
496
504
511
515
518
525
524
526
525
523
522
515
510
502
497
494
493
491
490
491
497
504
510
513
519
523
525
525
525
522
521
513
510
500
495
493
493
492
490
493
497
504
512
512
521
524
523
526
524
524
518
516
508
503
496
492
493
491
490
494
498
506
512
515
521
525
524
526
528
523
517
511
506
500
497
493
495
492
491
493
497
502
510
513
519
521
523
525
527
524
521
516
508
502
497
494
494
488
488
493
498
505
510
515
517
521
524
527
525
523
520
515
508
499
494
492
495
489
489
494
501
506
511
514
518
521
525
527
525
520
522
513
510
502
497
492
492
490
489
496
497
503
510
515
519
521
523
525
527
526
521
518
509
503
497
493
495
491
489
492
496
502
508
513
520
524
524
527
525
524
520
515
508
501
495
494
497
492
493
495
497
503
508
513
518
521
522
527
526
522
520
512
507
501
498
494
496
491
491
495
497
503
509
512
518
522
523
525
529
524
522
514
509
503
498
495
492
491
491
494
497
503
509
513
520
524
521
525
525
521
519
515
511
505
496
493
496
493
488
493
497
504
506
512
518
522
522
527
529
524
520
514
507
502
497
492
492
492
490
492
495
503
511
515
519
524
525
527
528
525
520
515
510
504
497
494
492
491
490
494
495
502
508
515
520
522
519
524
525
521
520
515
509
504
500
499
496
492
487
492
496
502
508
514
522
525
526
526
527
521
520
515
509
504
496
492
494
491
489
494
496
504
509
512
518
523
524
526
526
524
523
515
510
502
498
493
493
493
491
493
498
504
510
512
519
522
522
524
527
524
522
515
507
502
499
495
492
490
489
492
497
503
511
515
519
523
525
524
524
524
520
515
510
503
498
493
496
492
489
493
496
504
510
514
519
523
524
526
526
524
520
514
509
502
496
493
493
491
491
492
495
502
512
513
519
524
524
526
527
523
522
517
511
502
499
494
494
492
490
495
499
502
506
513
519
520
524
525
524
522
521
517
507
498
496
496
497
492
489
494
497
503
506
513
520
521
523
525
526
525
521
515
509
503
500
497
494
493
490
492
497
502
510
515
519
525
524
522
526
524
519
514
510
502
497
493
495
489
488
493
497
504
510
514
519
523
524
524
529
524
520
513
510
502
497
494
493
492
491
494
497
501
510
516
519
520
522
524
528
525
521
516
507
503
497
494
491
489
489
492
496
502
509
514
521
521
524
526
526
527
522
515
510
502
496
493
491
496
490
492
496
501
510
513
518
523
525
526
524
522
521
515
509
501
496
494
493
491
489
494
498
503
506
514
521
522
524
525
526
523
523
515
510
505
501
495
493
490
488
494
496
500
508
513
518
522
522
525
527
526
519
516
509
504
499
494
493
490
489
494
495
501
507
512
518
524
524
527
527
524
521
516
509
503
497
495
493
492
489
492
497
502
511
514
519
523
522
526
527
523
522
516
510
504
496
492
494
491
488
494
496
502
508
513
519
521
525
526
527
526
522
517
510
505
498
492
493
491
488
494
495
502
510
512
519
521
523
524
525
525
521
513
510
504
501
494
492
492
489
492
496
502
508
512
518
521
523
524
527
524
521
515
510
503
497
492
496
491
487
492
494
499
507
515
520
524
525
527
527
522
519
512
508
504
499
495
495
493
490
491
494
504
510
512
518
521
523
527
528
526
521
513
507
502
498
494
490
491
489
494
496
503
509
513
518
520
521
526
528
525
521
514
508
505
498
496
494
491
492
496
496
502
506
512
518
522
523
523
523
526
521
516
509
505
499
494
492
491
492
496
495
501
510
513
520
519
521
524
525
524
520
515
513
504
497
497
495
493
489
494
497
502
505
511
515
521
525
526
527
524
521
515
511
506
499
495
491
492
488
490
496
504
510
514
519
523
522
524
527
526
522
516
509
505
499
494
495
490
488
493
495
503
508
512
518
520
524
526
526
525
523
517
509
503
498
492
494
492
486
495
496
502
509
514
519
521
523
527
527
524
519
515
508
501
499
494
494
491
489
493
497
503
511
512
516
523
524
524
526
524
519
519
507
499
501
495
496
492
487
491
496
501
508
513
519
524
524
528
526
525
522
516
508
504
499
494
492
491
489
492
497
503
508
510
517
523
522
524
527
524
522
517
510
504
498
497
496
491
488
493
497
502
509
513
519
520
522
527
527
524
520
515
511
503
498
494
492
492
490
492
495
504
509
512
519
523
524
524
525
523
522
518
511
505
497
494
493
492
489
493
495
502
507
511
520
523
524
527
528
527
521
516
509
503
494
492
496
492
491
492
496
503
510
513
520
522
522
524
527
526
521
515
508
501
496
493
494
492
489
492
496
504
510
511
519
522
524
526
527
524
521
518
510
502
500
494
495
492
488
490
494
500
507
514
519
522
525
526
527
520
521
516
511
504
499
495
492
491
489
495
496
503
509
514
519
523
524
526
527
523
520
515
509
504
499
491
494
494
489
491
495
500
508
512
518
523
523
524
529
524
522
516
509
502
496
495
494
493
491
493
496
501
511
510
520
523
525
527
526
524
520
517
512
505
499
494
492
491
490
493
495
500
507
511
518
522
526
528
528
526
521
515
510
505
496
494
494
492
488
492
495
499
510
513
516
519
523
526
526
525
523
518
512
503
499
494
498
496
490
488
487
493
506
515
523
529
532
536
535
525
517
510
507
500
495
492
493
491
488
493
496
500
508
514
519
522
524
526
526
526
523
518
512
505
500
492
493
494
489
492
494
501
508
511
518
520
523
525
529
526
521
517
509
502
497
493
494
493
493
490
492
498
507
514
519
524
525
529
529
525
521
519
507
503
497
493
494
492
490
491
495
502
509
511
519
521
523
522
527
526
522
518
510
503
499
494
493
492
489
495
496
504
510
512
516
519
524
523
527
525
520
519
512
504
496
494
495
493
490
494
497
500
507
512
518
520
525
527
528
523
522
517
509
504
498
494
493
492
489
492
494
502
510
513
519
521
525
524
525
522
519
516
508
507
498
493
494
491
489
493
497
501
511
512
518
521
523
525
527
524
523
518
512
506
499
496
496
492
487
491
496
501
507
512
518
521
525
524
527
524
522
515
510
504
499
495
492
491
492
493
496
502
508
513
519
519
522
523
527
524
521
517
512
505
499
496
495
491
490
491
494
502
507
511
516
521
522
524
528
527
523
519
510
503
499
496
495
492
489
493
494
501
507
511
515
520
524
527
526
525
520
513
508
504
499
495
495
494
491
492
496
502
511
511
520
522
523
525
524
522
519
515
508
503
500
499
497
493
490
492
496
500
508
511
518
520
522
525
527
523
519
515
503
489
474
476
483
487
495
502
525
537
553
542
523
512
519
518
516
517
513
510
508
503
498
493
495
489
484
487
490
494
505
510
519
523
527
524
527
531
523
515
508
502
503
502
502
497
491
487
492
499
508
510
513
516
515
518
519
517
517
514
505
499
499
506
502
497
498
510
515
519
508
503
504
509
513
519
531
535
534
525
515
507
500
496
490
490
486
488
494
498
504
510
513
515
518
521
524
524
519
515
512
505
500
496
496
493
492
494
499
504
509
511
518
519
524
524
524
524
519
515
511
504
498
496
495
490
490
492
497
505
512
519
525
524
522
521
523
523
518
510
499
490
492
496
501
500
508
505
516
518
506
505
512
515
518
519
519
519
517
512
508
502
502
495
492
490
487
492
496
499
507
515
523
527
530
523
525
524
521
515
510
504
501
495
497
491
489
488
492
497
500
499
508
517
521
527
537
541
536
528
513
508
510
495
491
487
487
491
494
498
506
508
508
512
520
521
530
530
527
524
515
502
497
496
496
492
490
491
494
498
507
509
515
520
523
521
524
521
514
507
508
507
502
499
496
499
506
503
503
512
516
511
510
512
517
520
520
519
519
516
512
504
497
494
497
493
488
490
496
500
507
513
516
524
526
528
527
523
519
515
508
497
487
493
496
495
495
505
514
519
515
505
510
515
517
519
524
521
518
516
509
505
499
496
497
497
495
493
496
500
508
511
515
524
526
523
523
522
519
515
508
505
499
499
497
493
481
485
486
488
494
503
515
522
545
561
550
538
539
521
511
503
496
488
485
484
484
487
492
496
505
512
517
522
521
524
524
522
519
516
510
501
500
494
496
494
488
492
495
501
508
511
515
522
524
524
524
527
520
519
512
503
491
487
492
493
495
501
507
514
516
512
513
517
518
520
525
524
519
517
510
507
502
491
487
481
479
486
493
497
513
520
539
545
534
526
526
524
508
497
499
502
497
499
502
503
503
506
493
502
508
512
516
517
515
517
522
519
517
516
508
504
500
496
494
492
489
494
495
502
507
514
517
522
521
523
525
523
519
519
512
506
500
497
495
494
491
493
495
502
507
512
516
519
520
521
525
524
521
515
510
504
500
499
501
495
490
491
498
501
506
512
516
519
520
522
525
524
521
515
510
505
502
497
494
493
490
491
497
501
508
512
516
519
521
525
526
524
519
519
511
508
502
498
495
494
490
492
497
500
508
511
515
519
522
525
525
524
521
517
512
505
499
495
495
493
489
491
493
501
503
511
519
521
524
526
525
524
521
519
511
507
500
498
495
492
492
492
497
500
505
512
516
518
520
524
527
524
519
518
511
506
500
497
496
496
491
492
496
499
507
509
515
520
522
524
525
524
522
518
511
503
502
496
496
493
492
491
496
501
506
511
515
520
521
526
527
523
518
518
512
505
503
496
495
492
491
491
494
501
506
511
518
521
521
523
525
525
520
518
513
505
500
495
495
493
492
491
496
500
504
511
513
520
524
524
526
524
522
518
513
508
502
496
496
494
488
489
495
500
505
509
516
521
522
524
527
527
522
517
510
504
500
498
494
495
490
492
494
499
506
511
516
519
521
522
525
524
520
519
514
505
500
497
492
494
488
491
497
502
506
512
518
519
520
522
527
524
521
520
513
507
503
496
495
492
491
492
496
499
505
509
518
521
520
525
526
526
520
519
513
506
500
498
495
493
489
492
496
501
506
508
516
520
522
525
527
524
521
518
512
505
500
495
495
491
489
491
496
500
507
512
517
519
524
523
525
525
523
518
511
505
499
496
494
491
489
491
494
500
506
510
516
520
523
524
528
527
519
518
512
508
503
495
495
492
491
491
496
500
505
510
516
521
522
524
526
526
523
519
511
508
502
498
495
494
490
491
495
497
504
509
516
519
524
523
526
525
520
519
512
505
499
497
495
493
491
490
495
498
509
510
515
519
521
523
525
523
523
519
513
506
502
499
494
491
489
490
495
499
507
510
517
522
523
524
527
527
522
517
512
504
499
495
495
493
494
496
495
498
505
508
516
520
519
524
528
524
524
521
512
503
499
496
495
492
488
492
494
499
504
511
516
518
522
523
527
527
523
519
515
511
505
496
496
492
488
491
493
499
504
507
515
520
521
526
527
526
524
521
514
508
500
495
493
491
488
488
494
496
505
511
517
519
521
526
527
526
524
519
510
504
500
494
492
491
490
492
494
498
503
512
516
520
521
522
528
529
528
523
515
508
502
494
496
492
489
491
493
499
504
508
515
519
522
524
528
527
524
521
513
507
500
496
493
491
489
493
495
498
506
509
517
520
522
524
527
527
523
521
514
505
500
497
493
491
489
491
494
498
504
511
515
517
523
523
527
527
522
520
512
505
500
492
494
491
488
492
495
501
507
512
519
523
524
524
527
529
525
518
510
504
498
496
496
489
488
490
494
500
503
511
517
525
523
525
527
527
524
519
512
503
500
494
495
490
492
491
494
500
507
511
516
522
524
525
527
526
524
519
513
506
500
496
496
493
489
489
491
496
506
510
516
521
523
525
526
524
521
516
510
505
503
496
495
493
490
492
493
500
507
511
515
523
522
524
527
527
524
519
512
505
501
496
492
493
488
491
495
499
505
512
518
521
523
524
527
526
523
520
514
507
501
496
494
492
489
491
492
496
502
510
514
520
522
525
527
527
522
520
515
507
501
496
494
492
490
491
493
499
505
511
515
521
523
523
527
525
522
521
513
506
501
494
496
493
491
491
496
498
505
511
515
521
524
523
527
526
524
518
510
507
502
497
495
492
489
492
493
499
504
510
516
520
524
522
528
527
523
518
513
507
502
496
493
493
490
489
495
498
505
510
515
521
521
527
525
526
522
519
515
507
498
497
494
492
490
490
494
497
505
510
517
521
524
524
529
527
524
519
514
504
499
498
499
492
489
489
494
498
507
509
513
520
524
521
525
528
524
519
511
505
500
496
495
492
489
489
496
499
504
508
516
522
524
523
527
528
523
520
514
507
498
493
494
494
488
489
493
497
507
512
515
522
525
524
527
526
523
519
514
508
503
495
494
493
491
489
495
501
505
511
516
519
523
523
524
527
521
521
513
505
501
493
493
491
490
490
492
500
506
511
517
521
523
525
527
528
524
520
511
506
501
495
493
491
487
488
494
498
505
512
516
519
524
526
528
526
521
519
515
507
501
495
495
492
491
489
495
496
502
510
515
521
524
524
527
527
523
520
514
508
502
496
494
494
490
489
494
498
504
510
516
520
524
523
525
527
523
521
513
509
503
497
496
493
488
489
495
496
504
512
515
521
522
523
527
525
523
517
513
507
500
496
494
494
487
491
494
499
504
512
516
519
526
524
526
527
525
519
512
507
499
496
494
494
489
488
495
499
507
512
517
521
521
524
527
527
522
519
512
506
501
496
495
493
488
492
495
496
504
510
516
521
522
523
527
527
522
520
514
507
502
496
496
494
489
489
492
498
504
510
515
519
524
525
527
527
524
521
512
506
500
497
495
494
489
489
495
497
507
511
515
520
523
524
527
526
522
519
513
509
504
496
492
491
489
490
496
499
504
512
516
519
522
526
526
526
521
522
515
506
500
496
495
492
489
492
495
500
504
511
516
519
521
523
526
528
522
519
514
506
500
496
492
489
489
488
495
498
507
511
516
519
524
527
527
526
525
521
512
508
500
497
496
492
489
487
494
498
504
508
515
519
525
525
527
527
522
522
515
507
500
496
492
489
491
490
495
497
505
508
516
521
523
523
525
526
525
521
515
508
502
496
494
492
489
492
495
500
504
510
514
518
522
524
527
527
520
520
513
505
499
494
495
494
489
489
495
498
507
512
517
521
522
523
524
526
523
520
513
507
501
494
496
492
490
489
494
497
506
511
513
519
524
527
527
525
522
520
513
508
501
498
493
491
490
490
493
498
504
510
516
521
522
524
524
526
522
519
515
507
501
497
494
494
491
491
493
497
506
511
518
519
522
524
525
527
525
520
513
505
502
496
492
493
489
492
494
497
505
508
517
519
521
522
525
524
524
519
510
506
503
496
494
492
491
490
495
499
503
510
518
520
523
525
526
529
523
519
513
508
503
495
494
494
491
491
494
496
504
509
515
522
523
524
526
527
521
519
512
510
502
498
494
492
489
491
494
499
504
508
516
520
521
524
524
526
523
521
514
508
503
497
495
496
491
489
495
495
504
512
515
520
523
525
525
527
521
520
514
506
500
497
495
492
489
490
492
496
503
509
518
520
522
523
527
527
521
520
515
508
503
499
495
494
491
488
493
497
504
509
516
520
523
523
528
529
523
520
513
507
502
496
494
492
490
490
495
498
503
510
515
520
524
524
528
527
523
520
515
507
501
497
496
495
492
491
494
497
502
506
513
520
522
522
525
527
523
519
514
506
501
496
496
494
490
489
496
499
505
511
513
520
524
524
524
526
522
521
513
506
501
494
496
496
491
490
493
496
505
510
515
521
522
523
527
527
520
519
512
508
500
495
494
494
493
491
495
498
503
508
515
520
524
524
525
527
523
521
513
509
499
495
496
493
488
490
494
497
504
510
514
521
522
523
527
527
522
520
515
507
501
496
494
492
491
489
494
497
503
510
514
519
523
524
526
527
523
520
515
508
501
497
495
494
491
491
494
497
504
509
515
520
523
523
525
528
525
523
513
508
499
497
495
495
488
489
491
499
506
509
513
520
521
523
527
527
523
520
515
506
504
497
496
494
490
490
494
497
501
508
515
522
524
523
525
527
522
520
513
506
504
496
495
494
489
491
493
496
504
508
516
522
524
526
525
524
524
522
514
507
503
497
494
494
490
489
492
497
503
508
516
521
523
525
525
527
523
520
514
508
501
493
496
492
489
489
495
498
505
509
513
521
525
525
526
528
523
520
514
508
500
496
493
494
489
490
494
497
505
509
516
521
524
525
527
527
521
519
515
507
502
496
494
493
489
489
494
496
504
508
514
520
524
525
526
529
522
522
514
508
503
497
493
491
488
489
492
499
505
508
515
519
521
525
526
528
524
520
512
507
502
497
494
492
488
491
493
495
503
509
515
519
521
524
527
527
523
521
514
509
504
497
495
493
489
490
493
496
503
509
514
521
525
526
525
529
523
519
516
508
502
495
493
492
491
489
492
497
504
511
515
517
523
524
526
526
526
521
514
508
501
497
494
492
490
488
494
498
505
508
514
519
524
523
526
529
521
520
513
507
500
498
495
491
490
489
493
499
504
510
513
517
523
524
527
526
525
521
515
511
503
499
495
491
490
489
493
496
505
510
516
520
523
525
527
527
525
521
512
507
499
497
494
493
491
489
494
498
503
508
514
520
523
524
526
524
521
521
514
507
501
496
495
493
491
491
495
497
503
509
515
519
525
525
526
529
522
519
513
508
499
497
496
493
490
490
494
498
503
509
515
520
522
521
528
529
523
520
514
509
501
498
495
494
491
489
494
497
504
509
513
518
522
526
527
526
523
520
514
508
500
496
495
494
491
489
494
497
503
507
514
520
523
522
524
527
525
524
515
508
504
497
495
495
491
488
494
498
502
509
514
519
520
524
526
527
524
521
513
505
501
496
496
491
489
489
495
496
504
510
516
521
524
526
525
525
523
523
515
510
505
498
492
493
491
487
492
497
504
509
514
520
520
525
529
527
523
518
514
509
504
495
494
496
490
489
494
496
502
509
513
521
524
523
526
527
524
521
517
508
501
497
494
494
492
488
494
499
503
510
513
516
523
524
523
526
524
520
514
511
502
497
496
496
491
488
494
497
501
511
516
519
523
522
526
527
524
522
515
506
502
497
497
495
491
489
495
497
500
507
512
519
522
526
526
527
524
519
515
508
501
500
495
490
488
490
496
499
503
509
514
519
524
526
525
528
524
523
515
507
502
496
498
493
492
489
492
495
502
508
513
519
522
523
525
529
526
522
513
510
503
497
494
496
491
489
493
496
503
508
515
520
522
519
526
527
524
521
514
507
502
497
494
493
489
487
494
496
502
508
515
519
523
523
524
527
524
521
515
508
503
497
496
493
492
490
492
497
505
510
514
520
523
523
527
528
522
522
515
507
502
497
495
494
491
489
491
498
504
509
513
517
524
526
524
527
525
522
515
508
504
497
494
493
491
487
491
497
501
510
516
519
524
525
526
528
523
520
515
509
502
496
494
493
492
492
496
495
501
511
514
522
524
523
526
527
521
521
513
507
504
499
497
495
492
489
492
496
500
509
515
518
524
523
527
527
524
521
515
508
507
498
496
493
489
489
494
495
502
509
514
517
523
522
525
526
525
523
514
511
505
498
496
493
487
486
493
495
503
508
513
520
524
523
526
528
522
522
517
508
503
499
496
494
490
488
494
497
504
509
514
516
524
523
524
526
523
520
515
511
506
497
495
493
490
489
491
496
502
509
514
519
522
525
523
528
524
523
515
509
502
497
495
491
489
490
493
497
502
509
513
516
522
525
525
528
522
522
515
509
502
496
494
494
490
489
492
494
501
510
515
519
524
520
524
528
525
523
514
508
506
496
495
494
490
489
492
497
503
509
513
521
523
524
525
528
524
520
517
510
504
496
495
492
491
487
492
495
505
508
515
517
524
522
525
527
523
523
515
507
502
499
496
494
491
487
492
497
504
507
513
517
521
524
525
525
522
524
516
511
504
499
491
495
492
490
493
497
502
507
513
516
521
520
525
530
526
520
518
510
503
499
495
493
492
490
492
497
502
508
513
518
522
524
525
528
524
519
516
510
503
496
493
491
491
491
495
496
503
507
513
515
523
525
527
529
523
520
516
508
501
497
494
494
489
488
495
497
503
510
514
519
524
523
527
528
523
521
517
510
502
498
494
492
489
487
495
497
504
508
513
517
523
522
523
526
526
520
515
509
503
500
495
492
489
491
495
498
502
509
511
517
523
524
526
527
524
524
514
509
503
498
495
494
491
491
492
496
500
508
515
520
524
520
525
527
522
520
513
509
502
499
495
496
491
489
492
497
502
507
513
518
524
524
526
527
524
520
516
508
501
496
495
494
491
489
494
496
502
511
515
519
521
523
524
528
523
523
518
509
507
497
494
492
492
489
492
495
502
510
512
520
526
522
527
527
523
521
516
511
504
499
495
493
489
487
493
496
500
508
514
519
520
522
524
527
524
524
515
510
504
498
495
494
492
486
494
495
503
509
512
517
524
524
525
529
525
521
516
509
503
499
496
493
490
489
492
497
501
509
514
518
524
524
526
527
521
521
515
510
505
498
495
494
493
489
489
494
497
505
513
520
525
524
524
527
526
521
515
509
504
497
496
496
492
490
495
497
501
508
513
517
523
523
527
528
524
522
516
508
504
495
492
492
489
489
493
497
502
507
515
521
521
524
526
530
524
521
516
510
504
498
495
495
491
490
491
496
499
509
513
519
523
523
523
528
524
524
516
511
504
497
496
493
492
490
492
496
501
508
516
516
523
523
526
528
524
520
517
509
502
498
496
492
492
490
491
496
503
508
512
519
523
521
524
526
523
524
515
512
507
499
497
495
492
487
491
497
502
507
513
519
523
526
528
528
524
519
517
508
503
497
495
492
492
488
493
496
501
507
512
516
521
523
523
528
526
523
519
508
508
496
497
492
492
490
493
494
501
509
511
518
523
524
526
528
525
522
516
508
503
497
495
492
491
488
492
496
500
509
514
519
522
521
524
528
527
523
518
510
505
500
496
493
493
489
489
496
502
507
515
518
521
524
525
527
523
521
515
510
508
500
495
491
490
489
492
498
502
507
513
518
521
523
525
528
525
521
516
508
503
499
496
492
491
488
492
496
502
506
514
518
524
523
526
529
525
522
518
508
504
499
494
492
492
492
492
496
500
508
514
516
523
524
526
528
525
519
517
508
505
500
495
493
490
489
491
494
501
508
512
519
524
523
525
526
524
521
517
510
503
499
493
493
492
490
492
495
501
508
515
516
525
525
527
529
526
520
515
508
503
499
494
489
489
487
493
496
501
510
513
518
523
523
525
529
524
523
515
511
505
499
495
493
491
488
492
496
498
509
513
519
523
522
526
528
523
523
517
510
506
500
497
491
490
489
491
498
502
508
512
516
523
526
525
527
525
521
515
509
504
497
495
492
493
487
492
495
500
505
513
519
522
525
525
529
526
524
518
508
502
497
493
493
490
487
492
495
500
505
512
518
522
523
525
527
522
521
517
511
506
498
494
494
494
490
491
497
500
507
512
518
521
523
526
530
524
521
516
509
507
497
494
494
491
491
491
495
500
508
515
519
521
524
526
528
527
522
516
510
504
498
495
492
490
491
491
495
503
508
513
516
523
522
526
526
524
523
517
512
503
498
496
495
492
489
491
496
502
509
513
516
522
523
526
528
524
523
516
511
506
499
496
494
491
488
493
495
501
507
514
517
523
521
524
527
524
521
516
510
504
498
495
495
492
488
491
494
500
508
511
517
522
524
524
527
526
522
518
511
506
499
496
492
491
489
491
496
501
508
512
519
521
522
525
529
524
522
515
511
504
502
496
492
492
487
491
495
499
508
511
519
524
524
527
528
524
523
519
509
503
496
496
493
491
490
494
494
501
508
513
519
522
524
526
529
527
524
515
509
504
497
494
494
492
488
490
496
499
507
512
519
524
524
525
528
525
522
516
511
505
496
496
494
488
489
490
494
499
508
513
519
522
523
526
531
524
522
518
511
506
498
493
491
490
489
492
496
501
507
514
519
524
523
525
528
527
523
518
510
504
497
495
492
489
488
492
496
499
507
513
517
520
523
526
530
526
523
519
509
503
497
495
494
494
489
491
496
499
507
513
518
521
525
524
528
526
522
518
511
504
498
493
495
492
488
489
494
500
510
512
519
523
522
526
530
524
521
518
512
507
499
494
495
489
488
489
495
500
505
512
517
521
521
524
528
527
522
521
508
504
499
495
494
491
489
491
496
499
506
513
519
525
523
526
525
524
522
518
511
504
498
495
495
493
489
494
497
499
505
512
518
522
523
525
527
524
522
518
508
505
499
496
494
491
489
491
494
500
507
513
518
523
523
527
528
526
524
519
511
506
499
495
494
492
489
491
496
499
508
513
518
523
521
524
528
525
522
516
511
505
499
495
496
491
488
489
494
500
506
512
515
523
521
525
528
526
521
518
511
506
499
495
494
494
488
491
496
500
507
512
518
521
523
525
528
526
522
517
511
507
500
493
493
491
489
492
493
498
508
511
516
522
524
527
528
529
525
517
508
504
499
496
494
489
488
491
494
500
508
515
517
523
522
524
527
526
522
518
510
505
499
497
494
490
488
491
496
501
508
514
517
523
523
525
527
524
523
518
513
503
498
495
494
492
489
493
495
498
506
512
516
519
522
524
526
524
523
518
512
507
498
497
495
493
489
491
496
499
508
511
515
520
523
526
528
524
522
517
511
506
498
496
494
492
489
491
495
499
506
511
516
523
522
526
527
528
525
519
511
506
501
496
496
493
488
487
494
499
506
511
517
522
521
526
525
527
524
519
513
506
497
496
493
492
488
489
495
499
507
512
517
524
521
526
529
527
524
517
511
505
497
494
493
492
489
491
496
498
504
511
517
521
523
525
529
525
523
518
512
501
497
495
494
492
489
492
495
499
505
513
516
522
523
528
528
527
523
518
513
504
499
497
495
491
488
492
495
500
505
513
518
522
523
524
526
527
522
518
511
507
499
494
493
492
491
490
496
499
507
511
515
523
523
525
528
527
524
516
509
505
499
494
493
492
489
490
495
499
506
511
518
523
523
526
526
524
523
518
510
504
501
495
494
492
489
491
496
499
506
511
517
522
523
525
528
525
524
519
514
506
498
494
492
491
490
491
495
500
507
513
515
521
521
524
526
526
524
518
511
505
500
494
492
492
492
491
494
498
506
512
517
523
520
525
528
528
523
519
507
503
498
495
493
491
488
492
497
501
508
512
518
525
525
525
527
527
523
517
512
505
502
496
495
492
487
490
496
500
508
511
517
521
522
527
526
526
523
518
511
505
500
496
492
491
490
490
494
498
507
511
517
523
526
525
529
526
524
517
509
507
498
493
492
491
486
490
496
502
506
511
517
523
525
524
526
524
524
519
512
505
499
496
495
490
488
491
495
498
505
510
517
521
522
525
528
525
521
519
512
506
500
496
494
492
488
491
495
500
505
512
516
523
525
524
528
529
522
518
512
504
500
496
493
491
488
492
497
500
505
512
517
523
522
527
527
527
522
518
511
505
499
496
493
490
492
490
494
499
506
510
514
523
523
523
527
527
523
520
513
507
498
495
494
488
490
491
496
499
504
511
516
522
524
527
528
527
523
519
511
507
500
495
494
491
489
491
495
497
506
511
515
520
522
524
527
527
523
518
515
505
501
494
494
490
489
489
496
498
507
511
518
519
523
526
524
526
523
519
510
504
500
496
495
491
491
490
496
499
503
510
516
524
522
524
530
527
524
519
510
507
497
497
493
492
492
491
496
498
506
510
516
523
524
524
525
523
522
519
512
507
499
495
493
492
488
491
496
501
507
511
516
523
523
526
527
528
524
518
511
507
500
497
492
491
488
487
497
497
505
510
518
524
524
525
528
526
522
519
512
505
500
496
492
491
489
491
496
500
505
511
517
521
524
524
527
526
526
519
512
504
499
496
494
492
489
489
494
496
505
510
515
523
522
525
527
526
523
519
510
507
503
497
495
491
489
491
493
499
504
510
515
520
523
524
524
525
523
518
515
505
500
496
493
491
488
490
497
498
506
512
517
522
525
524
529
526
524
518
513
505
497
495
493
491
488
489
495
497
505
510
516
522
521
526
527
527
525
520
514
504
499
497
491
489
489
489
495
498
504
512
515
522
523
524
527
529
526
519
511
506
499
495
492
492
489
488
494
499
506
511
515
520
524
526
527
528
523
523
512
510
500
496
491
493
487
490
495
498
507
511
515
519
523
523
527
526
524
520
512
508
500
497
496
492
488
489
493
496
504
511
515
523
523
527
527
527
524
518
512
505
499
497
493
491
490
490
494
497
506
512
515
523
524
525
528
527
522
520
512
504
500
496
491
492
490
490
495
499
504
511
516
522
523
525
530
526
524
519
513
506
501
495
493
494
488
489
496
500
503
512
515
523
521
524
527
526
523
519
511
507
502
496
496
492
490
491
495
498
504
511
517
520
522
525
528
528
525
519
514
509
499
496
492
491
488
488
492
496
504
511
517
521
524
526
527
528
524
519
513
507
500
495
494
493
491
489
496
498
506
509
516
520
522
525
527
526
524
518
513
506
502
497
493
492
488
489
494
499
506
510
516
523
523
526
527
526
523
520
512
504
503
495
495
491
489
489
495
496
504
510
517
520
523
526
525
526
524
519
515
504
501
496
496
492
491
489
495
498
505
512
515
521
521
525
527
525
524
520
512
506
502
497
492
492
491
488
496
497
502
511
517
522
521
523
526
526
522
518
515
508
500
497
494
491
492
489
494
495
506
509
514
523
524
525
527
530
525
520
511
505
499
498
492
492
490
490
494
499
506
511
515
523
523
523
527
527
524
520
515
505
499
497
495
493
489
490
495
500
504
512
515
523
523
523
526
528
523
519
511
507
499
496
492
491
489
490
495
498
508
509
516
523
524
525
526
525
523
521
514
505
500
497
494
491
489
489
496
497
505
507
515
520
525
524
527
528
524
520
512
510
501
496
493
492
488
490
496
497
504
511
515
523
520
525
529
527
526
522
513
506
499
495
493
492
489
490
496
499
504
509
515
521
522
524
526
527
524
521
513
504
500
495
494
491
491
490
494
498
504
512
516
521
523
523
526
527
523
521
512
509
502
495
493
491
490
490
494
496
504
510
515
522
520
523
527
527
523
519
513
509
501
496
495
491
488
488
494
499
506
509
514
521
522
526
529
530
525
519
513
507
500
498
494
491
491
488
494
498
504
508
515
520
523
524
525
527
526
521
513
507
501
497
490
492
490
489
494
497
503
510
514
521
522
525
529
526
526
521
514
510
499
498
493
492
491
491
496
499
503
511
513
521
524
524
526
526
524
520
514
508
502
495
493
494
487
487
494
496
502
509
516
522
521
524
528
527
526
521
514
509
502
497
493
494
489
490
495
497
503
509
515
520
523
523
524
527
523
518
515
508
503
499
495
492
489
489
495
495
504
512
517
521
524
524
527
528
524
519
513
508
502
497
494
493
491
489
495
497
504
509
513
519
521
525
528
527
525
520
512
508
498
498
494
493
490
488
494
498
502
511
514
522
522
524
527
527
522
520
515
509
501
497
491
490
489
490
496
495
507
508
516
520
521
522
527
525
525
519
515
509
503
495
492
494
490
491
493
497
507
509
515
519
520
526
526
527
525
522
513
508
499
498
494
493
487
489
494
498
505
508
515
520
523
524
527
530
524
520
515
507
499
496
496
493
491
491
493
497
503
508
515
520
524
524
526
528
524
519
515
508
501
499
493
493
492
488
495
497
503
510
515
522
523
524
526
527
524
520
513
507
502
497
493
492
489
487
497
497
503
509
514
519
524
527
525
527
524
521
514
507
502
498
492
492
491
489
495
496
504
511
515
521
523
524
525
526
524
519
514
507
501
499
492
491
489
489
495
497
504
509
515
520
523
523
526
527
523
520
512
507
503
497
497
494
490
490
494
496
504
508
515
521
521
526
526
528
524
519
514
510
500
496
493
493
489
492
495
499
504
510
515
521
522
520
524
527
524
521
516
509
500
497
494
492
489
488
495
497
504
510
515
520
523
524
527
528
527
522
513
507
501
496
495
493
490
489
493
494
504
512
516
519
522
525
526
527
524
522
514
508
502
498
493
492
489
488
491
496
504
508
515
519
522
525
527
527
524
523
515
510
500
498
492
493
492
489
494
495
505
509
514
521
521
526
526
527
523
519
513
509
503
497
494
493
489
489
491
497
503
509
516
519
523
525
526
526
525
522
516
509
503
497
495
491
491
489
495
497
504
509
516
519
523
524
525
527
526
521
512
508
499
498
492
494
488
490
493
494
503
509
515
521
522
524
527
528
524
521
515
510
502
499
496
494
489
487
494
496
501
508
515
521
522
526
526
527
523
521
518
508
503
498
492
492
491
491
494
495
503
512
513
519
521
524
527
528
526
521
513
508
504
499
494
491
488
488
494
496
504
510
514
522
523
523
525
529
522
517
513
510
502
497
496
493
489
489
494
498
502
511
515
522
524
524
526
527
524
521
514
508
503
496
492
491
489
487
494
497
502
509
514
520
524
524
526
527
524
519
515
505
500
499
495
495
491
491
494
494
502
508
515
521
523
523
525
528
525
523
515
508
500
497
493
492
489
487
494
496
503
510
513
521
523
526
524
528
525
519
513
510
502
498
495
492
490
489
492
499
504
509
514
521
521
522
526
530
524
522
515
509
504
499
494
492
491
487
493
498
504
508
514
520
524
522
524
527
524
519
514
508
504
498
494
493
490
489
493
494
501
507
512
518
522
524
526
528
526
522
516
510
504
497
495
493
492
489
492
497
504
508
513
521
521
524
527
528
526
520
516
510
503
498
496
494
488
489
495
495
504
508
514
520
521
522
525
528
525
521
515
508
502
497
493
493
488
487
494
497
505
508
512
519
521
525
526
529
526
522
514
508
502
497
493
494
488
487
494
497
504
507
513
521
525
525
528
526
525
519
514
507
500
499
495
494
491
489
491
498
503
509
515
521
523
525
528
528
526
520
513
507
503
499
495
493
491
488
494
497
503
507
514
521
524
524
528
529
522
518
512
506
502
499
492
493
491
489
495
496
504
510
516
520
524
526
524
527
527
522
516
511
503
498
495
493
487
488
493
497
501
508
514
519
523
522
524
528
525
520
517
509
503
499
495
494
489
489
493
496
502
508
512
519
521
523
529
529
526
523
517
510
504
499
495
493
490
489
491
495
503
511
512
520
521
522
528
528
528
520
516
508
503
499
494
493
492
488
492
496
502
508
514
519
521
523
526
527
526
521
517
511
503
498
491
492
490
488
492
494
498
510
516
520
521
528
530
527
525
522
513
508
501
500
499
500
493
488
491
496
499
507
513
520
523
525
521
519
519
519
519
512
509
505
492
482
476
479
490
493
505
527
545
542
532
521
524
526
524
521
513
505
497
494
491
491
491
487
492
494
497
502
508
515
519
521
518
524
525
531
528
519
505
505
496
496
499
492
490
482
490
498
510
519
532
534
531
544
535
515
507
500
498
495
482
488
493
492
489
480
475
485
502
524
536
539
554
567
550
537
521
512
506
502
493
491
486
479
482
485
487
496
504
515
516
510
504
503
521
518
517
516
526
529
527
521
513
496
491
490
477
488
501
505
525
544
542
544
535
524
504
494
485
484
488
496
487
485
489
494
507
510
513
516
519
536
543
536
532
514
511
504
497
499
504
512
494
481
475
467
471
471
489
512
520
540
559
554
570
575
561
542
532
521
494
477
487
491
496
501
502
489
495
507
486
489
483
497
497
482
477
492
517
544
550
535
527
553
540
511
495
456
455
475
518
541
544
550
541
508
473
444
423
419
433
475
497
532
551
538
542
534
498
480
495
497
492
525
571
603
585
544
498
490
479
448
460
509
524
543
521
496
482
506
528
533
541
540
524
526
530
490
481
467
492
500
522
531
526
526
519
493
508
526
525
540
564
530
447
423
468
535
534
506
473
457
448
463
488
491
502
520
548
564
571
558
535
508
514
500
472
444
451
483
461
437
452
465
475
484
535
559
588
577
508
459
496
567
587
578
542
532
458
460
482
479
489
487
503
492
505
567
591
599
596
571
557
536
527
519
542
517
497
473
471
488
488
468
469
470
506
498
500
510
518
520
507
502
526
532
534
544
543
519
437
453
471
459
469
488
490
505
525
526
558
559
525
513
507
536
540
540
504
425
433
479
500
487
491
514
510
478
490
539
517
536
531
508
524
543
534
536
515
509
497
493
484
473
485
508
524
502
520
497
502
505
523
532
517
523
526
523
504
471
479
501
486
481
485
528
518
524
491
491
505
524
531
521
544
520
497
489
508
511
500
499
497
490
496
498
499
502
518
524
529
538
542
544
538
513
509
498
489
486
476
486
496
502
507
501
494
504
523
525
516
508
518
530
546
540
522
499
468
477
503
523
517
487
484
487
487
486
518
546
537
513
504
484
497
529
546
519
505
502
488
496
500
495
494
513
512
517
512
519
517
503
501
508
501
503
520
527
520
496
501
469
490
494
499
507
502
510
512
518
528
543
548
552
544
544
524
492
463
467
498
508
482
478
480
486
495
534
556
560
547
524
482
480
514
518
531
502
455
473
513
518
490
472
484
496
512
515
509
512
518
550
535
541
533
529
504
497
500
508
488
497
495
488
490
492
502
518
547
541
512
489
517
535
525
522
505
480
497
498
494
489
508
520
513
460
465
487
518
534
547
529
541
547
534
487
501
524
532
510
498
510
486
467
445
484
502
503
520
533
515
522
533
538
541
536
509
493
511
506
500
489
467
461
481
490
489
504
529
542
545
516
509
496
507
496
519
521
515
517
492
487
504
497
493
511
532
513
521
534
530
508
511
513
511
514
540
553
514
518
539
478
404
434
475
467
483
503
546
537
526
538
551
565
541
525
527
508
472
482
518
525
478
430
459
499
489
521
519
512
507
500
493
499
531
543
549
562
556
539
516
511
477
473
479
477
473
471
493
498
514
525
518
521
570
529
491
523
552
531
507
492
484
486
518
504
482
534
573
519
491
484
438
474
540
534
503
504
487
489
500
503
514
497
512
501
495
531
537
511
511
535
497
508
501
506
536
562
518
479
504
531
516
496
487
445
450
516
519
512
515
501
455
427
496
506
532
601
594
546
503
479
542
567
571
519
505
537
546
498
474
511
475
505
519
466
416
438
485
510
502
505
505
495
487
514
530
512
524
526
530
535
518
512
522
527
527
484
501
495
531
543
531
497
451
443
448
476
513
544
539
543
512
523
527
496
505
494
508
541
540
510
521
483
460
484
532
521
537
523
432
472
556
546
526
507
520
519
521
514
509
496
478
460
483
499
492
508
551
543
542
532
513
505
515
508
487
471
457
499
503
525
523
512
570
547
488
493
484
476
499
513
506
529
505
503
519
526
513
509
500
502
481
477
501
513
504
483
505
511
517
513
520
530
539
522
532
553
556
519
488
498
483
472
485
471
504
518
519
517
507
507
542
531
496
499
539
530
528
517
481
484
456
449
492
462
477
503
523
520
516
529
551
555
571
541
519
511
487
497
506
494
477
487
507
524
520
489
470
504
522
509
481
502
539
539
540
543
508
508
496
481
477
458
460
510
546
543
530
520
512
515
512
520
526
548
557
547
480
429
460
500
492
494
489
480
483
519
488
515
549
559
518
518
520
518
518
521
517
485
501
512
516
517
526
529
467
434
434
497
508
509
559
539
530
546
544
549
539
492
472
471
478
455
478
494
497
501
522
530
525
532
542
545
540
516
497
489
485
494
491
502
531
524
508
498
504
493
486
506
531
556
553
545
521
490
500
508
486
482
487
494
503
508
475
473
483
481
499
524
518
479
524
551
560
593
591
550
507
472
424
458
462
458
494
504
512
505
493
494
534
526
533
532
537
519
545
557
487
477
491
506
503
472
481
475
497
498
503
530
572
564
560
535
451
478
495
504
537
505
498
531
540
515
496
476
479
500
503
504
494
521
527
525
524
512
491
492
498
507
490
506
504
488
511
521
517
472
481
521
536
549
534
510
504
554
523
501
507
487
472
477
486
484
521
518
500
503
503
526
533
550
532
492
463
497
527
490
470
500
518
534
517
501
518
549
550
517
509
559
540
459
460
431
457
506
516
539
555
519
513
502
511
517
514
500
496
470
489
522
542
555
536
511
467
505
546
565
528
542
523
497
483
488
484
496
415
433
462
491
524
558
548
540
524
508
518
518
500
476
466
481
444
464
506
537
516
510
518
520
503
538
556
563
557
556
588
579
516
487
495
479
471
476
464
480
484
508
493
506
521
499
506
520
541
545
530
512
510
522
522
504
508
476
456
448
439
443
492
498
510
537
534
533
530
544
551
510
508
506
489
506
529
503
490
494
497
475
463
496
537
559
616
575
576
538
489
477
470
487
463
459
484
486
475
488
488
492
504
509
502
534
568
559
538
553
561
526
522
519
490
505
528
476
473
480
434
449
515
529
517
545
551
529
520
519
514
525
508
514
502
481
465
494
467
462
483
499
549
560
527
512
524
511
536
515
504
496
476
494
501
474
499
515
512
487
472
470
525
568
545
543
564
533
492
512
535
499
494
502
512
483
487
467
451
486
504
490
494
540
530
560
553
535
529
541
522
521
526
522
532
490
427
428
474
467
489
526
539
522
557
571
544
520
484
465
502
504
493
493
495
507
493
500
497
480
467
524
509
498
542
568
532
511
509
512
530
510
485
502
505
508
524
504
483
480
510
505
521
517
479
490
547
551
525
520
520
503
518
515
498
486
513
514
512
511
453
420
467
510
520
512
516
537
534
552
557
540
508
507
518
515
527
536
500
504
518
423
437
474
473
509
513
526
528
547
569
565
542
547
492
452
462
437
447
478
468
509
509
531
568
571
543
502
519
550
546
514
485
479
498
502
506
511
477
420
439
512
502
519
551
552
560
547
555
534
532
488
475
486
488
505
495
478
469
467
503
492
505
545
542
550
550
562
530
505
512
508
529
515
468
462
495
510
491
496
495
494
467
532
566
541
532
507
462
471
477
494
538
525
487
513
514
496
496
494
518
489
463
497
536
534
527
535
554
548
534
512
495
485
485
485
486
495
501
492
483
498
526
505
529
533
529
524
524
515
542
533
499
497
491
482
490
503
526
528
529
514
490
469
525
503
483
516
512
473
499
496
513
531
501
500
494
504
500
506
514
510
502
512
528
559
538
508
550
551
516
489
496
488
481
499
489
475
482
489
505
518
525
531
545
537
538
555
509
489
486
497
513
508
491
492
492
491
484
486
502
516
515
512
513
528
536
527
518
523
530
524
476
473
506
516
504
504
491
475
470
493
502
515
529
540
557
534
520
559
602
543
480
472
400
434
463
496
495
488
495
504
512
516
520
528
544
545
545
528
515
521
510
512
499
510
503
470
462
476
493
506
510
530
540
543
530
529
543
513
507
490
484
503
489
479
499
503
502
499
498
500
512
527
519
530
527
504
517
543
520
507
512
518
504
483
457
490
502
493
503
511
511
505
508
514
522
544
526
512
527
516
489
510
517
519
467
419
450
527
556
525
536
544
531
519
508
514
516
522
521
500
498
486
474
473
483
500
511
521
505
500
521
546
550
529
519
518
512
512
510
515
499
497
488
484
489
497
503
527
517
497
515
507
460
475
526
534
525
522
519
517
512
510
511
488
499
523
481
481
508
530
515
518
513
517
509
504
524
541
535
511
507
508
506
486
469
496
537
527
496
517
519
529
508
480
484
560
523
498
505
504
503
501
488
499
505
486
484
484
501
511
521
524
511
513
540
550
527
527
516
489
513
491
494
500
469
464
467
486
504
521
540
524
525
510
510
512
522
505
513
519
535
531
507
487
486
487
495
506
491
493
513
529
533
539
507
499
523
522
530
520
518
524
497
471
476
488
501
497
494
510
534
538
540
529
527
522
522
512
486
455
495
504
502
488
504
499
477
483
495
502
532
536
531
520
525
524
525
527
505
502
502
499
484
505
491
490
511
508
515
511
498
482
510
519
507
544
543
538
538
523
504
489
480
483
497
515
505
500
497
504
496
507
516
528
530
527
505
509
524
513
493
502
490
485
482
494
504
499
513
520
516
511
528
534
530
516
504
503
510
509
499
497
496
502
512
503
495
504
515
536
540
531
516
478
484
507
504
524
522
515
514
496
474
487
495
494
502
508
498
498
511
527
541
524
528
531
533
525
517
509
501
496
492
492
481
485
508
500
489
512
520
522
521
521
514
502
511
510
507
514
510
512
504
494
480
470
475
483
500
509
525
532
555
565
563
546
524
512
515
501
487
481
476
476
483
491
492
487
492
505
511
516
521
527
516
526
543
523
515
536
551
526
510
496
461
453
465
478
483
499
515
519
540
542
537
539
542
529
520
511
505
499
494
492
490
487
471
476
484
484
487
512
523
530
533
568
577
563
550
507
476
471
486
476
463
479
487
495
492
499
517
518
530
543
513
511
529
528
537
509
493
499
500
499
507
506
480
501
512
497
492
518
528
508
