515
510
508
506
509
511
511
512
512
504
502
503
503
505
502
503
510
508
511
511
516
514
510
515
513
501
490
487
496
500
508
531
523
519
510
507
511
507
506
513
509
512
512
509
501
502
509
507
504
505
515
511
501
499
500
499
505
502
504
510
521
531
539
527
519
519
511
502
498
496
498
495
493
494
499
501
510
508
513
518
522
519
518
513
506
510
509
504
503
502
502
498
501
510
507
498
496
500
503
508
509
513
515
515
512
505
506
508
507
506
508
505
500
497
500
508
507
514
520
519
519
522
521
519
510
508
516
513
507
499
502
498
499
500
500
503
507
509
512
513
515
517
517
519
521
518
513
509
507
504
498
499
496
490
487
498
504
515
516
521
518
510
511
513
508
509
518
516
516
509
506
504
503
506
510
512
513
517
524
522
524
525
529
526
519
515
514
512
506
506
505
502
511
515
513
510
514
507
503
507
512
511
503
510
519
514
506
504
502
491
490
486
487
487
491
498
503
502
510
516
514
513
519
522
518
519
515
514
517
508
499
492
493
495
494
491
497
503
511
514
519
524
525
520
517
515
510
503
500
494
482
484
487
493
496
505
510
518
524
526
521
525
530
527
526
519
517
511
506
505
499
494
490
493
494
500
504
510
503
503
508
520
528
527
524
526
526
515
507
488
488
491
488
500
497
493
501
511
519
528
539
542
528
524
517
506
508
513
505
498
494
495
489
492
493
504
512
527
529
517
526
527
522
522
526
513
503
509
511
505
499
497
487
476
465
473
490
510
521
539
545
543
539
531
527
522
508
485
491
491
484
475
476
485
511
532
526
520
530
534
544
547
529
504
496
500
505
492
496
506
506
487
480
492
495
495
493
497
503
505
530
527
539
532
535
518
495
492
507
509
504
495
499
498
484
489
496
497
497
517
534
547
537
532
517
514
509
495
483
484
492
497
503
508
502
499
496
507
527
531
511
505
495
522
533
546
543
555
553
523
495
474
451
413
455
470
489
511
539
547
557
534
523
521
518
524
509
512
510
501
481
471
474
484
491
502
514
529
521
518
526
531
539
548
539
529
528
516
499
479
463
465
473
471
471
496
521
530
535
535
536
530
524
513
503
501
502
499
512
505
505
522
518
522
494
477
429
454
502
515
500
519
538
550
554
553
542
516
501
498
490
484
481
480
487
494
504
516
527
523
526
529
527
529
531
528
506
489
485
481
483
505
517
508
492
485
491
504
525
517
523
537
540
526
531
523
518
521
527
507
467
460
447
466
488
514
535
512
515
513
522
526
526
527
523
522
507
498
498
491
504
500
517
527
530
525
511
482
482
495
501
504
511
510
511
505
498
500
509
506
516
516
507
496
494
504
511
513
515
514
521
520
519
515
507
500
497
491
507
507
504
499
508
503
501
495
502
507
515
517
519
525
524
521
521
523
518
512
505
503
504
499
496
499
500
502
502
497
506
513
529
531
528
526
520
522
517
509
496
483
478
486
489
507
522
512
495
487
512
517
529
539
536
531
527
515
502
496
500
496
495
485
476
482
492
505
514
516
529
524
518
518
525
528
529
532
515
502
499
500
495
496
503
503
495
493
495
503
504
517
523
527
522
511
526
519
493
516
527
508
489
475
481
493
508
531
534
515
513
518
510
506
512
511
516
522
516
511
505
496
497
495
497
499
499
505
509
515
517
513
514
514
513
515
518
516
513
508
504
499
494
497
498
509
515
523
515
505
499
502
507
511
518
520
516
512
504
499
507
498
502
505
497
508
512
507
504
511
515
525
522
529
536
524
506
492
490
498
494
499
505
502
497
497
496
504
511
519
517
511
505
508
515
526
525
521
514
499
493
484
476
500
506
509
507
511
511
512
504
511
515
524
526
525
520
520
515
511
512
509
504
499
491
497
500
498
503
511
519
530
525
521
524
525
525
516
507
499
501
491
486
484
491
496
494
503
507
510
514
514
516
519
519
517
515
511
505
502
499
495
502
505
497
497
499
501
502
505
511
512
525
537
534
526
521
516
515
505
495
489
494
491
486
498
508
516
520
509
506
509
523
523
521
540
534
529
527
512
511
502
498
482
472
476
491
496
501
510
516
518
523
526
531
529
522
520
520
510
506
495
483
487
488
490
497
507
514
511
516
530
520
516
520
526
523
518
507
503
498
495
489
490
493
504
507
511
508
507
503
501
505
521
528
529
524
518
510
505
504
492
490
488
492
498
512
511
511
502
509
515
526
537
535
531
529
516
507
495
484
485
496
490
482
493
490
495
501
502
505
506
511
515
523
522
532
524
519
506
494
489
486
487
489
499
496
508
512
519
521
527
525
534
526
528
525
516
512
507
503
503
501
500
496
495
498
504
506
508
509
516
519
526
527
526
524
518
521
510
507
496
491
490
489
491
486
497
503
514
516
515
510
517
511
511
513
515
510
506
504
502
501
496
494
492
496
499
500
508
517
521
522
524
519
526
523
517
511
507
507
502
497
489
478
475
494
508
519
524
537
529
519
521
508
522
521
517
507
494
501
503
503
500
501
501
498
501
508
519
524
527
527
527
520
520
515
513
511
514
514
512
500
493
491
493
495
495
502
501
502
509
521
523
521
528
516
515
514
504
506
504
500
498
496
494
493
500
509
513
516
516
511
519
521
518
525
523
515
509
504
499
498
496
497
499
499
502
505
509
513
514
515
521
515
515
511
513
511
505
505
503
503
500
492
499
506
519
509
504
505
503
511
517
507
513
508
511
510
510
508
500
491
495
499
503
506
506
506
512
516
523
522
519
515
515
515
514
509
507
505
508
501
500
500
502
505
507
513
512
515
514
519
520
519
520
517
516
509
504
501
502
507
499
504
497
493
488
503
504
499
505
513
529
541
529
521
515
497
502
500
499
493
496
494
496
501
502
506
510
512
514
516
518
519
515
513
511
509
503
500
501
504
512
510
506
509
511
513
510
516
515
515
518
519
516
511
509
507
507
503
503
504
500
497
507
515
521
526
516
504
505
508
509
500
482
489
507
517
520
519
522
520
516
516
518
511
508
508
511
516
521
516
511
508
511
512
518
508
499
497
498
494
492
488
497
500
518
524
512
507
508
510
517
534
525
516
512
504
502
495
485
481
485
492
504
508
509
510
512
508
508
505
504
505
505
500
502
501
505
505
497
493
496
502
505
508
513
513
516
518
508
505
508
510
512
511
506
500
504
519
508
499
500
503
502
503
499
504
510
524
511
509
513
510
505
502
501
507
510
511
512
511
515
515
517
515
516
515
521
528
526
523
519
518
517
517
514
511
515
516
509
503
499
498
504
508
508
508
509
512
512
514
514
512
515
512
514
513
514
512
515
514
512
513
510
510
511
505
502
503
507
512
516
511
520
531
522
515
512
505
508
510
511
510
507
499
500
498
499
508
509
511
508
511
507
509
511
513
516
514
511
508
508
509
516
514
516
519
520
519
512
499
488
489
493
509
500
498
505
508
512
519
525
527
520
500
487
482
476
488
497
504
512
515
507
496
505
504
509
522
521
508
503
500
498
503
512
516
513
508
507
504
507
512
512
509
509
510
511
513
514
512
511
510
509
510
508
504
504
507
505
506
512
513
526
513
510
509
509
508
505
505
504
506
504
504
504
505
504
506
507
508
509
508
507
507
512
510
509
512
513
511
510
505
508
504
505
503
501
504
504
511
512
513
515
512
513
514
508
511
510
508
508
504
501
501
505
508
504
507
509
513
511
509
509
511
511
511
509
511
508
510
508
508
510
504
504
504
504
508
512
513
510
510
508
506
508
503
500
501
506
519
516
521
528
519
507
503
505
508
504
505
508
511
512
510
508
508
507
511
508
504
507
508
509
506
507
505
507
511
507
509
510
511
509
511
508
511
509
509
512
515
510
511
508
504
504
507
495
497
496
497
499
507
508
503
511
516
529
526
515
508
508
506
509
509
504
505
506
506
507
508
507
508
510
508
511
508
508
509
509
508
511
510
511
507
510
515
528
524
520
516
508
491
472
482
483
483
492
503
515
523
525
524
520
518
513
519
515
511
510
516
507
495
499
505
508
509
509
510
512
513
512
509
509
509
511
512
510
512
510
507
506
509
508
505
509
512
510
509
509
510
512
511
507
508
504
506
508
504
507
505
505
509
507
503
505
510
516
519
515
514
511
507
503
496
499
500
506
509
509
514
512
512
510
514
509
512
509
511
510
511
508
508
508
510
509
509
507
508
508
508
510
511
512
509
509
511
510
510
510
507
509
508
508
505
506
509
507
507
506
507
507
509
509
507
507
509
510
509
512
515
511
507
507
508
505
507
509
508
506
508
510
512
512
511
511
510
509
508
508
515
521
515
510
505
498
491
491
497
503
508
510
509
516
516
516
517
515
511
510
508
503
499
501
503
505
511
512
514
509
512
511
512
511
510
510
509
509
509
513
511
509
507
504
503
501
505
505
507
508
510
509
511
517
514
510
509
510
506
502
507
508
508
509
507
507
505
509
509
507
512
512
508
510
517
515
512
510
510
508
506
506
506
507
505
505
509
509
509
507
510
510
507
507
507
510
509
515
513
505
502
501
503
511
510
507
509
508
509
510
509
509
509
510
511
512
510
510
511
509
508
507
504
504
503
504
507
517
516
517
516
506
506
504
498
498
501
504
511
507
511
511
510
513
511
510
509
511
509
510
513
511
515
512
510
509
508
508
508
508
508
508
505
507
508
506
508
509
511
508
510
511
512
511
509
511
509
510
510
504
507
505
504
508
510
509
513
512
510
510
508
505
507
515
517
518
515
513
511
496
485
494
500
504
516
516
516
503
502
495
500
498
496
508
517
524
523
518
511
511
517
516
510
511
508
507
503
498
503
510
515
514
513
509
504
506
507
508
510
508
508
510
512
511
510
510
510
511
516
526
525
517
508
499
498
495
487
483
490
504
508
510
508
508
504
502
504
512
511
513
512
524
525
518
514
509
508
509
502
503
507
508
508
508
510
510
512
513
522
517
512
514
508
508
502
493
495
500
498
502
508
508
512
513
512
517
516
520
518
508
497
499
506
506
505
507
506
508
515
511
510
507
507
508
506
509
517
519
513
512
508
513
491
493
505
500
500
507
513
517
520
521
511
508
508
502
499
509
508
503
509
507
505
507
512
511
515
518
512
507
506
507
499
499
498
505
508
514
515
527
529
520
512
509
507
500
503
507
507
508
505
505
507
508
508
503
500
498
506
516
527
526
522
521
511
500
494
475
484
493
491
503
509
517
519
530
519
514
513
510
512
510
514
514
512
512
510
508
509
505
504
505
505
504
505
511
512
511
516
514
519
524
524
521
517
516
496
484
482
476
488
495
485
500
506
505
505
514
517
519
520
523
527
522
519
516
514
511
507
504
508
510
508
508
506
507
507
507
508
508
510
510
511
514
509
507
505
504
504
504
500
501
499
504
514
518
515
510
511
516
518
518
511
510
508
508
507
507
508
508
504
504
501
501
502
507
510
510
508
510
509
508
507
508
510
510
506
513
516
513
510
507
505
508
500
501
504
508
514
512
515
520
521
511
509
507
504
506
508
505
502
505
504
510
508
508
507
508
509
510
511
512
513
512
511
509
507
506
508
505
504
503
505
509
508
508
508
508
511
511
512
516
512
511
511
509
511
509
508
507
505
503
502
504
504
505
507
508
509
511
512
512
512
512
512
509
512
511
507
504
504
504
506
505
506
508
507
508
512
512
511
511
512
514
511
508
509
508
507
504
504
505
503
507
505
507
508
510
511
511
512
512
511
513
512
511
508
505
506
504
505
504
507
504
505
505
510
511
512
513
512
513
511
512
509
510
508
507
507
506
505
504
506
505
506
509
508
512
510
510
514
510
512
511
509
509
508
507
507
504
504
505
507
507
508
508
504
510
513
511
511
512
514
512
509
512
510
507
507
507
505
505
503
507
508
507
509
511
512
512
512
511
513
512
510
512
510
507
504
504
503
505
504
506
506
507
508
510
509
511
513
514
511
511
512
510
511
508
507
506
507
503
505
506
508
508
509
511
510
508
510
512
512
514
513
509
509
504
507
506
505
504
502
505
504
506
507
510
511
510
513
513
512
515
510
509
510
505
508
508
508
506
503
505
505
508
507
511
512
511
515
511
510
513
509
509
507
507
505
504
504
507
505
508
505
506
508
508
511
511
510
513
513
511
511
508
507
508
507
503
505
507
504
505
504
507
509
509
511
514
513
511
513
512
511
510
508
507
505
504
504
504
507
506
506
508
508
511
512
512
513
512
511
513
510
511
510
507
507
508
507
506
506
508
504
505
508
511
511
512
512
512
509
511
510
510
508
506
507
505
505
506
507
506
505
508
507
510
511
511
512
511
513
513
510
511
509
507
507
504
504
504
504
508
507
508
510
510
511
511
513
512
511
513
508
510
508
509
508
504
505
504
505
504
506
507
509
511
511
512
512
512
513
512
508
511
506
508
506
504
505
504
502
508
508
506
511
511
513
512
512
511
509
512
511
513
508
507
505
506
506
505
505
506
506
509
510
510
510
512
513
513
513
512
510
509
508
507
508
505
503
504
506
506
506
507
508
511
511
512
514
511
511
512
511
509
508
505
507
505
504
505
504
507
507
510
510
510
511
510
513
511
509
511
511
508
508
508
505
505
507
505
505
507
505
509
509
509
511
511
512
515
513
512
510
510
507
507
505
505
505
505
505
507
507
509
509
511
511
511
511
512
515
513
511
511
508
505
506
505
505
504
506
507
504
507
508
510
512
510
513
513
513
512
510
510
509
508
507
507
502
505
507
506
505
506
510
511
511
510
512
512
514
511
508
510
508
507
507
505
504
503
505
506
505
509
509
511
513
512
512
511
511
511
509
510
507
507
507
505
506
507
507
504
507
508
508
511
512
511
511
512
512
509
510
507
507
506
506
504
504
504
506
506
507
507
510
510
512
512
512
514
511
512
511
508
509
505
507
507
507
506
508
506
508
508
509
508
511
510
512
512
511
511
510
509
511
512
506
507
506
506
504
508
504
506
508
510
512
511
512
513
513
512
509
508
510
507
508
505
503
505
508
507
509
508
510
509
510
511
512
511
512
512
510
510
509
508
508
505
505
504
505
508
506
508
509
508
508
511
512
512
511
512
508
511
508
507
506
505
504
505
506
507
509
508
508
512
510
512
511
511
512
511
509
510
510
507
507
504
505
506
507
508
506
508
508
511
510
512
513
513
512
511
511
509
507
508
506
504
505
505
504
504
505
508
510
511
511
511
513
511
512
512
510
509
508
505
506
504
505
507
505
505
505
505
509
510
510
510
511
515
514
513
509
511
507
505
506
504
507
508
506
507
508
506
509
510
509
513
515
511
511
511
511
508
508
509
508
504
505
505
507
508
508
507
511
509
514
511
514
512
512
513
510
511
506
506
506
505
508
504
505
505
506
507
509
511
510
511
510
513
510
511
510
509
508
507
508
506
505
504
505
507
508
507
510
510
511
511
511
513
512
511
512
511
508
508
508
504
506
507
505
505
509
507
507
511
511
511
509
507
508
513
508
510
508
508
506
507
507
506
507
507
506
508
509
508
511
513
512
512
511
508
509
510
509
506
505
505
506
503
506
506
511
510
510
511
513
511
511
512
511
512
509
510
504
506
508
505
509
504
504
505
507
508
510
510
511
511
515
511
511
509
511
508
509
508
505
506
506
506
505
505
507
506
508
509
513
513
510
511
511
510
511
508
508
507
506
505
505
505
505
508
508
508
508
511
511
512
515
513
510
511
511
510
510
506
505
503
505
505
504
505
506
507
507
509
511
511
510
511
511
510
509
509
509
508
507
507
507
504
505
508
507
510
509
511
513
512
513
513
511
512
509
508
510
505
507
505
506
504
504
506
505
508
509
512
514
513
512
511
514
514
510
511
507
507
506
504
505
505
505
508
506
508
510
508
508
510
514
513
512
511
509
510
508
507
506
505
505
506
505
507
505
506
510
511
512
513
512
511
513
512
508
509
506
507
504
506
506
507
505
508
508
510
511
510
511
509
512
512
512
511
509
510
508
506
507
504
504
506
505
507
506
509
509
510
511
513
511
513
511
511
508
510
509
506
507
505
505
506
505
506
509
508
511
510
513
512
513
511
512
513
510
509
507
505
503
507
505
504
506
508
505
509
510
512
511
511
512
512
511
510
508
511
507
507
506
507
506
506
505
507
508
511
509
510
510
511
512
511
512
510
510
509
506
505
505
505
507
505
507
506
508
510
511
512
513
513
512
512
512
510
509
508
507
507
507
506
506
506
505
507
508
509
510
510
510
511
511
513
512
511
509
507
508
507
506
504
505
503
504
507
507
508
508
508
510
510
511
512
511
513
510
510
508
508
506
503
504
505
504
508
509
511
510
510
513
511
512
513
514
512
508
509
506
504
506
504
505
505
506
506
508
509
510
512
512
511
512
513
512
511
508
510
505
506
507
506
505
504
505
506
508
510
510
509
512
512
511
511
511
511
510
511
507
505
508
505
505
503
505
505
508
508
511
511
511
510
512
510
511
511
508
510
507
508
507
507
504
505
504
506
506
509
511
511
511
511
512
511
511
511
508
508
509
507
507
506
507
505
506
505
508
509
510
511
514
513
511
512
511
511
510
511
508
508
507
503
504
504
505
507
508
508
508
510
511
511
512
512
511
511
509
510
504
507
508
506
504
505
506
506
507
508
511
510
513
513
515
509
510
510
510
510
507
506
506
506
503
505
504
507
508
511
511
512
514
511
514
512
511
513
507
508
508
505
504
506
505
505
505
507
506
509
510
512
511
509
511
513
511
512
509
509
507
506
505
506
505
506
506
506
507
508
510
510
509
510
513
512
509
513
508
508
508
507
507
506
503
504
505
506
509
510
510
511
512
512
509
511
514
510
508
509
508
507
507
504
503
506
504
508
508
509
508
510
512
513
511
511
510
512
508
507
508
506
508
506
507
506
507
505
506
507
509
510
512
511
512
512
511
513
509
509
509
505
506
506
507
505
505
507
507
510
508
510
512
512
511
513
511
511
511
509
507
505
505
504
504
504
507
507
508
507
508
512
511
513
512
511
512
510
510
508
504
505
507
505
504
507
506
506
510
512
511
509
511
511
512
511
510
512
508
509
508
506
507
504
506
504
507
505
508
510
508
511
511
511
513
511
511
511
509
511
507
508
506
506
505
507
504
507
508
509
509
511
512
510
512
512
511
511
510
510
506
507
506
505
507
505
505
506
508
509
509
511
512
512
513
510
513
511
511
510
508
509
506
503
504
504
504
508
509
506
507
511
511
511
513
513
512
511
507
507
508
509
507
504
506
507
504
507
505
511
511
510
512
512
511
510
510
510
508
508
508
506
505
506
504
504
505
509
506
507
510
511
512
512
511
513
512
511
511
510
509
508
504
504
505
504
506
506
507
511
509
510
511
511
512
513
510
511
509
508
505
505
505
505
507
504
505
507
508
510
511
513
512
513
512
515
510
511
511
509
506
506
507
506
504
503
505
506
506
509
510
511
512
512
509
511
512
510
510
507
508
504
505
504
506
507
508
507
508
509
508
511
512
511
512
513
511
511
508
509
506
506
508
505
504
507
505
508
508
508
512
510
510
512
512
510
510
510
509
507
508
507
506
503
506
504
506
509
510
509
511
511
513
511
512
512
510
511
509
505
507
507
507
506
504
505
508
508
510
509
510
512
512
512
514
511
511
510
507
511
507
505
507
505
505
503
505
509
507
512
509
509
513
511
513
512
509
511
509
507
508
507
507
504
505
503
504
508
509
508
511
510
513
510
513
511
512
513
510
508
508
506
504
503
505
504
505
510
509
511
510
511
512
511
511
511
511
513
509
506
508
505
505
508
506
506
506
508
509
508
510
511
512
510
513
511
510
512
509
510
507
507
504
505
504
506
505
507
508
508
508
511
511
512
513
512
513
513
509
511
508
505
506
503
505
503
505
508
508
510
511
510
511
510
512
511
511
510
510
510
508
506
504
504
504
505
506
507
510
511
510
509
511
511
512
513
511
512
508
507
507
507
505
506
504
507
507
507
507
507
511
510
512
511
510
511
511
513
510
511
508
505
507
505
505
505
504
507
506
510
511
511
512
511
512
513
511
513
508
508
505
506
506
504
506
505
506
504
506
509
510
511
511
514
513
513
511
511
510
507
505
508
508
504
504
504
505
507
509
510
512
509
512
511
510
511
511
512
511
510
505
504
506
505
504
507
507
507
507
507
510
510
511
512
512
514
511
510
507
508
509
507
505
504
507
505
505
507
509
510
510
511
512
512
513
512
510
509
508
510
507
508
506
505
507
504
504
507
510
507
511
509
512
510
512
513
513
511
508
506
507
507
505
503
506
504
504
510
508
511
511
510
513
512
513
512
512
512
510
509
509
506
506
504
503
503
503
508
507
509
510
514
514
511
512
514
512
511
507
511
505
505
504
504
505
505
503
507
507
510
509
509
511
512
511
513
513
510
509
505
506
506
505
507
506
505
507
508
506
509
511
513
512
513
511
512
510
511
508
508
505
505
504
505
507
504
504
509
509
510
512
508
512
512
512
513
510
511
510
508
507
507
506
505
503
504
506
508
505
509
512
514
512
512
511
512
511
510
508
507
508
505
504
505
503
506
506
509
509
508
511
509
513
512
511
512
510
510
509
509
508
507
505
504
504
506
505
509
507
511
510
512
513
512
512
513
512
509
508
508
508
506
505
505
506
505
506
509
508
511
510
510
513
511
510
511
510
511
511
509
507
505
506
503
504
504
507
507
510
510
510
511
512
511
511
512
512
512
508
508
508
505
504
505
505
506
506
509
509
510
510
510
512
513
514
512
511
511
509
508
507
505
506
506
505
504
504
507
507
511
510
510
513
511
511
510
512
511
510
509
505
505
504
505
504
506
507
508
508
510
511
510
514
512
512
511
511
513
508
508
507
504
506
504
504
507
506
507
507
510
511
512
511
512
512
511
512
511
510
507
507
507
507
504
505
504
505
507
507
510
510
509
513
512
515
512
511
510
511
507
506
505
504
505
507
503
505
508
507
511
511
510
512
508
511
510
510
510
508
509
508
506
506
504
507
504
507
510
508
510
510
510
513
509
514
511
512
511
511
507
506
506
506
505
505
507
506
508
506
509
510
512
515
511
514
513
511
509
508
508
506
504
506
503
503
505
505
507
507
509
510
511
513
512
514
513
510
512
509
508
506
506
507
504
505
507
504
504
508
509
510
511
513
512
514
512
511
512
507
508
506
505
507
505
505
505
506
510
510
509
509
511
511
512
512
511
511
512
511
509
506
505
508
504
503
506
505
508
506
511
510
512
513
511
512
512
509
512
510
508
507
505
507
502
505
505
506
507
509
511
510
511
514
511
510
511
511
510
510
509
506
507
505
506
505
504
505
508
508
507
510
511
511
511
511
512
512
511
509
506
508
505
504
502
505
506
507
508
506
510
511
513
513
511
513
513
512
512
510
506
507
506
508
505
503
505
507
508
508
507
512
511
512
510
510
512
513
511
509
507
508
507
507
504
504
504
508
509
508
510
509
511
511
511
513
513
511
510
508
507
506
505
505
504
504
507
507
508
508
508
510
511
512
511
512
512
512
509
510
509
509
506
505
503
504
506
507
506
510
512
512
513
513
512
511
510
511
510
508
511
507
506
505
506
504
504
507
507
508
509
511
510
513
512
515
512
509
511
507
507
506
507
506
505
507
507
507
508
509
509
511
511
513
510
512
512
511
509
507
508
507
504
505
504
505
505
505
508
509
510
512
511
515
513
512
511
510
511
509
508
507
505
507
504
505
505
505
509
507
510
508
512
513
514
511
511
510
511
507
508
504
505
508
506
504
506
504
509
507
507
509
510
514
511
511
512
511
512
509
507
507
504
506
505
504
506
506
509
508
509
510
512
514
512
511
510
511
510
507
508
506
505
508
505
505
506
504
507
508
509
509
515
513
513
513
511
510
509
508
508
506
505
506
504
504
505
506
508
510
511
512
513
515
511
512
511
509
507
508
506
507
507
505
503
506
506
506
510
509
509
507
510
512
512
512
512
511
511
510
507
506
509
506
504
506
506
505
510
510
512
511
511
511
512
511
512
510
510
508
508
505
505
504
504
504
508
508
507
510
511
509
512
513
511
513
511
509
511
508
506
506
505
505
504
505
506
506
511
507
509
512
513
512
513
512
513
511
512
508
507
505
505
505
504
506
503
505
510
508
510
511
512
513
512
511
514
511
511
509
507
505
503
505
504
504
504
505
507
508
510
510
512
512
512
512
512
510
510
508
509
506
504
506
504
504
505
507
508
507
509
511
512
513
512
511
511
511
510
507
508
507
506
508
504
506
507
508
508
507
510
511
512
514
511
510
512
512
511
507
506
505
506
506
507
504
506
507
508
507
508
510
512
513
513
513
511
508
510
509
508
508
508
504
503
502
506
508
508
509
510
511
513
514
512
511
510
509
510
508
507
505
504
505
504
505
506
507
508
509
512
510
512
513
511
512
513
511
510
509
507
504
504
504
504
504
505
506
509
508
510
511
511
513
515
512
512
511
510
509
507
507
505
507
506
506
506
507
508
507
510
509
511
513
512
512
510
511
510
507
508
507
506
507
504
504
505
507
508
509
511
509
511
512
512
511
511
511
510
508
508
505
504
504
505
505
505
506
509
507
509
511
509
511
512
511
512
510
512
508
508
507
504
507
504
503
508
507
507
509
509
511
513
512
511
511
508
511
511
506
506
505
507
507
505
506
507
507
509
507
509
514
513
513
510
511
511
510
510
508
508
505
505
505
504
504
506
506
508
508
510
509
512
510
512
512
511
511
510
509
507
506
504
504
504
504
506
508
509
509
509
510
512
513
511
512
512
511
511
508
506
503
504
505
507
504
504
507
510
508
511
512
512
512
512
511
512
510
512
511
509
506
504
506
504
504
505
507
508
506
509
509
511
513
513
512
513
512
510
510
507
505
505
504
504
503
506
507
509
508
511
510
512
512
512
508
510
510
510
508
510
506
505
508
507
505
504
506
508
510
511
510
511
512
512
511
512
510
510
508
506
508
506
504
504
506
506
508
512
509
510
511
512
512
512
512
513
510
508
507
506
504
504
506
505
505
505
507
510
509
510
512
511
513
513
512
511
509
512
510
507
507
504
504
504
505
505
506
506
507
509
510
512
512
513
513
512
509
510
508
508
508
506
506
505
506
507
505
507
509
508
512
512
514
513
514
511
509
510
508
508
508
506
507
505
504
505
507
510
507
509
512
512
511
510
511
511
509
509
508
508
505
503
505
504
505
507
508
510
511
510
512
511
513
511
511
512
512
510
508
508
505
505
505
504
505
504
507
509
510
511
510
513
514
511
513
512
508
509
506
505
504
504
506
504
506
505
507
508
507
509
511
511
513
512
511
512
512
512
509
506
506
507
506
503
503
504
504
509
507
510
512
512
512
514
513
511
511
511
509
505
507
506
505
504
507
506
507
508
507
510
511
512
511
510
510
511
509
511
505
504
508
505
507
504
506
507
508
508
508
511
513
513
511
511
511
512
512
511
508
509
507
504
504
506
505
503
504
508
507
510
512
512
514
511
512
512
511
511
507
506
505
503
506
503
505
505
506
508
507
509
509
514
514
513
512
511
512
512
507
508
506
505
504
504
507
503
506
509
510
511
510
511
513
512
511
511
512
512
508
507
508
506
504
504
506
507
507
507
507
509
512
511
512
510
512
511
510
508
508
505
507
505
504
505
510
506
508
507
509
511
511
511
512
509
511
512
510
510
507
510
504
504
505
504
506
507
507
510
511
510
508
510
512
512
512
512
511
510
508
508
504
504
505
505
504
506
508
510
511
508
512
514
515
512
512
511
511
511
507
506
507
504
504
502
506
505
507
510
508
510
512
512
515
512
511
508
511
511
508
504
505
506
508
505
507
505
508
510
510
512
512
513
514
511
513
511
511
510
507
508
507
504
505
503
505
505
507
510
511
510
511
510
513
513
511
511
510
510
507
506
505
506
506
506
507
504
508
511
508
508
511
512
513
512
512
510
512
510
508
507
508
503
505
505
503
505
508
509
508
510
511
512
511
512
513
513
508
508
506
508
505
506
507
504
504
505
505
508
508
511
512
512
511
512
512
512
510
509
507
508
506
503
506
505
504
506
508
509
509
510
512
510
514
511
510
510
511
511
506
508
508
507
507
507
506
506
508
509
509
512
511
512
511
512
513
511
510
510
506
508
509
506
505
504
504
504
507
508
510
511
511
511
512
511
511
510
509
509
505
507
506
506
507
507
506
505
507
511
510
512
510
512
513
511
512
512
510
508
508
506
507
505
504
504
504
506
507
509
512
510
510
510
513
513
511
511
509
508
507
508
507
503
504
506
507
506
505
507
508
512
511
512
514
512
513
512
510
511
507
507
505
505
505
505
503
504
507
509
508
510
510
511
513
513
513
511
511
510
507
507
505
503
504
506
506
506
508
507
511
511
509
511
513
509
511
510
508
509
507
507
505
507
506
504
506
507
508
509
510
509
509
510
513
511
511
512
512
510
508
507
506
506
504
504
505
505
507
508
509
511
511
512
511
512
512
510
513
509
507
510
507
506
508
505
504
507
507
508
508
511
512
512
513
511
511
510
510
511
508
508
504
505
507
504
505
508
507
509
508
510
509
511
514
511
514
511
510
508
507
506
506
507
507
504
504
507
505
510
508
509
511
511
512
511
512
512
511
511
506
505
505
505
505
504
505
507
508
509
509
511
510
511
514
514
514
514
511
508
505
506
506
502
504
503
504
507
506
510
510
511
512
513
513
515
513
512
510
510
507
506
505
504
505
504
506
508
506
510
511
512
511
513
514
513
513
511
509
508
505
506
505
504
504
503
506
504
505
511
508
510
514
512
513
511
511
511
509
508
507
507
504
505
504
507
504
505
507
509
508
510
515
515
515
515
513
511
509
508
507
507
506
504
504
503
504
505
506
507
510
511
513
513
514
512
513
511
510
509
508
508
505
505
503
503
505
505
505
510
509
509
513
514
513
511
511
507
509
509
504
506
506
504
506
504
506
504
508
510
509
511
513
512
515
513
512
510
510
507
505
504
505
503
504
507
505
503
509
510
510
510
513
512
515
512
512
510
510
508
506
507
503
505
506
503
506
506
509
511
511
508
513
510
513
511
514
511
509
508
508
506
505
504
506
504
505
506
507
508
511
511
512
514
515
513
512
510
508
509
508
505
508
505
506
504
505
505
504
510
510
512
512
512
513
510
511
510
511
508
507
504
504
504
504
506
505
505
508
509
510
511
513
514
515
512
513
513
509
509
505
506
504
503
504
504
504
505
507
511
511
513
511
513
514
512
512
510
509
509
504
505
504
503
504
503
506
505
507
508
509
512
513
515
516
515
513
511
510
509
507
505
503
505
504
504
504
506
508
509
511
512
513
515
517
512
512
512
512
509
506
507
505
503
504
503
506
507
509
506
510
511
514
516
514
513
511
511
510
510
506
507
504
502
504
504
505
506
505
510
509
510
513
513
515
513
512
511
509
510
504
507
503
504
504
504
505
507
507
511
509
512
513
513
511
513
512
511
511
508
505
506
507
506
504
504
504
507
509
510
509
509
513
513
515
512
511
510
508
508
505
505
505
503
504
506
508
505
507
509
509
512
513
515
516
513
512
509
508
508
505
503
502
504
503
505
507
505
510
509
511
511
513
513
516
513
512
510
508
508
505
505
506
503
504
505
506
508
510
510
512
512
512
513
513
512
513
511
510
508
505
504
503
504
505
503
506
508
506
511
511
513
512
510
512
513
513
512
510
509
505
506
503
502
505
501
504
507
509
512
511
515
512
513
515
510
510
511
509
507
505
508
505
502
503
504
506
507
508
511
511
511
512
512
512
511
513
512
509
509
505
503
506
505
505
501
506
506
507
511
511
513
512
515
512
513
513
511
509
507
508
506
505
504
504
502
505
507
507
511
511
510
511
512
513
512
511
510
511
509
505
508
505
504
504
501
505
505
507
510
510
512
511
513
511
513
513
512
510
509
505
506
506
502
505
502
504
506
507
511
510
512
513
515
515
513
512
510
511
509
506
504
504
505
505
505
507
504
507
512
511
510
512
515
513
513
513
512
513
509
505
504
502
498
501
498
507
508
508
512
515
521
516
516
512
511
510
511
507
507
507
507
506
508
508
505
506
508
511
504
505
512
507
506
518
531
524
514
508
501
499
499
497
494
499
502
501
503
508
507
513
509
513
513
514
517
518
519
516
510
502
500
499
500
500
498
504
510
510
513
516
515
510
510
511
524
519
505
496
503
510
509
506
518
512
513
509
507
506
511
514
519
508
499
498
498
504
521
521
515
508
500
500
502
502
502
507
511
510
497
490
497
507
519
532
537
509
491
486
497
512
523
540
534
514
495
491
495
504
514
518
513
507
510
514
508
507
512
511
507
503
502
505
514
511
509
506
505
502
515
511
502
496
510
500
503
511
537
526
520
517
507
499
497
501
499
504
499
499
505
508
510
511
512
515
514
512
511
510
510
508
507
506
505
505
504
503
505
509
515
509
507
503
506
513
505
503
499
496
502
519
521
514
503
499
499
496
510
513
516
515
515
508
507
512
511
513
517
514
510
507
505
504
502
507
510
510
510
508
511
509
511
510
510
511
512
516
512
511
510
507
505
503
498
502
508
511
512
518
515
517
518
517
516
506
503
501
499
502
494
488
493
497
497
504
504
504
507
512
517
519
519
518
518
519
517
519
513
511
509
506
509
505
506
504
503
504
505
505
508
516
514
509
508
509
512
509
511
507
499
499
500
496
498
504
501
499
501
515
533
526
515
520
524
520
516
517
513
507
507
503
498
503
509
511
506
509
498
500
508
509
509
511
510
509
510
508
510
511
516
515
508
502
507
507
518
520
508
501
510
514
511
512
519
515
509
506
505
507
505
504
502
500
487
488
504
521
524
514
504
503
508
514
518
516
513
519
518
511
497
495
501
506
504
501
494
494
494
502
504
494
504
547
536
515
524
515
503
497
498
504
517
505
503
510
504
495
498
492
500
505
521
519
500
499
525
525
509
516
531
519
508
487
488
512
498
502
499
500
514
517
518
520
518
508
517
523
519
518
509
499
492
513
520
502
493
500
501
487
494
516
516
511
522
524
507
509
516
515
502
504
519
492
488
493
498
503
511
516
515
504
508
516
494
487
532
545
521
518
520
519
518
499
488
492
492
496
494
501
510
507
514
508
514
526
535
525
504
496
506
514
496
484
504
515
502
508
514
519
516
508
506
505
525
517
529
512
502
504
515
515
509
503
500
501
502
498
489
512
534
514
504
504
512
514
522
512
505
507
511
511
509
496
493
500
505
501
497
506
514
516
518
515
511
505
541
516
511
514
514
520
515
503
499
503
502
496
505
509
484
497
532
523
508
499
497
504
507
508
506
500
507
505
504
497
502
501
508
524
520
510
504
523
536
528
512
513
518
518
511
502
509
499
494
487
507
530
503
495
507
512
509
507
517
525
515
516
510
511
508
509
504
499
498
500
500
506
507
510
516
514
520
522
523
518
508
507
521
517
494
479
487
510
508
502
505
509
513
514
513
514
515
510
515
515
516
511
507
494
504
512
497
488
499
507
503
504
512
517
517
528
518
512
514
523
524
513
499
499
499
495
499
501
504
509
505
496
502
519
513
503
511
513
518
518
515
513
508
513
503
497
494
501
496
491
492
510
511
525
524
515
516
519
517
518
515
521
512
507
500
497
495
497
498
499
498
505
510
510
511
509
513
517
515
516
520
524
521
528
524
485
489
491
500
501
497
497
507
516
521
513
517
509
509
509
504
500
496
502
502
503
497
498
516
511
498
494
507
509
497
496
503
511
521
538
545
547
535
519
508
503
497
497
493
497
498
502
506
509
515
517
519
516
512
512
512
511
509
507
501
503
499
498
498
501
498
500
508
508
515
519
523
516
516
517
515
510
506
503
503
508
504
507
501
503
506
511
515
518
516
511
511
504
499
504
513
516
515
515
502
496
494
499
501
504
504
509
510
511
514
514
518
519
516
518
515
513
507
505
507
499
496
502
502
501
500
504
500
504
508
509
511
513
519
531
536
530
519
506
498
492
494
510
499
501
499
495
502
510
509
512
516
514
515
516
516
522
513
504
501
498
499
503
500
500
497
498
504
505
503
507
503
497
496
508
523
545
550
549
531
524
513
507
497
497
484
488
495
497
503
515
519
520
530
528
519
507
505
504
501
497
496
493
493
497
500
502
506
513
513
512
515
520
520
521
516
514
511
506
504
502
503
497
499
500
503
504
507
507
512
517
521
519
516
514
512
512
509
504
504
503
503
500
497
500
503
505
507
511
512
520
512
513
518
519
516
515
504
499
500
498
500
502
499
503
504
504
506
512
520
517
518
519
519
518
512
507
497
495
490
491
508
513
509
511
512
513
518
529
522
513
513
511
513
508
506
508
505
501
500
499
497
499
499
503
503
505
512
512
515
515
516
517
518
519
515
511
509
505
503
499
501
502
502
500
503
507
506
510
513
517
520
520
518
518
515
513
511
506
500
497
498
500
502
505
502
505
507
510
516
520
519
515
515
516
513
512
510
506
504
499
498
499
497
500
502
505
506
510
512
516
519
518
514
512
510
512
510
503
506
511
512
511
504
501
500
502
504
508
515
511
514
518
517
517
513
511
511
507
508
505
495
493
495
498
501
505
508
511
514
515
519
519
519
520
515
512
508
504
504
502
503
500
499
503
504
508
508
506
514
513
513
518
515
518
520
518
503
501
501
497
497
500
508
513
506
504
508
513
513
515
515
515
516
517
513
510
502
498
493
489
484
481
490
503
508
519
544
543
544
536
532
517
503
511
507
493
498
514
498
494
494
493
496
502
511
501
501
512
514
516
518
518
518
518
514
511
506
505
503
499
499
500
499
501
504
507
508
509
512
511
516
520
518
516
516
510
504
501
503
507
517
508
504
488
482
489
500
505
515
531
547
545
527
515
510
507
505
500
501
497
490
490
498
497
493
502
500
502
508
511
520
526
532
535
526
524
518
509
507
497
496
495
496
496
498
500
507
515
513
508
517
515
517
514
511
511
508
502
504
504
503
502
502
501
500
504
507
509
506
504
507
512
519
516
523
535
536
526
514
500
496
494
493
496
498
501
505
510
512
514
514
515
514
515
511
510
511
505
505
508
499
500
500
501
500
504
508
511
515
513
515
519
516
509
515
510
510
509
506
506
508
514
506
505
494
498
510
506
513
515
518
510
510
513
515
516
515
519
511
501
497
495
497
501
502
504
507
508
505
499
496
500
508
515
528
551
548
528
519
508
504
493
492
495
496
499
502
508
510
513
515
514
517
515
512
511
506
501
500
496
499
497
498
501
503
508
506
510
519
521
517
514
516
516
512
507
520
512
496
488
493
504
506
501
502
506
509
512
516
517
517
518
520
517
513
513
509
507
502
499
498
498
499
501
502
503
506
513
518
516
518
518
517
516
513
514
509
506
504
496
499
505
500
505
510
515
518
512
508
510
511
512
515
513
515
515
509
502
501
504
505
504
488
488
494
499
503
511
511
519
519
522
527
526
513
515
512
502
503
502
496
499
503
504
503
513
512
524
527
519
523
524
527
524
511
504
503
498
497
495
496
477
488
501
503
512
508
513
512
510
519
522
515
519
521
518
509
499
490
489
491
488
496
507
512
520
518
519
526
528
523
517
522
515
517
511
505
502
498
492
493
500
501
502
502
496
505
528
525
508
513
515
509
511
518
527
532
519
503
498
495
502
490
484
492
497
502
503
511
526
510
500
506
509
516
523
530
515
505
508
499
502
486
475
488
524
535
513
537
532
514
510
491
496
510
523
531
540
537
507
491
488
488
491
490
494
497
506
515
515
513
510
511
513
515
512
515
514
522
518
513
501
504
499
495
497
492
476
475
479
502
532
569
551
525
524
527
535
532
535
527
488
482
489
487
483
479
491
499
513
520
529
551
542
509
496
501
489
498
498
489
485
487
489
489
509
525
524
522
523
521
500
504
505
496
512
548
543
505
484
495
509
520
511
508
501
508
522
513
506
510
500
501
513
536
506
505
529
536
512
499
495
500
500
498
493
499
507
508
502
501
497
512
513
502
507
504
495
506
529
519
508
508
504
491
495
512
518
527
526
510
520
524
515
519
535
541
508
491
488
486
489
486
472
466
471
483
501
517
526
529
542
566
540
522
511
497
514
514
511
496
497
494
516
548
538
529
483
432
427
471
508
553
550
523
564
583
528
490
482
491
483
477
470
505
530
533
516
515
513
511
517
519
519
495
481
478
485
502
507
508
531
532
504
482
483
501
512
506
501
513
512
530
553
543
529
514
485
481
478
500
534
528
499
452
477
539
519
524
536
518
543
521
518
536
530
528
508
474
469
468
470
472
475
504
519
517
526
517
520
517
517
519
520
521
533
508
499
501
489
476
492
513
480
520
569
536
499
493
485
507
513
521
532
535
528
505
507
490
476
475
473
486
509
541
527
515
518
511
500
524
536
527
503
486
496
512
484
471
497
513
532
536
505
490
494
516
586
543
517
503
503
506
509
514
501
502
487
491
505
494
478
477
487
491
498
511
513
522
529
530
531
528
526
520
516
505
502
506
500
493
493
499
508
514
519
508
494
496
509
525
524
539
525
509
522
515
508
496
497
492
491
492
502
499
491
503
519
518
517
516
527
527
526
514
519
515
501
496
491
491
487
486
497
504
515
515
514
517
519
521
519
525
517
509
501
504
508
514
516
506
503
489
487
478
481
507
508
509
530
540
528
511
506
503
510
515
509
528
512
492
492
496
496
499
507
508
512
515
522
533
532
537
537
519
506
499
483
475
488
500
492
503
496
502
516
514
512
510
516
505
499
511
523
523
519
526
526
526
507
501
492
486
489
487
494
505
517
534
535
529
515
512
510
513
514
509
502
502
497
508
512
504
503
497
486
482
492
505
511
525
526
516
522
526
521
522
518
505
495
488
490
483
490
502
511
527
519
515
511
513
510
520
531
541
526
517
507
497
492
490
486
489
496
504
512
514
518
524
520
514
514
512
507
505
502
500
499
496
493
493
496
489
497
508
522
531
537
541
541
529
525
514
502
497
494
495
483
477
490
504
502
512
510
509
503
504
510
513
511
515
524
510
504
505
508
512
529
546
541
515
491
489
488
486
487
487
494
502
509
541
551
526
511
505
518
531
531
524
510
486
477
483
488
492
496
503
514
516
516
533
540
543
536
517
493
480
475
483
505
500
490
496
497
483
491
502
517
517
524
528
526
526
524
521
520
505
486
482
488
495
515
539
545
533
510
500
503
503
489
478
499
516
516
515
554
568
534
502
513
515
486
457
455
483
493
501
512
519
523
523
531
523
519
511
511
505
502
498
494
494
495
500
502
501
507
515
518
519
520
523
522
525
525
516
511
504
499
497
492
489
494
499
500
504
507
512
514
518
521
520
521
518
514
512
510
507
502
500
496
499
500
491
492
501
506
515
516
517
523
521
523
523
519
518
519
499
491
494
493
489
491
496
515
511
509
513
514
518
515
517
520
519
520
513
513
510
507
504
499
497
493
492
492
503
507
514
523
524
524
522
518
512
512
512
516
505
499
496
495
499
497
496
504
504
505
504
512
520
518
521
522
520
519
521
509
500
499
499
492
492
501
507
494
501
506
512
512
515
519
523
523
521
519
515
508
502
499
498
497
491
492
497
504
511
520
511
512
519
521
522
520
518
516
512
511
509
508
499
491
483
488
494
492
497
507
521
519
519
521
530
525
534
536
527
512
500
489
492
491
487
490
495
501
502
507
512
515
523
521
523
522
515
516
514
512
506
501
498
495
492
498
496
501
502
508
513
513
519
522
523
524
520
517
514
511
510
503
493
496
497
494
494
499
504
506
512
508
516
521
529
525
528
520
511
512
508
496
492
486
494
496
494
499
505
508
511
516
521
521
521
522
519
520
512
508
507
497
499
491
497
504
498
504
504
508
512
516
521
521
522
523
520
516
513
507
503
502
500
499
495
499
500
496
500
508
511
515
521
519
520
520
524
521
515
505
498
499
502
489
494
494
497
502
508
506
513
519
519
524
518
519
521
519
516
509
508
508
503
493
489
492
498
502
508
507
514
517
518
516
521
515
511
515
512
510
506
500
501
496
499
495
497
499
504
510
512
516
520
522
523
525
521
515
511
507
505
499
500
497
500
498
494
499
494
505
520
525
512
512
519
524
520
524
514
504
505
507
494
491
503
492
490
504
515
517
514
515
516
515
521
524
527
517
500
499
503
500
499
496
495
497
499
501
505
510
512
514
519
520
523
521
519
519
513
511
504
501
503
499
503
494
493
498
503
507
513
518
521
520
523
526
521
521
514
508
493
496
497
494
491
492
498
504
507
511
514
519
524
513
514
519
520
519
524
506
501
506
494
491
497
491
494
502
506
515
517
519
524
516
522
522
519
514
508
509
507
510
498
492
495
495
490
503
509
506
509
512
516
520
527
526
517
513
512
510
507
506
508
489
486
497
502
503
501
513
506
506
524
528
521
520
515
513
508
511
512
513
502
492
491
491
493
497
501
510
514
515
519
520
529
519
515
515
509
507
504
500
502
497
503
510
498
497
499
513
513
510
512
517
517
518
518
515
511
513
517
511
497
495
499
499
498
504
508
510
508
510
515
518
520
516
518
514
512
509
505
511
500
497
504
479
495
500
503
512
515
518
521
519
518
519
520
521
515
510
504
504
494
490
491
495
505
499
500
511
517
515
516
519
522
523
522
516
508
508
503
503
501
496
494
495
497
504
507
503
513
517
510
513
519
525
524
524
520
512
504
500
499
500
505
489
483
500
509
511
508
515
519
521
523
523
523
519
509
508
499
499
496
494
495
496
502
497
501
510
511
516
528
519
527
521
521
518
509
505
503
503
500
502
494
492
497
502
504
512
515
509
517
517
519
517
519
517
512
516
513
509
491
492
495
494
497
500
509
510
513
518
524
521
520
520
522
513
507
509
508
498
495
496
501
498
498
500
506
511
515
516
517
522
526
517
513
514
511
503
501
500
497
497
493
496
506
505
516
523
512
508
516
515
524
528
513
511
510
512
505
497
494
495
494
494
497
507
514
502
517
513
519
518
519
518
512
513
513
507
507
503
500
499
499
497
495
500
503
504
510
515
519
519
524
523
517
519
512
505
500
506
500
499
497
496
496
502
505
512
516
514
523
520
517
518
525
517
508
511
509
505
499
484
489
495
497
503
503
512
512
517
520
521
523
527
517
512
511
510
496
507
496
501
496
500
497
501
502
514
516
515
518
516
520
524
515
507
512
514
508
508
494
492
499
493
496
502
499
507
515
524
525
515
521
519
520
519
509
506
507
504
511
496
475
489
497
502
508
513
518
516
519
520
519
519
519
521
504
504
505
507
499
495
500
499
498
499
499
507
518
523
517
516
516
519
521
517
515
508
505
502
501
498
493
496
498
500
493
501
515
519
525
526
522
524
527
522
510
508
506
494
497
496
495
492
494
501
504
510
515
518
524
521
524
526
525
507
499
504
502
502
499
491
496
496
505
504
499
505
509
517
525
525
516
519
518
519
519
511
505
504
498
491
494
496
498
501
507
511
512
514
519
526
515
515
515
517
515
499
494
498
497
506
500
505
511
511
504
505
512
515
519
518
519
518
523
519
519
501
493
490
496
499
494
495
499
505
508
510
515
516
522
529
518
519
516
514
508
504
502
499
501
505
490
494
498
506
508
511
516
515
522
521
521
519
520
517
508
506
506
499
497
496
496
503
489
500
508
511
519
516
512
515
524
523
525
526
511
499
496
494
490
491
499
502
496
497
524
529
514
511
518
510
521
518
516
515
511
506
502
502
497
496
499
501
502
507
500
504
512
519
518
522
522
521
518
513
509
506
507
501
502
495
495
496
501
501
505
510
513
519
519
516
518
523
520
514
509
507
504
500
503
497
494
497
498
505
509
512
516
523
517
516
516
516
524
503
504
504
509
512
502
499
503
498
496
494
505
512
515
512
515
519
519
519
519
517
515
506
507
510
494
487
489
495
499
502
503
510
512
515
520
518
521
524
519
518
515
513
502
499
498
495
496
496
499
503
506
510
514
518
520
519
520
521
519
523
504
505
503
499
496
495
496
494
499
507
508
512
513
515
520
521
522
521
518
515
509
506
502
504
497
491
492
494
496
505
509
519
518
515
516
516
518
516
514
512
512
508
502
503
504
499
499
496
498
503
503
511
513
517
520
521
523
521
517
517
508
506
507
504
495
496
495
495
499
502
504
511
513
518
521
521
521
520
520
514
511
509
502
502
495
489
493
497
502
504
511
512
517
519
520
523
525
524
517
516
510
507
503
497
494
488
490
489
494
505
512
508
513
524
529
522
523
517
514
511
511
507
502
497
496
494
494
496
503
513
512
511
513
515
520
518
517
518
516
519
514
505
504
503
502
495
492
490
494
497
501
509
514
518
529
534
528
525
519
513
505
502
500
498
497
496
495
496
497
492
491
500
513
521
521
522
526
524
522
516
514
513
508
500
492
490
492
496
496
493
499
504
509
519
529
555
554
546
530
507
487
492
489
486
477
479
496
503
491
515
524
536
537
525
521
516
505
507
514
511
502
497
495
488
480
477
491
519
515
517
512
514
521
504
504
504
521
523
529
533
533
535
524
508
495
485
477
473
485
500
489
496
507
515
521
530
543
540
531
535
526
513
509
504
503
487
456
455
478
485
519
524
501
508
507
510
503
517
497
500
546
558
543
527
544
526
488
473
476
480
494
509
519
525
529
524
520
515
514
511
504
504
502
497
502
511
505
496
493
490
481
475
495
528
543
558
559
539
508
483
460
440
442
464
476
478
518
547
593
548
544
541
542
532
511
489
492
519
527
521
499
491
483
483
488
500
517
522
520
521
506
506
509
508
515
517
519
522
519
516
508
505
500
495
494
493
492
494
496
503
509
516
515
523
546
558
529
508
489
472
456
452
457
484
500
497
515
546
555
558
532
523
523
478
471
453
503
537
533
525
515
500
496
492
495
502
519
508
508
505
509
512
512
511
517
519
523
527
519
518
527
525
523
511
488
451
440
454
474
517
547
543
526
523
532
519
523
512
511
505
491
482
486
493
497
535
542
526
525
530
507
503
499
496
504
539
525
511
526
539
530
519
517
495
442
426
460
503
512
513
516
517
521
521
523
524
521
521
520
516
511
506
502
503
500
490
492
494
504
520
521
522
514
512
497
517
529
532
529
499
478
479
477
484
492
500
513
506
502
505
519
517
516
530
540
526
513
517
507
500
508
521
518
505
504
498
492
491
491
499
516
503
506
513
519
532
535
526
523
519
514
509
505
504
497
492
493
496
498
504
510
515
514
516
523
525
524
527
521
513
508
505
506
513
509
507
501
499
496
502
506
515
514
526
537
526
521
512
499
477
481
491
495
500
496
512
536
527
525
512
511
485
478
504
519
521
525
524
526
515
508
502
502
501
499
495
492
492
497
503
505
513
519
519
519
516
519
517
510
506
501
501
499
499
499
498
498
496
500
504
507
509
510
512
520
520
520
521
516
515
505
506
502
503
501
499
494
499
507
519
546
569
586
574
529
473
421
400
411
437
466
494
542
541
531
524
526
495
478
472
502
513
523
531
529
527
527
525
523
519
513
512
508
507
507
503
502
500
501
505
505
507
510
511
516
520
519
518
516
515
514
513
513
508
504
503
504
506
508
508
507
510
513
511
514
514
516
515
509
504
501
503
500
501
501
501
500
501
500
501
504
512
522
519
508
513
512
511
510
512
508
508
505
506
509
505
505
507
505
511
505
507
511
512
516
519
516
516
513
508
502
504
510
508
507
503
504
507
500
500
504
511
511
513
518
514
515
520
513
507
506
509
505
505
509
506
506
505
506
503
499
511
512
511
513
513
513
511
511
515
517
532
528
521
503
481
468
481
494
506
510
517
514
512
515
511
512
512
514
512
516
516
511
509
510
510
507
507
506
507
507
508
509
510
512
509
513
512
512
512
512
508
508
503
505
508
511
510
504
506
505
507
505
506
508
508
510
511
511
510
510
507
505
506
506
501
504
504
506
507
506
510
510
511
512
509
509
510
511
510
511
510
509
506
507
507
506
504
506
506
507
511
511
512
514
510
511
511
512
509
508
511
509
508
507
504
504
501
503
501
507
506
507
509
511
507
508
508
509
507
506
506
505
503
503
502
503
505
503
502
504
507
512
510
515
513
515
517
515
515
515
513
511
512
512
506
510
507
507
509
509
510
512
513
513
512
515
514
513
513
513
510
508
509
507
504
506
506
505
507
508
510
514
514
515
513
515
515
515
516
512
512
509
509
507
505
504
502
503
504
504
505
507
506
508
508
511
510
509
508
508
508
507
506
506
504
505
504
504
509
507
508
512
511
511
512
512
513
513
511
508
510
505
505
503
502
503
503
503
504
504
507
508
509
511
511
512
511
512
511
508
508
507
503
504
504
505
504
506
507
508
508
509
510
511
511
511
513
514
513
509
509
508
507
506
503
506
504
508
507
508
510
509
510
511
510
510
511
512
511
508
509
508
504
503
505
507
505
505
505
505
507
509
510
511
511
511
509
511
513
513
512
511
509
507
504
505
507
508
507
509
508
509
511
513
515
514
514
512
513
509
506
507
507
505
505
507
506
506
508
505
508
508
511
513
512
513
513
512
512
510
509
506
507
506
504
504
504
504
508
506
507
508
510
510
512
513
511
512
511
509
510
508
507
507
505
503
504
502
508
507
505
508
512
512
511
512
511
512
514
511
510
509
507
505
506
505
504
506
505
507
510
510
513
512
510
512
514
513
511
508
508
507
507
507
504
505
506
505
505
506
508
508
512
510
509
512
512
511
511
510
509
508
507
507
506
508
505
505
508
505
506
508
512
512
512
513
513
513
510
510
512
508
509
509
505
505
505
504
507
508
509
508
510
510
510
512
515
511
511
510
508
507
506
508
504
508
505
504
506
507
507
509
510
513
512
512
510
510
512
511
511
510
508
508
504
507
507
506
509
507
510
509
511
512
511
510
510
511
511
509
510
510
507
508
504
505
506
507
507
505
505
507
511
509
509
511
509
510
511
510
508
508
508
508
505
505
507
505
509
506
510
510
510
509
508
511
510
509
511
511
511
508
506
508
506
508
506
504
507
508
508
506
509
510
509
510
510
511
511
509
509
509
507
511
508
507
507
505
507
507
509
507
509
512
510
510
510
511
513
510
509
509
506
509
506
508
507
507
506
507
507
505
504
510
508
513
513
510
513
510
509
510
508
508
506
507
510
507
504
507
505
508
510
511
510
510
510
512
512
511
508
511
510
509
508
506
506
505
506
505
507
508
509
510
508
510
510
511
510
509
509
509
509
508
508
505
507
507
507
505
507
508
508
511
509
508
510
510
510
509
510
510
509
509
505
508
507
507
508
508
507
509
509
509
508
508
510
510
512
511
511
508
511
508
507
508
507
506
507
507
507
509
510
509
507
510
512
512
511
511
508
509
507
508
507
504
506
508
508
507
507
508
509
509
509
511
512
511
512
509
509
509
508
508
504
507
507
508
507
506
508
506
509
512
508
508
510
509
511
510
509
506
507
510
507
507
507
508
507
506
509
508
507
509
511
511
510
508
513
510
511
510
509
510
507
508
505
507
507
505
508
506
507
510
509
510
508
510
511
511
510
507
505
507
504
505
502
504
504
506
504
510
506
511
509
512
510
512
512
511
512
509
510
508
504
510
509
509
512
512
511
512
514
514
515
515
515
515
514
510
508
510
509
507
508
508
505
507
506
507
506
507
509
508
509
512
511
510
510
507
506
508
506
507
502
503
505
504
508
507
512
510
510
512
511
512
511
511
511
511
510
507
506
507
505
508
505
504
504
505
508
510
511
511
510
512
510
510
511
510
508
510
508
506
505
502
504
507
508
505
508
510
509
512
511
510
511
510
511
510
510
509
508
507
507
508
506
508
508
509
510
511
512
514
515
515
512
512
513
510
509
510
507
508
506
506
503
504
504
506
505
507
510
509
510
508
509
507
510
507
505
505
504
506
503
503
503
508
505
508
509
509
512
510
511
511
512
509
511
511
510
508
507
508
504
503
506
505
508
509
510
511
510
511
513
512
511
511
510
511
511
509
508
509
505
504
505
505
506
504
507
510
510
513
514
512
513
512
512
510
509
511
508
508
505
504
506
507
507
506
506
511
512
512
510
511
509
511
512
508
507
508
506
507
502
502
504
505
505
505
508
509
511
511
511
511
513
510
512
511
508
508
506
503
499
503
503
506
507
508
509
511
511
512
511
515
513
513
515
512
510
508
508
509
505
504
505
504
506
507
509
509
510
513
511
513
515
512
509
510
509
509
506
507
503
504
506
505
507
509
508
510
508
513
513
515
512
512
511
507
505
508
506
507
505
503
505
504
509
507
508
509
511
512
513
511
511
512
511
509
510
506
507
503
502
504
502
505
507
505
510
509
513
514
511
512
512
511
513
508
510
507
508
506
500
505
506
505
506
507
509
510
510
512
511
512
513
512
512
510
507
507
505
505
504
504
506
507
507
506
508
509
512
512
512
512
513
513
511
510
511
507
507
505
502
504
504
505
508
508
508
509
511
513
512
513
513
510
512
505
508
507
506
505
504
507
504
505
503
507
509
509
511
514
512
512
514
514
511
509
508
508
505
505
504
504
507
505
508
507
510
509
513
513
513
515
514
511
511
507
507
507
504
504
504
504
505
506
506
509
507
510
511
513
513
511
513
511
515
508
509
506
505
507
505
505
503
505
507
507
510
509
511
512
513
511
512
512
512
510
508
510
506
506
502
504
505
503
506
507
510
510
512
512
511
513
511
512
512
508
509
507
506
505
504
504
503
504
505
507
508
508
511
513
512
514
512
513
513
507
508
507
505
505
504
504
502
505
505
508
509
510
513
515
513
512
512
511
511
507
508
509
506
506
503
505
505
505
505
507
509
511
511
515
513
512
516
512
511
508
509
508
505
507
506
504
504
504
509
507
510
510
511
512
512
512
513
511
509
507
508
507
505
506
503
504
505
504
507
508
509
509
511
512
512
511
511
512
512
509
508
504
505
505
502
505
504
509
508
505
510
512
511
512
512
515
515
512
511
509
506
508
504
505
502
504
507
504
508
509
508
513
512
511
512
512
514
511
510
508
507
507
507
505
504
504
505
508
505
510
510
510
512
511
512
512
511
511
511
508
508
506
506
505
503
504
505
503
507
507
510
510
514
512
512
514
513
512
511
508
507
508
506
507
505
504
502
504
510
509
509
510
511
513
512
512
511
511
510
511
509
505
504
504
502
505
505
506
507
508
511
511
511
511
511
513
513
513
513
510
508
506
504
505
504
505
504
504
507
509
509
509
512
514
514
513
511
512
511
508
507
507
505
505
504
502
504
505
508
509
510
509
511
511
511
513
514
510
510
508
507
507
506
506
503
504
506
506
507
509
508
509
511
511
512
512
512
513
510
509
507
508
506
504
504
503
504
505
509
508
508
514
513
513
512
514
510
511
511
510
508
506
505
506
505
504
504
504
506
510
512
510
511
513
514
512
513
511
512
508
508
507
506
507
504
504
502
502
506
508
508
509
510
513
512
511
512
512
511
507
511
509
508
504
503
503
504
504
505
510
510
511
511
513
512
513
512
512
513
511
508
507
508
505
504
504
506
507
508
509
511
511
511
514
513
515
511
511
511
510
508
508
506
504
504
504
504
507
508
506
510
510
512
513
513
512
511
511
512
508
509
505
505
501
503
502
502
507
506
509
510
513
512
516
514
513
512
512
510
508
509
506
504
505
503
502
504
505
508
508
509
510
512
514
513
513
513
511
512
509
510
507
505
505
503
504
505
506
508
509
511
512
511
513
514
515
511
510
511
509
507
507
505
504
505
505
504
504
505
508
510
511
512
515
513
516
513
511
510
508
506
506
504
505
504
504
505
506
508
508
508
511
513
514
511
512
513
511
508
507
507
506
505
504
504
502
504
506
506
508
509
509
511
513
514
514
516
513
509
509
508
507
505
504
504
505
507
505
506
506
508
510
512
514
512
514
511
512
514
509
510
508
507
506
504
502
505
504
508
506
508
511
512
516
514
512
512
511
509
510
508
505
504
505
502
504
505
506
508
507
508
512
512
510
511
512
512
512
512
510
507
507
506
504
503
504
504
504
507
508
508
510
511
514
514
511
513
512
510
507
507
507
504
505
505
503
502
504
506
509
511
511
511
514
512
515
515
512
511
509
508
507
505
506
504
504
505
504
509
509
508
511
511
513
513
514
512
513
512
509
509
509
507
505
504
503
504
504
506
509
508
512
510
514
511
510
513
512
512
510
508
508
503
505
503
502
504
506
509
508
511
511
513
515
513
515
514
512
511
509
508
507
505
502
502
502
503
505
508
508
511
511
512
514
512
512
513
510
511
507
509
505
504
503
502
504
504
503
507
509
508
512
511
515
512
513
512
513
512
509
507
507
506
506
505
503
505
507
504
507
511
510
512
514
515
513
511
512
512
509
507
507
504
505
503
507
505
505
505
508
511
514
512
511
512
510
511
511
512
508
511
505
505
506
504
505
505
509
508
508
509
511
512
511
511
513
511
513
512
509
508
507
507
507
504
504
505
506
510
508
509
510
511
514
514
514
513
512
511
508
508
506
505
506
503
502
502
505
508
507
510
512
510
515
512
514
513
511
511
510
510
504
503
507
504
504
504
505
508
507
508
510
513
514
513
514
513
513
511
508
507
508
504
507
503
505
504
504
505
505
509
510
513
514
512
514
513
511
511
508
509
507
504
505
502
505
504
504
506
508
511
510
511
513
512
512
511
511
512
511
508
507
505
506
502
502
507
507
507
507
508
512
512
513
512
513
511
511
511
507
508
504
504
504
505
504
505
505
507
508
509
512
514
513
512
511
511
511
511
506
505
507
505
506
503
506
504
505
507
509
509
510
510
513
512
511
515
511
512
510
507
508
505
504
505
505
504
504
506
508
508
509
513
514
513
512
514
511
511
508
505
506
504
505
502
506
506
505
508
508
510
508
511
512
512
515
513
512
512
510
507
506
506
506
503
507
504
505
508
508
508
510
511
513
513
512
512
512
511
508
508
505
505
504
505
503
504
506
508
508
511
511
512
512
511
513
512
511
510
511
506
505
506
505
504
505
504
505
508
508
508
511
512
515
511
511
511
512
511
508
508
505
504
505
503
505
507
504
509
507
510
512
512
512
513
514
513
511
511
509
508
504
504
504
502
504
504
505
509
507
510
510
511
513
514
512
513
512
510
507
506
506
505
504
504
505
506
506
506
508
508
511
512
513
511
515
511
512
513
507
507
507
504
504
503
503
504
504
509
508
511
510
511
515
512
513
513
512
511
509
507
504
504
506
505
504
504
506
509
509
511
511
512
513
512
513
511
512
511
507
507
509
507
505
504
504
504
508
506
509
510
511
511
513
512
513
512
512
512
508
506
505
504
503
503
504
507
508
507
508
511
511
511
512
513
515
511
511
512
509
507
504
506
505
503
505
505
507
509
507
507
510
512
513
513
512
512
512
510
508
509
505
503
505
504
506
503
506
507
507
509
511
512
513
512
516
513
511
511
508
506
505
504
504
504
504
506
507
506
510
508
510
512
516
515
513
513
511
509
509
508
506
504
504
505
506
506
507
507
507
510
511
512
512
512
512
512
512
511
510
508
506
506
507
505
505
504
505
508
508
507
509
512
514
513
513
511
509
512
508
508
506
504
507
502
503
505
505
509
509
510
511
511
514
512
514
512
511
510
510
505
507
504
504
502
506
505
506
504
508
508
511
511
513
512
513
511
511
510
510
507
509
506
507
503
504
503
506
506
505
510
511
512
513
515
513
515
511
510
508
508
505
505
506
502
501
504
507
509
510
511
511
513
513
511
514
513
511
512
508
508
507
504
508
503
504
504
507
508
509
511
511
512
512
511
512
513
512
510
508
507
508
505
506
504
505
503
508
507
508
509
511
512
512
510
511
511
513
512
509
508
507
505
504
505
504
504
505
508
510
511
511
512
511
512
511
511
511
513
507
506
504
507
506
503
504
505
506
508
509
510
512
514
514
511
512
513
510
510
508
506
505
505
505
503
505
505
506
507
510
510
511
509
513
511
509
510
512
510
510
511
510
507
506
505
504
503
506
508
508
511
513
511
515
515
515
512
511
512
510
506
504
504
503
503
504
503
505
509
510
508
511
514
513
512
514
511
511
512
507
508
506
506
507
507
507
505
504
506
508
507
510
511
514
515
516
513
513
510
508
507
504
507
505
502
503
505
507
507
509
508
508
515
513
512
512
510
511
510
508
507
507
505
505
505
504
504
505
509
508
507
510
513
513
513
513
512
512
510
507
505
506
507
505
503
504
504
504
508
510
510
510
512
514
511
512
512
513
513
510
508
504
504
504
503
504
505
504
507
507
508
512
513
512
514
515
511
511
511
507
510
506
503
504
503
504
505
507
508
507
507
511
512
513
515
513
513
511
510
509
507
508
506
505
503
505
505
504
506
510
512
512
513
513
512
512
511
509
508
508
508
503
504
505
503
505
506
507
507
508
509
511
511
513
513
515
512
514
513
510
508
505
504
504
503
504
505
504
509
508
510
511
511
513
515
514
512
511
510
508
506
506
504
504
503
504
506
506
507
511
509
511
512
514
512
512
511
511
512
509
508
508
505
503
501
500
500
508
511
509
510
509
511
515
512
511
515
514
511
508
507
504
505
506
501
502
501
504
504
509
514
514
514
516
512
511
510
512
513
510
507
504
500
496
489
493
500
511
528
533
521
509
516
520
513
508
507
505
504
507
507
505
509
506
501
502
502
505
508
511
513
513
514
514
510
508
504
503
511
509
509
512
508
510
508
500
510
503
505
515
512
509
511
510
511
511
515
513
511
508
507
506
502
504
503
505
504
505
506
501
507
511
512
520
524
508
510
510
516
512
506
505
500
499
502
506
505
502
506
495
487
492
502
530
535
555
540
521
512
496
494
499
500
504
502
506
509
507
505
508
516
512
510
514
507
494
496
504
509
516
536
529
512
499
494
496
502
510
513
512
508
504
507
507
505
518
512
506
508
508
494
508
516
509
505
511
509
495
489
494
504
508
534
545
527
512
502
522
514
504
506
503
498
501
508
511
510
500
499
506
512
506
517
521
509
507
505
496
499
496
503
519
512
504
506
504
511
505
510
499
500
515
519
515
529
520
514
514
504
497
511
506
496
515
513
506
501
502
509
510
507
500
494
487
494
497
506
514
525
550
540
514
498
503
510
517
519
511
506
506
511
512
511
511
499
496
502
512
515
512
505
503
498
511
503
491
505
510
507
496
490
509
534
545
545
514
495
520
510
491
488
498
494
487
509
519
516
520
519
513
519
520
523
512
497
504
496
496
495
487
488
493
495
498
505
538
545
533
531
530
517
519
513
502
507
502
501
508
509
497
494
507
502
505
511
508
507
491
485
483
484
495
511
532
562
574
567
544
496
469
451
463
493
481
477
512
552
557
537
527
497
517
527
496
481
504
497
510
503
508
512
450
434
449
468
484
550
571
558
570
552
563
557
596
500
444
426
492
479
457
482
559
578
513
476
494
497
539
531
505
527
588
409
305
321
398
508
642
711
742
655
435
407
434
425
504
564
541
579
636
629
524
476
428
454
423
477
450
492
494
520
587
562
421
377
431
414
507
560
630
556
541
479
442
476
691
723
608
443
437
529
519
394
386
405
369
461
537
637
600
443
398
412
490
572
570
557
684
619
652
536
391
387
459
468
477
500
535
529
520
484
474
503
437
443
521
519
580
529
498
558
573
561
583
489
376
451
503
480
541
527
538
544
521
478
478
531
553
475
448
462
684
621
451
431
434
489
593
541
532
484
495
526
495
493
430
443
353
486
675
609
548
391
427
489
604
707
618
476
506
496
471
464
523
568
444
380
491
493
481
547
516
491
483
446
430
456
684
650
562
385
427
508
631
689
568
451
351
303
385
593
682
579
575
532
466
478
481
504
586
499
467
435
402
489
573
636
605
453
354
423
357
515
538
622
614
559
580
579
492
409
403
439
565
596
709
475
425
471
540
605
527
381
391
483
536
501
510
513
536
531
479
551
442
398
512
571
591
552
561
562
419
404
473
547
438
444
480
445
442
526
662
703
567
577
566
519
441
447
467
494
510
477
465
497
485
480
405
461
588
615
572
511
568
563
465
457
486
508
497
495
504
524
511
542
501
535
508
443
427
509
472
491
465
462
564
703
580
537
495
509
511
492
526
561
514
461
455
444
430
452
495
555
534
470
536
625
600
521
479
453
473
516
497
521
497
490
445
436
544
575
535
528
504
472
432
493
622
562
518
489
454
424
463
546
587
594
495
545
603
475
471
485
476
489
483
480
489
483
463
534
586
622
619
531
456
388
384
490
536
496
484
510
527
543
499
519
510
520
578
579
483
447
520
588
509
419
432
531
579
601
496
365
396
447
591
596
529
552
436
462
548
607
537
433
411
576
514
480
502
530
526
496
486
490
494
513
561
618
600
503
410
468
365
378
547
607
622
497
470
520
531
568
477
433
470
550
665
609
548
431
328
438
568
448
478
550
571
525
467
486
525
524
518
500
471
527
554
586
544
446
507
496
466
526
555
528
593
458
376
364
467
551
549
513
571
583
505
495
540
612
572
503
507
414
460
406
467
481
531
534
496
502
552
563
508
401
389
502
600
625
538
534
571
594
563
433
383
403
505
461
504
651
603
525
437
450
463
514
534
548
518
514
542
549
459
462
403
443
505
525
505
503
501
610
535
598
647
507
422
484
457
393
427
576
604
545
435
399
416
511
594
560
665
504
595
568
543
519
425
374
406
463
487
544
522
503
522
599
523
493
463
493
516
552
559
524
334
425
531
579
561
556
513
505
512
521
515
503
451
506
538
595
491
511
535
414
422
461
526
478
512
472
488
590
658
643
493
398
425
481
639
575
516
481
448
386
407
602
540
570
582
505
442
451
465
479
477
587
567
505
514
525
567
537
508
543
483
449
431
452
544
574
574
499
493
478
435
485
586
565
507
456
494
482
470
531
468
452
531
671
551
534
534
508
481
447
450
530
499
487
511
557
542
483
477
340
341
548
677
711
554
526
451
482
491
515
512
498
565
514
506
538
572
459
318
332
517
615
633
563
556
424
378
492
643
591
548
463
414
426
585
660
519
430
397
511
534
500
500
511
503
497
480
504
503
540
547
497
422
500
609
583
549
542
465
428
419
523
556
599
505
488
513
470
508
520
511
506
513
495
472
476
491
554
557
484
450
452
532
640
549
406
444
450
512
550
585
550
501
474
451
473
497
585
580
566
485
371
367
475
686
573
485
492
525
555
521
499
508
499
500
498
488
489
483
508
552
637
532
406
349
523
566
525
491
499
483
526
558
539
527
513
504
515
500
477
487
504
493
502
477
529
526
500
499
540
518
487
503
504
585
619
497
412
438
475
513
562
556
502
473
464
456
427
598
591
525
514
491
503
508
494
490
523
523
523
516
559
525
489
445
424
464
535
694
476
478
511
503
495
542
554
518
473
490
479
459
455
482
529
528
595
532
519
452
534
464
481
531
561
497
493
508
530
549
519
526
474
457
525
559
526
492
515
454
465
519
539
521
519
464
434
488
528
596
554
496
472
451
432
515
655
534
509
495
457
480
640
552
499
475
467
464
454
463
508
590
602
622
461
368
439
522
534
551
496
483
494
534
530
542
526
528
520
507
476
523
477
447
448
551
560
543
496
500
577
488
406
491
501
501
493
478
564
555
542
514
551
564
572
495
416
296
341
536
663
660
513
504
471
539
499
561
547
527
486
450
538
508
603
445
248
432
630
619
567
507
523
509
535
510
444
456
483
600
663
586
430
396
460
469
480
490
470
530
542
482
439
516
668
587
528
471
491
465
463
502
614
538
440
463
516
509
487
493
600
552
470
442
454
517
502
498
536
618
525
432
427
504
564
616
463
440
471
558
652
529
445
492
500
489
478
552
597
319
383
511
639
652
589
519
540
406
385
535
531
500
536
508
490
487
451
454
465
550
608
625
579
485
326
485
548
586
503
520
485
474
472
462
443
472
519
545
521
721
651
536
454
440
419
441
462
544
531
550
562
508
449
427
491
609
515
496
535
488
432
498
671
571
489
474
437
444
477
476
504
481
589
524
543
512
429
478
496
553
550
570
545
504
486
545
521
482
488
455
470
491
526
644
516
508
483
500
529
537
488
445
416
458
516
604
583
533
516
523
504
494
457
539
512
462
494
529
443
520
596
592
562
532
496
542
428
389
465
444
507
489
492
500
510
510
494
465
491
531
551
554
483
539
731
566
481
463
476
504
510
487
475
446
484
479
537
552
526
505
499
502
601
595
499
433
342
435
513
515
490
478
545
550
508
497
487
582
619
582
514
493
495
463
477
473
492
525
541
507
486
515
525
492
467
445
526
569
538
560
517
493
488
461
467
489
513
521
483
565
572
585
525
412
406
458
552
589
543
502
542
579
532
458
446
374
421
487
584
587
547
521
505
499
520
555
543
487
460
495
500
511
470
514
527
495
479
483
543
525
538
485
532
513
539
539
536
503
503
496
523
531
487
386
440
523
540
514
474
549
531
533
577
547
532
484
438
458
479
541
510
545
548
447
469
483
539
572
500
517
528
466
469
523
539
502
511
510
513
511
475
510
565
540
484
443
527
592
493
486
484
492
496
487
499
512
477
499
519
577
546
476
499
531
577
507
486
457
468
493
505
525
521
539
491
492
470
470
517
569
602
552
505
415
525
516
525
480
480
491
509
553
532
516
472
489
535
502
475
516
542
476
477
476
511
603
614
503
463
484
483
505
459
499
561
577
529
495
472
464
500
521
473
491
479
542
619
521
452
509
517
494
495
492
488
493
541
601
541
470
383
473
459
505
496
555
561
562
520
499
503
515
513
516
512
522
535
537
497
523
473
461
452
481
505
510
551
540
623
541
414
406
446
464
522
527
535
539
557
563
485
496
545
525
505
462
449
489
512
552
547
594
524
504
441
458
509
494
512
477
589
539
502
446
447
508
583
566
523
532
518
440
443
443
514
578
588
584
457
361
487
537
544
584
540
483
488
475
487
527
482
469
486
583
556
496
543
513
501
474
445
471
483
595
602
585
543
466
444
428
446
519
609
580
607
564
435
380
350
436
492
496
499
527
587
568
492
498
518
492
497
454
460
459
487
835
731
517
513
533
502
448
399
343
435
464
608
545
436
434
524
572
531
542
570
538
501
506
497
491
458
428
463
525
599
595
545
507
499
460
455
485
435
499
575
553
607
490
395
516
515
522
546
557
540
487
495
489
462
482
438
442
553
609
489
489
519
498
495
490
527
540
543
499
448
467
541
620
570
512
563
576
471
429
399
452
495
513
530
569
576
536
465
455
460
501
463
488
474
514
539
483
495
486
529
532
608
637
542
502
513
509
485
435
443
480
524
588
482
459
486
508
527
524
519
491
505
534
546
530
489
493
507
428
402
533
532
664
526
504
488
512
476
524
523
496
503
503
494
508
519
500
452
447
512
616
526
518
551
529
480
473
526
519
463
466
443
487
619
633
510
507
514
506
460
449
495
510
524
510
490
476
506
529
518
496
519
520
529
495
540
571
526
506
491
478
519
473
465
475
485
492
519
556
596
557
491
435
410
454
552
597
512
527
575
508
490
484
481
499
506
515
506
505
490
491
515
494
568
558
623
536
409
455
499
430
432
559
526
471
446
457
565
596
504
536
567
548
543
562
501
427
476
491
476
494
523
492
523
511
491
510
517
510
498
491
478
519
579
533
532
541
621
560
491
415
390
426
452
450
490
608
558
508
450
465
606
618
541
528
494
484
519
529
479
450
490
516
584
504
372
338
408
530
622
681
619
493
521
497
483
487
452
429
518
593
585
473
471
545
521
481
494
543
524
506
515
502
483
504
495
503
520
527
531
479
454
399
445
499
480
527
631
602
589
609
543
455
474
517
475
437
444
461
590
606
548
535
484
431
385
423
472
508
546
633
568
504
483
447
486
518
579
553
534
495
518
496
534
504
551
512
438
396
458
468
523
604
565
480
444
521
512
575
566
508
514
542
499
438
447
484
553
579
558
507
489
482
503
501
491
481
547
498
487
491
499
509
504
537
551
560
523
519
431
479
496
501
483
480
454
481
507
593
625
595
447
515
494
496
540
481
492
496
487
472
503
510
528
491
500
537
613
504
456
465
449
561
546
544
526
448
444
494
503
506
532
552
540
519
482
466
508
561
518
492
527
528
527
493
469
454
478
528
591
547
520
489
476
501
502
497
483
462
476
535
536
582
550
513
471
471
475
467
511
522
528
564
560
515
507
512
536
540
454
403
467
476
502
495
486
503
516
512
611
595
532
546
520
481
482
542
489
475
482
510
486
504
498
511
502
499
514
532
540
495
468
483
512
600
619
511
519
392
416
496
524
497
476
496
501
517
540
570
547
537
472
476
505
485
517
525
508
478
481
513
588
517
565
566
444
432
473
488
494
490
487
490
559
515
514
561
585
571
504
465
462
499
490
518
479
482
508
532
582
508
492
522
520
509
463
473
499
557
551
498
469
521
507
484
456
436
484
518
563
576
567
534
520
504
502
506
510
509
498
512
516
512
521
415
372
423
484
553
608
565
575
516
505
556
535
527
497
474
474
521
554
543
494
462
436
461
499
519
521
519
514
561
512
464
449
476
499
575
569
531
508
488
497
464
485
546
587
510
487
552
514
445
474
533
534
545
516
497
479
486
462
445
472
540
554
563
534
557
555
522
475
458
467
495
523
526
525
472
494
519
495
448
463
515
569
577
528
504
509
514
534
501
497
484
481
521
530
544
537
521
497
462
490
525
547
502
455
416
444
517
557
525
518
524
531
540
560
543
510
466
441
456
532
554
532
526
518
489
518
548
538
472
464
458
448
498
513
536
532
540
539
479
477
518
506
485
499
502
576
571
527
502
467
475
525
529
536
518
499
490
515
499
515
426
407
501
586
603
555
506
498
509
504
505
481
489
517
521
513
516
504
478
479
487
480
509
570
551
496
495
473
536
545
543
509
499
478
513
536
512
489
486
493
511
526
530
525
514
532
452
430
461
535
536
513
514
537
527
494
483
483
519
541
515
500
465
467
492
555
586
535
508
521
533
536
513
518
460
484
471
489
497
516
507
502
507
532
530
509
507
498
488
509
534
508
513
518
541
529
487
435
417
451
551
553
536
542
506
514
519
503
506
514
524
539
528
500
459
469
537
529
500
463
486
538
516
493
514
533
540
534
499
478
507
519
543
524
472
518
491
436
459
484
519
525
524
566
549
517
529
516
491
497
488
565
544
524
476
440
451
447
543
569
531
495
477
515
513
551
531
515
497
481
516
521
510
527
492
498
489
472
476
476
556
569
521
529
520
503
444
507
530
505
489
485
510
503
506
496
494
537
552
526
490
448
486
537
567
575
535
528
520
493
460
491
535
540
516
488
475
469
474
471
504
519
528
586
580
494
410
434
531
511
508
496
452
473
543
586
572
553
540
519
534
498
458
425
458
496
525
552
530
521
515
535
522
543
541
498
419
400
408
475
533
558
554
529
560
530
508
510
537
542
515
481
484
446
483
502
544
582
487
501
486
527
519
506
538
531
508
493
448
483
508
511
556
556
542
496
468
418
470
523
500
492
543
592
567
534
444
399
368
478
633
596
566
504
519
563
548
524
475
444
490
465
444
421
491
635
621
551
538
516
512
482
519
462
409
424
470
559
512
483
518
574
562
509
551
567
516
479
457
484
554
497
476
486
508
492
463
478
475
524
561
551
474
493
531
600
548
487
502
466
494
512
534
584
500
441
448
496
576
626
605
408
354
428
510
614
596
515
467
460
526
477
484
524
485
504
502
552
559
499
508
496
529
492
441
525
571
564
622
539
430
410
480
491
481
467
475
510
508
494
450
441
509
575
633
631
543
499
503
494
524
512
476
458
450
495
580
543
508
472
446
491
541
536
513
547
519
503
503
496
515
534
496
475
455
459
545
541
567
494
437
454
489
545
568
533
502
514
531
534
525
523
522
487
448
453
473
513
497
528
516
513
572
531
507
518
543
532
485
450
431
464
487
568
615
541
480
455
485
529
515
516
493
508
524
512
520
492
481
475
514
593
553
485
498
514
510
483
480
490
484
486
518
508
558
603
493
487
507
530
517
425
427
500
551
556
518
503
499
520
521
522
517
487
463
485
496
539
499
467
507
550
610
559
519
498
497
474
481
510
484
519
493
477
479
513
501
534
571
541
508
466
431
449
596
604
564
501
435
440
471
486
494
512
480
523
550
569
574
497
530
514
487
484
496
529
537
498
501
484
500
522
489
495
487
510
519
492
476
463
533
583
532
516
509
496
473
534
508
487
496
524
524
519
497
504
514
511
504
513
528
533
515
487
489
487
470
473
525
549
531
545
535
511
492
511
521
518
535
519
480
473
446
499
505
551
526
490
481
491
513
533
519
509
499
505
536
540
522
531
524
493
472
482
520
510
497
509
503
471
442
463
496
558
560
524
509
513
560
627
473
464
510
496
457
454
523
527
457
461
528
549
543
513
516
504
517
519
514
521
527
484
497
513
495
463
467
510
591
621
556
467
444
460
486
512
506
510
519
515
514
508
495
484
523
525
525
500
495
486
446
456
504
523
606
567
519
531
554
555
478
469
489
481
490
493
440
553
597
493
469
475
480
478
537
544
523
516
526
529
499
464
455
516
576
508
500
468
498
533
511
518
526
542
537
488
496
524
525
491
500
501
503
494
502
518
518
504
493
491
515
481
478
495
499
492
497
533
584
581
533
497
478
484
500
493
496
481
536
543
490
487
479
551
531
511
480
496
542
556
520
501
501
507
510
509
491
491
488
531
471
459
496
518
526
515
523
504
536
527
519
518
510
524
550
516
489
480
495
479
468
484
477
497
569
546
516
490
494
546
556
553
541
508
488
471
464
466
477
499
503
526
524
506
508
511
495
533
568
543
589
504
415
457
464
472
474
510
554
568
558
471
472
480
525
540
554
529
533
530
478
500
517
489
501
515
532
541
428
409
475
494
498
515
531
544
567
542
507
491
465
501
540
522
554
540
489
443
447
470
554
596
546
498
467
453
454
518
567
558
549
540
518
486
457
491
511
511
553
538
430
468
458
502
546
559
519
475
454
510
539
599
538
542
520
499
468
460
460
481
509
524
534
517
513
512
513
530
505
491
496
510
547
526
490
455
473
478
495
560
559
497
502
521
531
552
509
499
519
484
484
506
537
535
490
493
496
461
441
432
497
536
616
576
525
483
502
494
536
551
523
512
483
465
474
489
518
510
493
517
534
525
508
502
499
495
519
515
487
476
498
520
529
576
554
519
495
480
459
475
519
560
539
482
460
504
495
568
521
507
508
507
504
505
513
503
487
495
495
498
512
511
536
526
499
487
466
465
504
549
604
583
556
487
470
456
455
499
512
504
489
488
522
548
524
512
518
515
513
519
531
497
489
488
482
521
506
470
502
526
515
487
485
507
524
529
536
546
531
528
519
503
479
460
451
468
531
543
552
550
513
503
488
493
496
512
536
527
520
518
516
511
497
479
475
487
487
499
497
507
524
489
491
546
608
606
547
466
428
481
498
489
502
514
513
507
499
501
520
507
504
504
504
504
489
503
534
517
524
508
492
536
511
490
502
531
555
544
478
459
480
517
538
530
506
469
469
473
542
572
514
528
507
540
518
499
483
493
499
490
496
484
485
479
521
572
504
471
525
560
567
552
500
484
495
501
494
487
480
494
497
502
514
510
508
507
519
520
522
567
559
525
492
428
414
479
526
520
511
497
502
502
465
516
577
558
520
535
542
507
495
509
482
488
486
507
516
501
490
491
515
535
528
512
504
483
493
499
533
543
535
505
495
489
486
508
519
507
500
513
516
526
538
520
537
512
475
459
412
462
539
556
564
493
486
487
494
499
537
552
530
508
489
500
512
531
535
513
522
523
513
495
488
508
521
512
504
476
417
504
497
515
519
517
530
527
508
509
498
508
515
543
516
481
527
528
482
495
510
543
520
508
503
496
508
487
487
509
524
548
520
518
504
495
497
501
489
494
477
489
519
542
536
517
479
472
521
532
521
537
537
519
490
450
442
479
529
542
540
574
527
488
501
499
498
502
518
516
508
487
497
512
564
510
521
515
480
462
480
496
485
477
505
552
556
527
511
507
511
522
516
521
520
483
429
470
507
543
534
507
504
526
583
547
483
484
480
480
504
504
508
512
508
528
516
518
511
510
507
504
488
486
491
495
494
531
534
517
530
539
530
504
512
522
490
486
504
500
492
495
495
505
516
534
533
516
484
490
508
512
511
489
479
540
555
561
497
418
429
450
573
577
494
472
513
547
563
568
531
504
506
535
496
480
436
444
461
478
494
527
532
575
542
506
552
551
545
533
512
480
452
455
473
523
512
496
494
487
489
515
517
530
524
539
544
493
480
482
525
543
500
501
509
495
477
503
527
522
526
505
502
505
502
511
509
530
499
505
496
457
420
455
544
600
652
615
518
480
463
471
439
473
549
528
506
507
511
485
483
558
617
540
423
423
381
439
554
639
553
422
458
502
486
568
537
532
593
607
565
483
441
472
525
537
487
421
470
501
510
494
491
500
540
490
491
537
536
568
500
456
496
519
512
492
509
550
520
473
496
536
510
508
481
532
541
522
532
508
496
494
496
520
519
530
474
430
448
518
571
581
536
486
470
490
533
545
499
517
546
545
526
480
426
414
465
467
481
547
553
624
527
489
524
531
509
506
496
508
503
499
506
510
522
481
483
478
555
551
486
487
499
557
525
504
492
414
436
491
513
543
535
543
559
551
520
488
450
469
481
528
549
516
545
527
509
511
512
521
515
482
479
440
489
519
522
545
532
495
487
497
523
538
533
476
480
513
518
528
534
561
573
508
399
353
375
474
603
628
617
545
497
499
496
493
487
504
518
519
524
516
526
520
480
471
500
537
451
400
438
547
584
561
523
515
499
500
530
553
545
523
503
478
489
510
499
512
480
491
496
506
546
515
494
516
537
540
500
441
463
487
526
530
531
543
515
502
492
496
529
536
494
454
458
471
531
564
597
543
512
528
501
478
476
492
492
512
493
488
492
506
529
528
506
487
499
514
541
552
544
470
408
453
473
558
542
589
543
536
524
542
549
513
468
423
425
483
540
525
526
517
523
545
524
480
460
504
508
487
472
478
516
518
553
577
531
524
506
499
519
531
517
484
452
478
492
512
510
508
515
515
486
499
511
515
510
522
519
535
531
526
501
484
483
482
489
522
542
491
504
507
543
562
488
452
455
523
555
544
514
493
503
503
490
501
508
501
505
518
498
505
474
477
532
526
537
588
545
523
467
438
473
512
550
525
485
500
502
513
539
538
539
515
502
460
431
511
537
554
525
472
442
441
520
566
579
516
505
528
515
502
496
499
495
509
514
529
511
519
470
472
513
515
546
556
503
493
506
503
497
502
485
472
487
517
513
504
508
525
551
557
555
536
474
433
432
486
509
506
536
551
543
544
476
503
498
517
524
505
489
490
499
516
508
486
473
467
519
552
569
529
525
543
519
502
439
444
472
511
534
537
542
518
481
505
546
590
518
450
475
498
511
514
507
478
462
473
535
563
543
534
532
521
509
471
446
466
501
526
521
479
475
498
557
570
536
540
524
504
500
500
512
500
469
449
524
565
582
499
464
460
447
439
471
505
539
593
568
555
518
515
528
504
483
492
521
537
501
476
463
429
514
504
556
568
509
504
497
508
512
516
517
491
449
410
468
578
610
573
493
534
540
529
512
486
475
481
520
536
481
470
480
450
527
545
482
480
544
557
625
556
472
460
462
532
487
465
416
505
589
576
561
569
439
382
404
440
580
614
540
480
455
432
519
549
491
512
633
641
545
434
411
460
583
567
533
501
486
480
499
487
470
478
491
468
405
403
504
665
709
701
523
420
486
487
429
435
512
572
541
509
480
443
511
579
496
474
523
564
552
478
398
400
461
498
486
525
558
678
691
579
514
449
418
431
432
507
526
505
548
560
506
484
446
466
430
492
574
577
590
505
447
448
486
583
639
535
551
495
419
454
451
460
496
540
520
492
464
479
606
505
531
582
541
575
519
533
542
403
385
371
570
560
526
464
504
527
561
578
541
497
435
483
507
486
460
512
556
556
525
496
411
438
491
752
649
455
396
426
534
515
515
535
515
506
487
376
470
472
606
598
561
540
519
512
437
463
492
518
530
542
524
447
418
476
546
551
460
534
543
505
610
522
514
514
499
487
485
476
504
497
486
530
507
518
464
587
540
496
526
509
523
497
470
490
479
488
540
547
511
492
499
509
531
529
476
501
480
512
511
481
499
475
479
489
573
559
597
606
517
445
333
430
590
521
543
645
533
492
417
373
473
528
591
562
524
483
476
497
557
530
431
440
498
563
580
543
488
522
496
486
502
499
520
506
509
541
516
513
546
528
466
429
469
440
480
563
556
568
551
492
460
488
511
541
546
512
504
491
483
462
463
523
515
544
597
533
508
487
497
564
548
478
435
417
478
483
519
611
595
494
413
430
481
519
516
515
539
540
522
432
486
575
677
566
516
482
438
489
500
505
506
500
500
468
502
507
517
534
522
530
475
398
459
543
592
556
539
505
502
533
537
503
459
468
502
591
581
469
348
449
406
540
588
542
539
500
530
554
534
508
486
497
521
532
477
431
483
558
595
524
504
550
463
467
500
524
524
528
509
488
507
465
477
480
489
532
504
475
486
537
544
523
516
485
511
552
534
491
542
533
495
522
561
487
479
473
493
506
526
538
507
490
481
494
528
502
496
490
504
515
523
507
483
486
518
532
543
529
492
473
495
535
560
543
520
478
454
493
462
437
465
548
539
547
574
558
505
507
535
517
503
491
487
486
485
519
512
496
488
473
508
518
522
553
526
558
543
519
480
464
452
474
505
536
539
511
488
511
520
476
508
521
530
564
492
487
510
512
523
497
498
454
482
512
494
546
535
534
497
513
557
438
448
513
574
518
531
536
502
524
505
495
491
499
504
491
524
516
493
481
488
465
446
540
545
530
553
579
535
511
517
448
414
407
549
609
599
533
485
495
479
495
480
485
526
566
525
516
481
480
512
519
521
504
487
499
501
510
511
505
478
480
489
526
579
543
520
497
503
501
512
480
470
491
519
546
538
532
534
530
485
457
439
475
514
559
540
517
520
555
531
537
470
443
468
489
492
512
508
508
506
536
520
515
523
512
549
552
569
534
490
484
433
440
459
537
549
512
493
473
478
491
520
522
529
549
539
551
503
514
477
479
535
532
522
511
506
512
498
484
495
473
484
508
522
544
545
537
528
479
456
481
498
530
509
505
548
557
511
498
459
430
464
492
469
533
548
539
541
519
494
491
477
494
491
498
518
519
457
451
509
539
507
452
421
492
492
524
496
479
498
521
509
508
494
479
494
495
520
501
491
513
508
505
503
495
507
512
510
521
523
518
516
514
505
519
485
472
491
535
550
490
447
478
543
572
559
551
529
519
548
547
536
522
471
461
510
489
483
519
546
541
553
498
484
476
514
510
506
495
498
550
559
571
521
509
489
507
519
525
534
547
534
543
526
508
532
551
537
529
451
485
511
511
513
537
516
499
491
517
534
535
529
524
529
530
536
536
530
523
512
501
489
476
468
469
461
473
487
499
495
503
505
568
622
571
565
530
443
440
466
484
489
518
538
535
504
527
537
515
504
481
467
480
494
511
512
506
536
551
543
499
394
341
368
493
604
593
516
448
431
489
576
620
603
554
489
478
505
549
545
507
480
483
497
490
490
491
484
484
494
515
524
500
493
544
582
610
587
495
456
462
417
509
542
507
510
542
533
516
503
501
492
484
537
554
548
537
516
494
483
513
494
482
488
524
569
525
492
477
487
499
514
531
502
499
486
473
489
497
512
481
467
515
567
548
509
495
470
484
512
515
497
518
508
456
438
442
512
543
528
462
505
541
563
584
547
524
519
480
479
507
521
532
518
505
503
512
530
507
505
512
478
495
452
438
530
563
565
535
518
502
511
512
509
514
519
515
503
505
500
524
535
519
480
441
424
517
548
539
473
417
485
574
557
529
511
514
525
533
495
452
435
494
546
563
519
476
486
519
481
499
495
495
492
519
561
548
536
537
503
465
481
472
491
556
523
495
512
449
467
508
502
503
488
528
586
560
544
534
516
501
505
491
454
448
478
486
502
573
571
541
500
480
487
508
529
523
472
483
527
544
538
519
494
499
500
493
489
511
504
502
519
510
522
512
486
475
478
507
523
539
519
494
472
474
511
560
495
489
526
501
486
485
496
495
562
615
544
498
475
476
482
501
509
502
504
514
507
507
515
505
493
494
516
559
523
515
514
509
480
479
477
477
530
515
528
508
521
525
504
487
492
475
492
533
534
553
516
493
506
521
529
486
464
467
511
534
510
535
508
498
487
509
531
562
560
524
515
504
488
497
504
496
506
551
555
534
489
436
471
504
492
488
525
518
511
512
523
534
520
511
508
509
508
509
505
495
503
518
496
471
451
470
573
624
556
494
519
492
479
487
488
506
506
504
488
504
515
511
499
508
509
518
516
512
484
492
520
513
524
518
513
512
499
499
484
486
508
530
556
547
513
497
496
501
511
516
515
515
544
528
483
473
419
453
519
550
517
489
508
530
526
525
518
517
516
508
512
510
508
510
504
499
477
481
509
494
497
574
563
543
533
523
513
505
491
481
483
489
491
498
529
535
514
510
496
498
495
509
507
518
514
493
445
432
489
559
563
549
531
508
510
509
502
502
500
496
496
498
513
505
496
515
532
504
444
483
495
553
603
554
515
497
496
496
500
497
497
499
501
504
509
509
511
511
509
507
509
515
513
506
506
505
523
523
509
514
501
500
500
504
504
509
508
509
513
513
513
510
513
506
504
495
499
518
540
537
496
476
486
496
494
499
491
523
547
544
531
512
509
508
506
505
505
505
504
505
504
505
505
501
493
489
486
495
525
533
546
543
544
515
500
500
499
499
496
499
502
516
536
518
505
474
483
506
498
494
499
512
523
516
504
508
506
509
514
515
513
514
516
515
511
499
503
512
511
514
512
511
509
500
507
501
503
510
512
511
512
499
501
502
505
507
512
515
513
506
500
496
511
531
545
534
524
504
500
512
516
496
464
487
490
491
511
515
518
515
515
517
516
517
515
511
507
506
503
504
503
503
503
504
509
508
510
510
507
518
524
515
509
507
509
502
500
491
491
502
509
523
509
511
510
513
513
510
511
515
512
511
512
514
509
506
506
465
499
507
489
497
560
551
513
496
497
515
520
513
512
507
504
506
506
506
501
500
508
509
511
521
513
508
515
515
508
509
507
511
519
517
505
497
499
504
506
508
503
500
499
503
504
515
514
510
508
508
515
511
512
507
505
506
507
507
508
507
505
500
502
508
508
506
507
508
512
518
512
512
512
511
513
511
505
502
503
503
504
498
500
503
509
515
514
514
513
522
526
516
516
510
508
507
504
501
499
503
497
496
501
502
507
511
510
512
520
518
515
512
515
512
511
504
504
504
507
505
501
502
502
504
505
508
511
512
512
513
512
512
513
512
511
510
509
504
504
501
501
504
503
506
505
508
510
513
512
512
513
514
512
511
508
505
508
505
503
503
502
503
502
502
505
508
509
512
510
512
511
509
511
511
510
507
507
507
504
504
505
509
508
511
514
515
517
517
517
517
519
519
520
514
514
512
511
507
505
503
504
505
504
508
508
511
515
514
512
515
516
515
516
511
510
509
508
507
504
504
505
502
506
507
508
508
510
512
512
514
516
512
514
514
509
506
506
503
501
500
500
502
502
504
508
510
512
512
512
515
515
513
514
509
510
508
504
502
504
504
502
502
504
504
507
509
510
512
515
515
513
515
514
513
511
507
506
503
503
503
501
503
502
504
508
508
510
511
512
511
514
512
511
510
508
508
507
505
503
501
502
502
503
505
509
511
508
510
512
515
513
514
513
509
511
509
509
505
503
502
502
505
504
505
507
509
511
513
512
512
512
514
513
511
510
508
507
505
504
504
502
504
503
505
509
510
511
511
513
513
513
516
514
512
510
507
506
504
503
505
503
504
503
504
507
509
511
511
514
514
514
513
514
510
507
508
508
506
504
502
502
504
507
506
507
510
512
512
511
512
515
515
513
509
507
507
508
507
506
504
503
503
505
507
506
510
511
513
512
514
515
515
513
511
508
507
508
504
504
503
502
503
505
505
505
509
511
510
512
512
515
514
512
511
509
508
508
506
504
503
504
502
504
505
507
508
511
514
512
514
514
515
512
515
511
508
507
503
504
504
502
502
505
506
509
509
512
513
512
514
511
514
512
511
511
507
506
503
503
503
501
504
504
506
508
510
510
511
513
512
515
512
513
512
508
507
507
507
505
504
502
501
504
505
507
509
510
512
513
513
513
513
512
509
508
509
507
506
505
502
504
503
507
507
508
510
511
513
515
515
512
513
515
511
510
507
507
507
503
501
503
504
504
505
508
508
510
511
512
512
513
513
514
513
510
507
508
505
503
502
504
504
505
507
508
508
512
512
511
514
512
512
513
512
508
508
506
506
505
500
501
503
504
505
508
509
510
514
513
512
514
514
514
512
510
508
506
505
504
503
501
501
504
506
509
510
511
512
512
515
514
515
513
512
508
507
506
504
502
502
503
504
504
506
508
508
512
512
513
515
513
511
512
511
509
510
507
508
504
503
504
504
503
505
507
508
511
510
513
515
515
513
513
509
509
507
507
505
504
504
504
502
504
508
508
509
511
513
513
514
514
517
515
511
511
507
505
505
504
503
504
502
503
504
508
508
512
512
512
513
514
515
513
511
509
509
508
505
505
501
503
504
504
505
507
508
511
513
513
516
512
513
513
511
509
508
506
505
503
503
502
503
504
504
509
508
511
513
512
511
515
514
512
511
510
507
509
505
503
504
504
506
503
505
508
511
512
513
513
514
512
514
515
512
510
508
505
506
503
503
504
505
503
505
506
508
509
512
512
512
512
515
512
513
511
509
508
505
503
503
502
504
504
507
508
509
511
514
512
513
514
515
512
510
509
508
508
505
503
505
503
502
504
505
506
508
510
512
514
512
514
512
511
511
509
506
508
504
504
503
503
504
504
507
509
511
511
513
514
512
513
513
512
510
509
507
508
505
504
504
503
503
503
508
510
508
512
511
515
512
513
514
512
511
509
507
507
505
503
505
504
504
505
506
509
507
512
512
513
514
514
513
512
508
508
508
508
506
503
505
503
504
502
505
508
510
510
512
512
514
512
513
512
511
510
507
506
504
504
504
503
505
508
508
508
511
509
514
513
512
512
513
513
512
509
507
505
505
504
503
504
504
506
506
509
510
511
513
512
511
513
512
512
512
510
508
508
505
504
502
503
501
505
505
508
511
513
514
513
513
515
513
515
511
508
508
509
507
504
503
504
504
502
505
509
509
511
512
513
515
513
513
511
511
511
507
507
506
504
504
502
502
504
506
509
508
511
513
512
514
514
515
515
512
510
506
507
505
502
502
504
505
506
504
507
510
512
512
512
514
513
512
510
510
509
506
507
504
505
503
504
502
505
507
507
511
515
513
514
516
513
513
512
510
510
508
509
506
501
500
502
503
503
504
509
512
512
513
513
514
513
512
512
510
509
509
505
504
505
503
504
504
503
505
508
508
510
512
513
518
514
511
512
509
508
508
508
505
504
503
504
505
505
507
507
511
510
512
515
515
513
511
511
510
509
508
508
505
505
505
503
503
503
505
506
509
513
514
512
513
515
512
513
511
510
507
507
504
502
502
504
502
504
504
508
509
512
515
513
515
512
515
512
509
507
509
506
505
505
503
502
504
504
510
507
509
512
514
513
514
515
513
511
510
512
507
505
504
503
503
502
502
503
506
508
510
511
513
512
514
515
515
512
508
510
506
506
504
503
501
504
503
504
506
510
511
512
513
514
515
513
512
513
512
509
508
505
507
504
503
502
501
502
506
510
511
512
512
514
513
513
514
513
510
510
507
505
504
505
503
503
502
503
508
508
510
510
510
513
514
514
511
512
511
510
509
506
503
503
504
503
505
506
506
511
508
513
514
514
514
515
513
512
512
508
508
508
505
504
502
500
504
504
506
508
511
511
511
514
515
514
511
513
511
510
508
505
507
501
504
504
503
505
504
508
510
511
512
515
514
512
514
512
509
510
508
507
507
503
502
503
504
505
506
509
509
512
512
514
515
512
512
514
510
509
507
506
504
503
503
504
503
504
505
507
509
512
514
515
515
513
515
513
508
506
505
505
504
505
504
504
505
503
508
509
509
512
512
512
514
516
512
511
511
508
507
505
505
502
504
500
504
507
508
510
511
513
515
514
513
514
514
512
510
508
505
505
504
503
502
503
503
505
507
510
509
512
515
513
515
514
512
514
510
509
508
504
502
503
504
503
505
505
507
507
511
512
512
513
513
514
511
510
510
511
509
507
506
503
505
503
504
504
507
508
511
511
512
513
515
514
514
512
509
510
507
506
505
504
501
504
505
502
507
508
509
512
511
513
514
514
512
512
511
507
507
507
505
505
505
504
505
506
507
508
509
511
512
512
514
514
512
513
512
509
507
507
505
501
503
502
503
505
506
506
512
512
513
513
515
514
512
514
512
507
507
504
503
502
504
503
505
504
508
510
509
510
513
514
514
513
513
512
512
510
507
507
504
507
502
502
501
503
505
507
508
509
511
514
515
513
513
513
512
508
507
507
505
504
504
503
501
505
508
510
510
509
513
513
515
514
512
514
509
509
507
506
504
503
503
504
504
504
505
508
510
511
515
514
515
514
515
513
510
509
504
505
505
502
504
502
502
505
505
508
510
511
513
514
515
512
513
513
510
510
509
506
505
503
503
504
502
504
509
508
510
512
514
516
513
514
513
511
508
508
507
504
505
503
502
504
504
504
507
509
510
511
514
512
515
514
515
512
510
508
509
508
505
503
502
502
504
507
507
509
512
512
512
512
513
515
512
513
510
508
508
507
506
505
504
502
501
504
505
509
510
513
514
512
512
513
514
512
510
510
509
506
504
503
502
503
502
506
506
512
511
512
512
514
514
515
512
514
512
509
506
504
504
503
502
504
504
504
509
508
510
510
513
514
513
514
513
511
512
510
506
506
502
503
504
503
505
506
506
508
508
511
512
512
511
515
512
513
510
508
507
506
504
504
503
503
508
503
505
508
508
511
512
513
514
511
515
513
510
508
507
505
505
504
502
501
505
504
507
509
511
513
512
510
514
514
513
511
511
509
507
507
504
506
502
503
502
505
505
508
509
510
515
512
513
516
515
512
511
509
507
507
504
505
503
505
503
504
506
508
509
511
513
512
515
513
512
513
513
512
504
504
503
503
503
504
503
505
508
507
510
515
515
512
513
512
513
513
511
509
507
507
503
502
504
504
504
506
506
509
511
514
512
513
513
513
512
512
510
510
508
505
505
506
504
503
503
505
506
508
511
511
515
511
514
515
513
512
511
505
506
506
503
502
503
503
503
505
510
509
510
511
513
514
514
514
514
514
510
507
507
506
505
504
500
503
503
507
506
510
508
511
513
514
514
512
511
510
510
508
505
506
503
504
503
504
506
506
506
508
511
513
514
514
515
514
515
510
510
508
507
504
504
500
501
504
505
506
508
510
509
511
515
514
513
514
513
512
509
507
507
507
505
503
504
505
503
505
507
508
511
512
513
514
514
516
511
510
509
506
506
506
505
504
503
502
505
504
507
511
512
514
515
517
514
512
512
512
511
508
507
508
503
503
503
501
504
505
504
508
511
511
513
514
515
515
512
511
511
508
508
506
503
504
504
502
504
504
508
508
511
514
514
515
515
514
513
512
509
508
507
504
505
502
504
501
504
506
506
508
510
514
513
511
511
515
511
513
510
508
506
507
504
505
502
504
504
504
507
507
511
510
512
513
515
512
514
513
510
509
505
505
505
501
503
503
504
505
508
510
510
512
514
514
512
513
513
509
510
508
508
504
505
503
503
503
504
504
506
509
509
511
514
512
515
515
513
513
510
507
507
506
503
504
500
505
504
508
509
510
512
511
511
514
512
514
513
511
508
508
507
506
504
501
501
503
506
506
510
509
511
511
513
514
513
514
513
512
511
508
504
506
504
502
504
503
504
504
508
510
510
512
512
517
515
513
511
511
509
507
506
507
504
503
503
503
502
504
508
511
512
513
513
514
515
513
513
512
509
509
506
505
504
503
502
502
505
507
508
508
511
512
513
515
515
513
512
513
510
508
507
504
504
503
504
503
505
506
508
508
511
512
512
514
514
514
512
513
509
507
507
505
503
504
502
502
505
505
507
509
509
512
512
516
513
512
513
512
511
510
507
506
504
503
502
503
506
506
507
510
512
514
511
515
514
513
512
512
511
507
506
507
505
502
503
503
504
507
507
509
510
512
512
514
513
515
514
510
508
508
507
508
505
504
505
503
505
504
505
510
510
513
512
514
513
514
511
513
509
509
508
505
504
502
503
505
505
505
508
510
510
512
512
513
513
512
513
514
511
509
507
505
505
500
503
504
504
507
504
508
511
511
513
514
513
513
513
511
511
508
506
506
503
502
503
501
504
505
508
510
508
512
512
514
515
513
512
511
509
507
508
507
505
502
503
506
503
506
507
510
511
513
515
515
513
512
514
513
510
506
505
505
503
502
503
505
505
506
507
508
510
512
514
513
514
513
512
510
508
509
507
507
504
505
505
502
504
505
508
511
512
513
513
513
513
514
511
513
509
506
506
507
507
504
504
504
503
504
506
506
511
513
512
515
512
514
515
511
511
508
506
504
503
502
504
504
507
507
508
510
513
513
512
513
514
513
515
512
512
509
505
506
504
504
502
502
505
505
509
510
511
512
513
513
512
515
512
511
508
509
506
507
503
503
503
502
504
505
508
508
510
513
513
513
514
513
512
513
511
509
506
506
506
502
502
504
502
504
507
509
508
512
513
514
513
516
516
512
509
508
508
505
504
504
503
500
502
504
507
508
511
515
513
514
514
513
515
513
510
507
508
506
504
503
502
505
505
505
507
509
511
512
513
513
512
512
511
512
509
507
508
505
503
501
502
504
504
504
508
510
511
513
512
514
513
515
514
515
509
506
507
505
505
504
502
504
503
505
507
510
511
514
513
513
514
511
511
513
510
510
508
506
505
504
505
503
504
506
509
507
509
513
514
515
512
512
513
512
510
506
503
505
504
504
503
503
505
505
507
511
512
512
516
514
514
512
512
511
509
507
506
505
503
503
504
504
502
504
507
510
512
512
512
513
514
513
513
510
509
507
508
505
504
504
503
503
503
507
508
508
510
512
512
513
515
513
513
512
508
507
507
505
504
502
502
503
507
506
508
511
512
513
513
515
513
512
514
510
510
507
507
506
504
501
500
502
505
506
511
511
511
511
512
514
515
511
515
511
511
507
507
506
503
503
503
503
504
507
509
509
508
509
512
514
512
515
513
512
511
508
506
506
505
505
504
501
503
504
507
510
510
513
511
515
515
514
513
513
511
510
506
504
503
503
504
502
504
507
507
508
509
511
512
513
516
514
513
510
511
507
508
506
505
503
502
501
504
505
508
510
512
512
512
512
513
515
512
511
510
510
507
508
503
504
502
503
506
508
507
510
510
513
514
517
515
515
512
510
511
509
506
505
504
503
501
502
504
505
508
510
512
513
513
513
513
512
515
511
510
508
505
506
503
503
504
504
503
505
507
510
508
512
512
514
514
513
513
510
510
509
508
507
502
503
501
505
503
505
509
509
509
511
513
514
515
515
514
511
510
508
508
507
504
503
503
501
504
506
507
509
512
510
512
510
512
512
513
513
508
507
506
507
505
503
502
505
505
505
508
509
511
514
511
514
516
515
515
513
508
509
507
505
504
502
503
502
504
504
508
511
511
513
513
512
513
514
512
513
509
510
506
508
504
502
501
502
504
505
507
511
513
512
513
513
513
513
512
511
509
507
505
504
503
499
502
502
504
508
508
510
513
511
513
518
518
514
516
513
510
507
505
504
503
504
504
503
504
507
505
508
512
510
512
512
515
513
513
513
509
508
507
503
505
502
501
504
506
506
509
510
511
512
511
512
513
513
514
512
511
508
505
507
505
505
503
501
502
507
508
507
510
511
512
513
515
513
513
512
510
508
508
503
507
502
505
504
504
506
507
509
510
511
511
513
515
513
512
510
511
509
506
505
504
503
504
505
506
505
509
509
510
511
512
512
515
514
513
511
510
508
506
504
503
502
504
502
503
506
507
508
509
512
514
514
513
514
512
513
510
508
507
503
503
504
501
502
504
506
510
511
512
511
513
515
514
513
516
511
510
508
506
503
505
503
504
506
505
504
507
509
512
513
513
516
514
513
511
511
508
509
506
504
502
503
502
504
505
508
508
509
510
512
513
515
515
513
510
511
508
509
507
505
505
504
503
503
507
504
508
508
509
512
514
513
515
513
512
511
508
508
508
504
505
504
503
504
505
506
508
510
511
512
513
514
512
514
514
511
509
508
507
507
502
504
502
504
504
507
509
509
511
513
513
513
513
511
512
510
507
505
505
505
504
504
504
502
505
507
508
508
511
511
514
514
512
516
512
511
509
510
505
505
505
505
503
502
505
504
506
511
513
512
513
515
513
513
511
513
509
508
507
506
506
502
503
503
505
508
507
509
511
514
514
515
513
513
512
512
509
508
505
507
504
502
503
503
505
504
507
511
509
512
515
513
516
514
511
510
510
507
504
502
503
502
504
505
505
508
508
508
511
513
514
516
514
512
514
513
510
509
505
505
505
502
502
503
507
505
507
508
511
512
513
514
513
513
515
511
509
509
508
505
504
503
504
504
505
505
507
508
512
515
514
514
513
514
514
511
508
508
505
505
504
505
503
505
506
508
508
506
511
513
513
512
515
513
513
511
510
510
505
504
502
502
502
503
505
506
507
507
510
512
511
515
513
514
513
511
511
508
507
506
504
504
504
503
504
507
508
511
512
514
511
513
513
513
510
509
509
508
507
506
503
502
505
504
504
507
509
508
511
512
513
514
513
514
512
509
509
507
506
504
507
505
504
505
506
507
508
508
512
510
511
513
515
512
512
512
509
507
506
504
504
504
501
505
504
508
508
511
511
511
514
512
514
515
514
511
510
507
507
507
504
502
502
502
504
506
507
510
511
513
512
513
512
514
514
513
509
508
505
504
502
504
502
504
503
507
508
510
511
512
512
514
515
514
513
511
511
507
505
506
503
502
502
502
505
507
508
510
509
511
511
514
515
513
513
510
508
506
506
506
505
504
503
504
504
506
508
511
512
514
514
514
514
514
513
510
509
509
507
505
504
503
503
502
506
506
508
512
512
512
513
515
516
512
515
511
510
506
505
504
504
502
501
504
505
508
509
509
511
512
512
512
515
512
514
510
509
507
503
507
505
504
505
504
505
508
508
509
511
512
515
513
513
512
513
511
510
508
506
504
504
503
503
504
505
508
508
509
510
514
512
513
514
512
511
511
509
508
507
505
504
505
501
504
505
507
507
508
511
515
512
513
513
514
514
513
509
510
507
505
505
503
502
502
506
506
510
510
513
511
513
512
513
513
512
511
508
508
505
505
504
503
503
506
505
508
510
510
511
513
512
513
514
515
513
512
511
508
504
503
502
504
505
503
506
507
508
509
511
511
511
513
513
514
513
512
509
507
505
504
504
506
504
506
504
503
508
510
511
512
512
515
512
515
511
510
508
506
507
506
505
504
504
503
505
505
508
509
513
512
515
515
515
515
511
511
509
506
505
506
503
504
503
504
504
505
510
512
511
511
514
513
515
514
513
511
509
508
507
504
502
502
504
502
505
507
508
510
511
511
514
514
513
512
513
510
508
508
505
506
502
503
505
505
504
506
507
508
511
511
511
513
513
515
513
511
508
506
508
504
504
504
504
505
503
507
509
512
512
513
513
513
511
513
512
508
510
509
506
504
505
504
504
504
505
504
508
509
511
513
512
514
516
513
513
511
511
508
504
505
504
503
502
502
504
506
506
511
511
513
513
516
513
514
513
512
510
507
507
504
504
503
503
503
505
507
508
512
513
511
515
515
513
513
512
507
509
505
507
503
503
501
503
503
503
502
510
511
511
514
515
515
513
515
512
510
508
506
505
504
503
501
503
503
504
505
505
510
514
515
515
513
514
514
514
511
509
507
506
505
504
502
503
506
507
509
508
510
512
512
514
512
514
513
511
508
508
507
503
506
502
504
504
504
506
505
508
511
511
514
513
514
515
513
511
511
508
506
506
507
504
506
505
503
507
507
508
510
511
512
512
515
516
512
511
510
510
507
505
505
502
504
503
504
505
504
509
508
511
512
514
514
513
515
512
510
509
507
507
506
501
502
503
503
506
507
507
509
512
511
515
516
513
512
512
510
510
508
508
507
503
503
504
505
504
506
508
512
510
512
510
514
515
512
512
511
510
507
505
503
504
505
502
504
505
506
509
509
509
512
512
513
514
515
512
511
508
508
507
504
504
505
504
502
504
508
509
509
510
513
515
512
513
513
512
509
512
511
508
504
506
504
502
503
505
505
507
508
510
511
512
515
512
515
513
511
509
508
506
505
504
503
501
503
506
505
507
508
512
512
514
513
513
513
512
512
508
508
506
505
504
503
504
504
505
507
508
510
512
511
513
515
513
514
512
512
509
508
506
505
503
504
503
505
506
505
509
512
513
512
513
511
514
511
511
511
508
509
506
506
504
500
504
503
505
507
509
512
512
513
513
513
513
513
512
509
510
508
505
507
503
501
503
502
505
507
511
511
513
512
515
516
514
512
512
510
511
507
507
507
503
503
501
503
508
507
509
511
510
513
513
514
515
515
511
511
510
508
506
503
501
502
503
502
508
510
508
511
510
512
514
513
514
514
512
511
508
508
504
505
504
505
506
505
505
507
508
509
511
512
513
514
515
514
512
510
509
505
504
502
502
502
504
504
505
508
510
510
512
511
513
513
513
513
511
509
508
507
507
505
503
502
502
505
505
508
509
508
511
515
512
513
513
511
512
508
512
506
504
504
502
502
507
504
507
508
510
512
511
512
512
516
512
513
510
511
508
506
508
504
503
501
502
504
505
507
507
511
512
511
514
514
516
512
513
512
511
508
504
505
500
502
504
502
507
507
509
511
511
513
514
514
513
514
513
509
507
508
503
506
503
506
504
504
507
506
507
509
513
512
514
513
513
513
512
508
509
506
504
504
502
503
506
504
506
506
507
511
511
510
513
515
515
514
512
508
508
509
504
507
504
504
502
503
506
505
510
510
510
511
512
513
513
514
513
511
508
507
504
504
505
503
503
503
504
507
508
510
511
514
515
515
515
512
513
511
507
505
508
506
505
504
503
504
504
508
508
510
512
513
515
514
514
511
513
511
511
508
506
504
504
502
503
504
504
505
508
510
510
511
513
515
513
515
512
512
509
507
506
503
504
502
501
503
504
508
508
511
512
515
515
514
514
512
512
509
509
506
506
502
503
501
504
505
506
506
508
508
512
513
512
514
512
511
511
511
509
507
504
504
503
505
504
503
506
507
508
509
512
511
513
516
514
512
512
509
508
508
507
504
503
502
503
504
505
507
511
509
512
514
514
513
513
513
511
511
509
506
504
504
504
505
503
504
505
507
507
510
511
513
511
515
513
514
513
508
509
506
505
505
502
502
504
504
508
506
509
512
511
514
514
515
514
514
511
512
510
504
504
503
503
504
504
503
504
507
509
509
512
513
515
513
514
512
511
511
509
508
507
504
503
504
502
503
508
509
507
512
514
514
515
511
513
511
512
511
508
507
504
505
502
502
502
502
508
508
508
511
512
513
512
514
514
512
514
510
508
509
504
503
504
503
503
506
505
508
509
512
513
513
513
515
513
511
512
508
508
506
505
505
504
503
502
502
505
509
507
510
511
513
511
515
513
513
513
510
506
507
506
505
506
505
504
504
507
505
510
509
512
514
512
513
513
512
511
510
507
505
504
504
502
504
503
504
505
506
509
511
512
514
512
516
512
511
513
509
507
506
506
504
503
504
504
504
505
510
508
510
513
512
513
515
513
513
512
512
508
503
505
504
503
502
502
505
509
508
510
511
513
512
514
513
514
515
511
508
508
505
507
504
504
504
504
503
507
508
508
510
513
512
511
514
513
513
512
511
506
507
506
504
504
502
503
503
508
509
510
508
515
513
514
513
513
513
511
510
508
507
504
505
504
503
504
504
506
508
508
511
511
513
515
513
515
512
514
511
507
506
504
504
504
504
503
503
506
505
510
510
509
512
513
516
512
512
512
509
507
506
506
504
504
502
503
504
508
505
510
510
512
513
513
515
515
514
511
512
506
505
504
503
501
502
499
503
507
508
510
513
512
516
514
515
512
513
511
511
509
507
506
504
504
503
502
503
505
508
510
510
511
514
513
515
515
511
511
508
507
506
504
505
505
503
502
502
506
509
510
511
514
513
512
514
513
511
511
509
510
505
506
506
502
502
504
503
504
505
509
512
511
512
512
515
515
513
511
510
509
507
504
504
503
504
504
503
507
507
509
511
511
514
513
513
513
513
512
509
507
505
505
504
504
504
504
504
506
510
510
511
515
515
511
512
513
512
512
510
507
506
506
503
503
503
503
503
507
508
510
511
514
515
514
513
513
514
513
509
508
508
505
502
504
503
504
507
504
506
510
513
512
514
511
512
515
513
514
510
508
506
504
504
504
504
503
502
505
505
508
511
513
514
515
514
513
512
511
510
507
508
507
504
505
504
504
504
507
508
510
511
511
513
512
513
513
512
513
512
508
507
505
505
505
503
505
505
507
507
508
511
511
511
513
512
512
512
512
510
509
505
504
506
502
503
503
505
506
509
510
514
510
513
512
512
513
513
511
510
507
508
506
505
503
502
504
504
505
507
510
510
511
513
515
515
515
512
511
511
507
504
507
504
501
504
504
504
507
508
510
512
510
513
512
514
513
512
512
507
508
507
505
505
502
503
503
503
508
507
510
510
513
513
513
514
512
513
512
508
508
508
507
505
502
503
503
504
507
505
508
510
512
515
513
512
514
508
513
512
509
508
505
503
504
503
504
505
508
509
508
511
513
511
513
516
514
514
511
508
506
507
504
502
503
503
505
505
507
504
509
512
512
512
513
515
515
513
512
512
507
508
502
502
501
503
503
502
507
508
509
511
513
513
513
516
513
513
512
508
510
506
507
506
505
503
505
504
507
506
510
513
512
512
512
513
512
512
512
509
507
505
505
504
504
501
504
503
509
507
510
509
512
514
515
515
513
515
512
508
508
507
504
505
503
501
504
503
505
507
511
511
511
513
515
513
513
511
510
509
508
505
504
505
504
505
503
504
506
510
511
509
515
516
515
513
513
514
511
509
509
504
503
503
503
505
502
502
505
507
511
511
511
516
514
513
513
510
511
508
507
507
508
505
504
505
506
505
507
509
511
514
512
516
513
518
519
519
518
513
513
510
510
509
508
506
507
507
505
505
505
505
505
507
508
509
505
504
501
496
492
495
497
498
497
498
502
505
511
514
516
519
524
526
528
530
527
522
518
511
507
500
496
495
491
492
491
497
504
507
511
515
516
517
519
519
517
511
508
504
500
497
495
493
493
492
499
502
509
515
517
519
523
525
524
524
522
516
512
507
502
498
493
494
492
494
494
501
506
512
515
519
523
525
524
522
521
516
512
508
501
500
496
494
493
495
496
500
506
512
515
516
519
523
524
522
523
517
513
507
502
498
494
495
492
493
496
500
507
510
515
517
521
523
525
524
523
516
511
504
503
498
496
493
492
494
497
500
509
511
515
519
520
526
524
523
519
516
513
504
502
498
495
494
494
495
499
502
505
512
517
519
521
524
524
522
519
516
509
507
500
496
498
495
491
493
496
503
508
510
516
519
522
524
525
523
523
512
511
507
504
499
495
492
491
493
497
503
507
510
516
520
520
523
523
524
519
513
512
506
503
500
496
493
491
492
496
499
504
511
515
519
522
525
525
526
519
516
512
504
502
498
496
493
494
493
496
502
505
510
515
518
521
524
526
526
519
517
512
506
501
497
495
493
492
495
497
502
505
509
515
520
521
525
524
523
520
517
511
505
504
498
493
492
492
498
497
499
504
509
515
519
522
527
524
523
520
517
512
506
501
500
495
494
492
496
497
501
507
511
516
519
521
525
525
524
519
515
511
504
500
499
495
493
493
493
495
503
505
512
515
520
521
522
523
520
521
517
510
508
500
499
497
494
494
493
497
500
508
512
514
518
522
523
523
521
521
516
512
506
499
499
497
495
492
493
497
500
506
510
515
519
522
524
524
521
519
515
511
506
502
499
495
494
494
495
498
501
508
511
514
519
523
522
525
524
517
514
512
507
500
497
495
494
492
494
497
502
508
511
517
518
520
523
525
524
520
514
511
507
501
499
497
495
493
494
498
504
507
510
516
517
522
523
522
522
522
515
513
504
500
497
496
494
491
493
499
499
506
512
516
518
523
523
524
525
520
515
513
507
502
497
495
494
488
492
498
500
508
511
516
517
522
524
523
523
521
516
511
506
502
499
493
494
493
494
498
502
507
511
515
519
523
523
525
523
520
515
511
503
498
499
496
495
492
495
497
503
508
512
516
518
523
524
523
522
518
514
509
504
502
499
496
494
492
495
499
502
506
514
517
517
521
524
524
524
517
515
510
505
502
499
496
493
491
495
498
501
507
511
516
520
523
525
524
523
519
515
510
504
499
499
496
493
495
495
498
502
507
511
516
520
521
523
522
522
518
516
511
507
502
497
496
492
492
491
499
502
505
513
516
518
522
522
522
524
519
516
513
507
503
496
493
493
493
495
496
502
507
512
517
521
521
524
525
521
518
513
511
509
501
499
495
492
494
494
497
502
507
510
516
521
523
524
524
524
519
515
510
507
501
497
496
495
493
492
498
503
508
511
517
517
522
524
524
523
519
514
510
505
500
500
496
493
493
491
497
501
505
511
517
520
521
526
525
525
522
516
512
504
500
499
496
493
491
491
497
502
508
511
518
521
521
524
523
522
520
515
510
505
502
500
495
491
491
491
497
503
508
513
514
519
522
523
523
523
520
517
509
505
505
496
493
493
493
494
494
499
505
511
515
518
521
526
525
524
521
513
510
504
500
497
496
495
493
494
497
504
508
512
515
518
521
523
523
523
520
516
511
509
500
497
494
494
492
494
499
502
509
510
518
519
523
523
525
522
519
513
512
505
500
498
495
494
493
495
499
501
506
511
515
519
523
523
524
524
521
515
508
505
500
498
497
492
492
495
499
504
509
513
517
519
523
524
524
522
519
514
510
507
502
497
496
493
491
493
497
500
508
512
517
518
521
523
522
522
519
514
511
506
502
500
495
494
494
493
497
499
509
513
515
519
521
524
524
521
520
516
510
505
501
500
493
493
494
493
496
499
506
512
514
519
521
525
523
521
519
512
511
503
500
498
495
494
493
495
496
502
507
513
519
520
522
525
523
522
519
515
512
506
502
498
496
494
493
494
499
503
510
512
516
519
521
524
523
526
520
516
508
504
502
497
495
493
495
495
496
502
508
515
516
517
518
525
524
522
518
515
512
506
502
498
495
493
491
493
495
502
508
512
516
519
523
524
524
523
519
514
511
505
503
497
495
493
490
493
497
502
510
513
514
519
523
527
524
523
520
515
511
504
501
499
495
494
494
495
499
502
509
512
518
520
522
524
526
522
517
514
513
507
501
497
494
494
492
493
498
503
507
513
516
518
520
525
524
521
521
515
510
502
500
497
495
496
492
494
497
501
506
510
515
518
522
524
524
522
519
514
512
505
499
498
495
494
494
495
496
503
508
513
516
519
521
524
523
524
519
514
510
506
501
499
496
492
491
495
497
501
506
512
516
519
522
524
524
524
519
516
511
504
498
494
495
493
494
493
499
504
508
514
518
521
521
525
523
525
520
515
508
504
500
500
494
495
493
495
496
502
507
512
516
519
524
524
524
524
519
516
510
504
499
496
495
495
494
494
496
502
508
514
516
521
523
524
524
525
521
513
509
503
502
497
492
494
496
493
496
503
507
513
513
519
524
525
522
521
519
514
510
505
499
497
494
492
492
494
497
503
510
515
516
519
522
524
524
523
519
515
511
503
501
497
494
494
492
494
496
502
506
512
517
518
520
524
522
521
521
516
511
505
500
501
495
495
495
494
499
500
507
513
517
519
523
523
522
520
520
515
509
507
502
496
493
493
492
493
498
503
509
513
515
519
523
525
523
523
520
515
510
504
502
497
494
492
492
494
498
504
511
515
517
519
520
522
523
519
521
516
510
506
500
498
494
494
493
495
498
501
509
512
517
519
520
526
523
524
519
515
510
505
500
496
494
493
493
494
499
504
506
512
516
519
521
525
524
523
519
516
508
505
500
498
494
496
492
495
496
504
507
513
516
521
522
524
524
523
518
514
509
504
502
496
495
494
495
495
497
501
506
511
518
518
521
525
523
523
520
515
510
503
501
498
496
492
492
495
497
501
506
512
517
521
524
525
523
523
517
515
512
505
499
496
495
492
494
496
499
501
509
513
518
519
522
524
524
521
519
516
511
506
501
497
496
493
495
494
497
501
507
513
517
519
524
525
522
523
519
515
508
503
499
496
494
492
493
495
498
504
509
512
514
519
521
525
524
523
519
514
511
504
500
497
495
494
491
495
498
503
508
513
518
519
521
526
522
521
518
513
512
504
500
499
495
494
494
495
496
502
509
512
515
519
523
525
523
522
519
514
512
505
500
499
493
492
493
496
496
503
509
511
517
520
523
526
524
522
519
512
511
504
502
497
494
493
493
495
498
503
511
510
515
520
521
524
523
521
518
515
509
503
502
500
495
492
492
495
499
504
510
513
517
520
523
524
524
523
520
515
509
502
502
499
493
492
492
492
500
504
507
512
516
522
524
524
525
522
518
513
510
505
500
497
494
492
492
492
497
503
507
512
517
519
523
524
523
522
517
514
509
503
500
497
493
492
494
495
499
504
511
512
517
522
525
524
525
523
518
514
509
503
500
498
496
495
492
494
496
501
508
514
520
519
520
524
524
524
519
516
510
504
499
496
496
493
494
495
499
502
509
513
517
521
521
524
524
523
518
515
511
504
500
495
494
494
492
495
498
503
508
514
518
520
523
524
524
522
517
515
511
503
499
497
494
496
494
496
498
504
510
513
517
520
523
523
524
523
519
514
510
504
499
499
493
494
490
495
497
503
509
514
519
521
524
526
523
519
518
512
510
505
502
496
495
493
493
494
498
504
508
513
517
519
524
524
520
521
518
513
508
504
498
496
494
495
493
495
499
502
510
513
517
522
521
524
525
521
518
514
510
504
501
496
493
494
492
495
499
501
509
515
518
519
522
525
523
522
517
515
508
503
501
497
494
493
492
494
499
504
509
514
519
519
523
523
524
523
519
515
511
502
500
496
493
493
494
495
499
504
508
513
518
520
523
526
524
523
518
514
510
503
499
496
494
494
493
496
497
506
511
513
516
521
521
525
523
522
519
513
510
504
502
497
496
492
493
493
499
501
508
515
516
519
523
524
523
520
517
515
510
504
500
495
492
491
493
494
498
502
511
513
519
519
521
524
524
523
519
513
509
505
500
497
495
491
494
495
499
502
511
512
518
520
523
523
521
521
517
514
511
504
500
497
493
493
493
495
502
503
510
515
516
519
523
524
522
521
518
514
509
504
497
495
491
494
493
496
499
504
510
513
517
520
523
525
521
521
519
515
511
504
499
496
495
494
492
493
502
501
508
515
518
521
521
523
522
521
515
513
511
503
498
497
494
493
492
496
498
504
510
513
518
523
523
523
523
523
519
514
510
503
500
495
494
492
491
497
500
504
509
513
519
519
522
524
523
521
519
513
509
504
502
497
495
492
492
496
498
505
509
514
519
522
522
527
523
521
518
513
507
503
499
498
493
494
492
494
498
502
508
514
517
521
524
526
523
522
517
512
508
503
501
496
492
492
494
495
497
501
509
515
518
521
522
526
524
523
517
514
508
504
503
497
495
493
493
495
498
504
509
512
515
520
521
526
523
521
519
514
509
504
501
496
495
495
493
494
498
503
511
516
518
521
522
523
523
521
519
512
511
504
501
498
494
492
492
495
500
503
510
513
515
519
523
523
523
520
518
514
508
503
500
497
494
492
489
495
500
505
510
515
516
520
524
525
525
521
520
514
509
504
500
498
494
494
494
494
498
504
510
514
518
519
522
524
524
521
520
514
510
503
499
497
494
492
493
496
498
502
508
514
517
520
524
526
525
520
518
512
508
504
501
497
493
492
492
496
499
505
511
514
519
523
523
524
523
522
519
513
509
502
499
498
494
491
494
494
499
503
511
513
518
521
521
521
521
520
519
513
507
504
500
497
492
491
491
494
499
504
510
514
518
519
523
523
524
523
518
512
509
504
500
497
494
495
492
495
499
504
510
514
518
520
523
524
524
520
517
513
508
503
500
495
494
491
493
497
499
503
510
515
518
521
522
525
526
521
516
512
509
504
499
496
492
493
495
497
499
504
510
514
516
520
523
526
524
522
517
512
511
502
498
495
493
491
491
494
498
505
511
514
519
519
524
524
523
522
519
511
507
501
500
497
492
494
495
497
498
505
508
514
518
520
521
523
524
520
517
513
508
502
499
496
493
494
494
496
502
505
511
514
518
520
523
526
526
523
516
511
508
503
499
496
495
494
492
494
498
504
512
517
518
519
522
524
523
521
518
512
509
502
500
496
494
494
493
494
498
502
512
514
516
521
525
524
524
520
518
512
510
504
499
497
493
495
492
498
498
504
509
513
517
521
523
523
524
521
517
512
509
501
499
496
492
493
493
497
498
504
509
515
518
521
524
525
523
521
518
512
510
503
500
498
494
492
491
496
498
504
512
515
516
519
522
525
520
519
517
513
507
503
499
497
494
494
495
495
498
504
510
514
519
523
523
523
521
523
516
512
510
501
501
498
494
495
493
494
497
504
508
515
517
521
524
525
524
521
516
511
506
502
500
494
492
492
494
495
500
506
511
514
517
522
525
524
522
519
517
512
506
503
499
498
494
493
492
495
499
502
510
515
520
520
522
525
522
520
518
511
508
501
499
497
496
495
494
495
498
504
511
514
518
521
522
529
523
520
518
511
507
502
497
495
494
494
495
497
502
504
511
514
518
519
521
523
524
520
517
515
508
505
498
496
495
493
492
494
499
505
510
513
517
522
521
524
522
520
518
512
509
503
499
494
495
495
493
496
501
503
511
515
518
523
522
524
523
521
516
514
507
502
499
496
491
492
493
497
502
508
510
515
518
520
524
525
523
521
517
511
508
501
496
496
492
493
492
497
502
504
511
514
519
523
522
527
525
522
517
512
509
501
497
495
492
495
494
494
499
505
514
515
518
522
523
526
523
521
516
511
508
501
497
495
494
494
492
497
499
504
510
515
519
522
523
524
524
520
518
512
508
500
498
496
493
492
492
495
499
506
510
513
517
521
524
525
523
523
516
514
508
502
500
496
494
495
492
494
501
506
509
515
517
522
523
524
521
521
516
513
511
501
499
495
492
493
494
496
500
504
511
515
518
520
522
527
525
521
514
514
507
501
499
496
491
491
492
496
500
505
511
515
517
522
523
524
524
522
518
514
506
502
500
496
491
492
493
496
500
504
510
517
519
521
524
527
523
521
515
510
509
502
501
497
492
492
492
495
501
505
512
515
519
521
524
525
524
521
515
511
508
502
500
494
492
492
495
496
502
505
509
513
518
521
525
526
524
521
518
511
507
500
499
497
494
495
493
495
498
507
512
515
517
521
524
525
522
519
517
513
506
502
499
498
495
495
492
496
498
505
511
514
518
521
524
524
521
520
518
513
507
501
499
498
494
496
492
493
499
504
511
516
517
521
522
523
521
520
516
512
508
500
497
496
494
494
494
497
500
505
512
515
518
521
521
525
522
520
518
512
509
502
499
496
494
495
492
496
503
503
510
517
519
523
524
524
523
520
517
511
507
502
497
496
494
495
493
496
501
504
513
516
517
520
523
523
521
521
519
512
507
501
498
493
493
495
492
496
500
505
511
515
519
521
523
524
523
520
516
512
507
501
499
495
492
494
494
496
501
506
512
513
517
524
524
525
524
521
516
511
507
500
498
495
493
492
492
496
502
503
511
516
520
522
523
525
523
523
517
513
506
500
498
497
494
492
492
497
498
507
511
513
517
523
522
524
521
519
517
512
506
501
498
496
492
495
494
497
502
506
512
517
519
521
523
524
521
519
515
512
508
504
497
496
493
494
492
496
502
505
511
516
519
520
523
524
525
523
515
511
507
502
499
495
492
492
493
496
501
508
511
513
518
519
525
524
525
521
518
510
508
500
497
495
493
492
492
496
500
504
512
514
519
521
524
524
521
521
517
513
507
502
496
496
492
493
495
496
500
507
513
517
520
523
525
524
523
520
517
512
508
502
497
495
492
492
494
497
500
508
512
513
519
520
521
523
523
520
515
511
506
503
498
494
492
494
493
496
501
505
513
516
518
523
523
522
521
520
516
512
508
501
499
496
492
494
493
495
503
507
512
514
519
524
523
526
523
521
516
511
507
500
498
495
494
494
493
496
499
504
512
517
518
521
524
524
523
518
516
512
506
502
498
494
494
492
494
496
500
506
511
517
519
518
522
524
524
522
515
512
506
498
497
495
493
493
493
497
500
507
513
516
519
524
524
524
522
520
517
512
506
501
500
495
494
491
494
495
500
506
511
515
519
522
521
525
524
519
515
512
505
502
499
494
491
493
494
498
500
508
512
514
520
522
524
523
524
520
517
512
507
501
499
495
493
492
491
497
502
506
512
516
517
522
522
525
521
522
513
511
507
501
499
496
494
496
494
500
499
506
512
515
517
520
525
524
522
520
516
514
505
501
498
494
493
492
492
496
503
505
512
517
519
523
526
526
523
521
518
511
507
499
497
492
494
492
493
495
501
508
511
514
520
522
524
526
524
520
515
512
506
503
498
495
492
494
493
496
502
506
511
516
518
523
524
525
523
521
516
510
510
500
497
494
492
492
492
496
501
504
511
517
519
521
526
528
524
521
516
510
507
501
498
495
490
492
493
497
500
505
510
516
519
523
524
524
525
522
516
510
506
502
499
496
492
495
495
497
499
507
511
515
519
520
522
524
523
520
515
511
504
502
499
496
493
494
493
498
501
505
511
517
521
521
522
524
521
520
515
509
507
503
499
493
494
492
491
495
500
507
515
516
521
524
522
524
522
518
515
511
505
500
499
495
493
492
495
497
502
507
515
515
519
522
521
523
522
522
514
509
507
502
497
495
493
492
492
497
502
507
511
516
518
519
524
526
520
519
516
510
507
501
498
494
492
494
494
496
502
505
514
518
517
522
524
526
522
522
515
510
506
502
499
496
493
494
491
499
501
505
511
516
522
524
525
525
521
522
515
510
506
500
498
494
493
490
493
498
502
508
513
515
520
521
524
525
523
521
517
508
506
501
499
495
493
496
492
497
502
507
512
515
517
520
522
525
523
522
515
510
507
501
497
496
492
495
495
498
501
505
514
517
519
521
524
526
524
519
516
509
507
501
498
495
493
494
492
496
