510
510
510
508
511
502
501
503
502
504
507
510
514
520
522
523
521
520
524
527
521
508
502
499
499
500
498
503
504
508
508
511
514
521
535
535
525
520
518
513
507
506
503
499
499
502
507
496
501
506
511
516
523
529
531
530
528
521
517
513
512
508
504
503
500
496
494
498
504
504
511
511
525
524
519
521
516
516
518
521
521
511
505
504
502
495
495
498
504
512
517
524
524
518
524
528
521
518
521
522
511
499
498
497
500
495
503
511
508
501
505
512
518
522
530
535
530
520
515
516
512
508
503
500
499
497
499
505
502
505
516
517
520
522
523
524
526
518
516
511
509
505
502
499
500
498
499
502
505
502
507
513
521
527
527
524
516
518
516
515
512
508
505
502
505
505
509
504
498
499
509
513
519
521
527
527
526
523
518
518
514
510
503
497
499
497
497
502
504
505
506
512
519
526
527
533
529
522
522
521
514
501
502
499
496
495
497
499
505
508
515
515
520
521
521
521
523
519
521
519
513
512
508
502
504
498
497
496
500
507
512
515
524
525
525
524
519
519
517
512
510
516
518
519
511
496
496
499
502
505
508
513
516
518
521
525
526
519
516
512
510
508
502
499
502
504
505
509
510
506
505
505
515
521
527
527
527
520
514
512
512
510
500
497
503
503
502
502
508
513
518
515
517
517
522
527
524
527
523
517
518
511
502
500
492
491
497
500
500
505
511
513
520
523
526
527
526
525
523
518
515
507
501
498
498
500
502
501
499
505
511
510
515
520
526
532
531
533
524
519
508
505
503
499
499
497
500
502
502
508
511
514
521
524
524
527
532
528
522
518
513
502
496
492
493
492
496
500
497
503
512
531
535
522
518
521
519
518
521
519
512
508
506
502
502
500
502
502
506
507
509
512
514
520
524
525
523
524
522
519
515
511
508
506
504
500
496
499
501
502
508
511
519
520
523
527
525
522
518
517
512
506
504
502
500
500
505
506
507
508
508
512
515
519
523
523
523
520
517
516
514
512
509
504
497
496
495
502
502
504
508
507
511
519
528
536
526
521
525
515
513
507
502
500
498
494
495
494
502
507
513
521
521
521
522
525
520
520
527
526
524
509
504
506
503
499
504
494
491
495
509
516
518
522
527
533
531
524
522
519
512
511
506
499
496
495
497
500
502
504
510
515
523
522
524
526
524
522
522
524
512
498
491
497
504
505
511
512
511
511
506
509
510
514
515
519
528
530
530
528
518
507
503
504
495
496
497
499
503
506
512
511
517
522
525
523
520
520
518
513
513
520
518
512
503
495
494
496
501
503
508
512
520
523
523
527
524
519
516
518
519
509
510
511
504
497
494
496
503
507
512
513
518
522
524
527
527
518
516
518
513
504
504
501
502
502
504
505
502
493
496
508
516
530
535
535
540
525
514
509
513
511
504
499
499
493
494
495
500
502
509
515
523
522
524
527
527
525
520
523
512
506
503
497
496
498
500
506
504
506
512
510
510
521
528
537
543
530
523
520
507
500
501
500
501
501
500
499
503
504
507
513
518
515
520
525
525
522
520
522
519
512
505
498
497
496
498
502
505
511
512
515
524
522
522
521
523
519
516
512
513
511
511
508
504
497
498
501
505
508
508
515
521
527
525
525
527
521
514
510
508
503
498
497
499
501
499
505
504
503
512
516
516
524
525
529
527
523
521
518
513
508
506
506
499
493
497
499
502
504
511
517
520
523
523
524
527
521
519
516
508
501
496
500
502
502
508
510
508
508
515
519
519
522
523
525
524
522
518
512
510
508
502
499
506
502
500
502
501
508
511
514
522
522
524
525
528
525
515
508
501
497
498
504
516
508
505
504
504
507
510
512
513
517
524
528
527
524
518
515
512
507
500
499
499
496
497
504
504
507
512
515
518
520
521
526
525
520
516
515
512
511
504
502
502
499
499
502
501
508
510
512
518
524
526
526
523
519
516
515
514
508
508
504
501
501
500
503
503
505
511
515
519
524
525
529
531
524
524
515
512
505
506
501
499
500
499
500
503
504
507
507
513
527
533
533
524
523
526
518
509
503
501
496
497
499
504
507
502
499
505
506
514
515
522
532
538
533
520
510
508
500
501
494
502
506
510
508
504
502
503
509
518
523
536
543
543
520
507
517
531
519
496
485
484
483
488
497
512
515
511
502
499
506
502
508
516
534
544
535
532
542
536
506
494
487
491
504
507
504
512
512
515
517
518
519
520
516
518
517
515
510
505
500
497
495
493
502
504
509
515
523
527
531
531
529
524
515
517
516
511
504
501
498
498
496
496
501
504
507
513
514
513
509
515
529
528
529
524
525
517
500
503
501
504
502
502
498
502
507
510
514
519
520
520
519
519
521
524
526
525
512
501
499
497
502
508
509
505
505
507
511
518
518
519
524
521
516
517
518
515
512
513
505
503
497
495
498
497
502
507
518
531
534
526
527
524
519
519
518
514
507
503
501
497
497
497
501
506
504
504
517
521
522
526
524
522
520
519
518
511
508
508
504
498
493
496
494
504
506
510
511
519
521
526
527
528
524
527
525
518
510
499
497
497
498
500
506
507
499
503
504
507
515
521
527
530
532
531
531
524
519
513
503
492
488
489
492
498
501
511
516
523
522
522
525
519
519
521
514
511
513
514
504
499
497
498
499
499
502
504
512
520
521
521
522
532
532
524
524
521
520
508
496
493
487
489
492
494
499
513
517
523
529
529
531
529
520
521
518
514
505
501
500
496
496
496
501
508
507
513
514
518
518
520
523
521
524
527
518
511
509
507
501
499
496
500
501
501
506
511
515
518
521
522
524
522
519
515
526
531
523
519
513
509
501
500
502
492
497
504
510
516
521
522
524
524
519
518
516
510
508
505
499
500
499
496
499
496
499
505
521
534
535
529
527
520
524
519
512
509
509
508
504
504
499
492
501
504
508
511
516
519
519
518
523
525
522
520
516
512
507
504
502
502
499
498
505
506
500
507
514
514
518
525
535
532
526
524
519
515
511
504
501
503
495
494
499
498
504
506
511
516
520
523
525
527
521
520
523
518
512
507
496
499
493
487
492
497
500
507
519
526
526
529
532
527
526
521
519
514
507
504
497
497
493
495
498
500
508
513
519
519
523
524
529
531
527
523
517
511
508
504
504
499
493
498
503
500
503
507
506
518
527
536
543
535
523
519
516
511
506
504
499
498
494
491
492
495
503
511
519
524
531
531
531
524
522
519
515
512
508
505
500
497
495
492
494
502
506
508
511
516
522
526
528
526
528
525
517
515
512
508
503
497
495
498
503
508
506
512
511
516
516
520
528
525
517
519
521
520
518
512
502
498
494
495
495
501
501
505
511
519
524
526
526
524
522
520
515
514
511
510
507
504
502
502
500
497
501
517
522
526
525
523
526
522
517
516
513
509
506
504
499
495
492
496
500
499
500
509
515
516
521
520
515
514
519
526
530
528
530
521
505
496
503
505
500
498
499
504
501
500
502
518
529
526
514
525
550
543
515
502
496
492
492
491
491
497
508
518
528
526
524
525
527
525
519
515
507
511
509
508
498
497
497
497
500
503
507
512
514
517
522
522
527
529
526
522
519
516
514
507
504
502
497
494
497
498
502
509
517
521
525
524
526
523
523
518
519
515
507
504
512
510
496
494
502
511
508
507
514
519
514
513
521
522
526
519
519
515
510
507
508
507
500
495
497
499
504
510
515
516
515
519
521
526
523
527
524
521
515
510
500
497
492
493
497
505
513
518
525
528
519
520
526
526
523
519
517
514
508
504
500
495
488
494
503
510
510
513
513
518
519
517
519
520
519
519
517
519
519
512
499
499
497
496
495
493
501
510
518
522
523
527
531
529
524
520
521
515
511
503
502
503
499
497
500
500
501
504
513
519
520
526
524
523
524
515
513
508
503
498
497
497
502
507
514
511
500
505
519
525
526
524
524
523
520
516
512
510
506
504
502
501
500
501
499
504
505
509
513
519
522
522
523
527
524
520
518
513
509
507
499
499
497
499
499
499
501
507
512
514
522
528
539
536
524
518
513
510
509
517
504
499
495
493
496
502
506
508
514
518
519
522
529
531
527
521
520
516
509
506
499
497
496
496
500
502
509
512
514
517
519
523
527
529
523
524
519
515
508
506
502
498
497
502
505
504
501
508
513
516
524
527
526
522
527
529
535
530
512
500
499
501
499
499
503
497
498
504
507
511
515
520
524
525
523
521
515
509
506
502
501
499
495
500
500
503
504
511
515
524
527
526
518
520
519
520
520
515
513
510
511
504
497
508
506
500
496
504
513
521
523
519
520
527
527
519
513
510
505
501
500
499
496
499
505
504
504
510
510
509
514
523
530
532
525
518
511
509
508
509
508
516
515
504
497
497
508
512
510
513
520
526
529
525
519
519
513
507
502
500
503
504
497
502
508
504
501
509
514
515
524
525
527
530
527
526
518
513
507
502
499
495
493
495
497
504
511
515
519
519
523
521
523
521
520
526
518
515
509
503
499
495
494
495
497
502
506
516
521
518
521
531
524
519
516
513
516
523
518
521
518
510
496
490
491
496
505
514
525
527
526
517
515
515
520
517
511
512
506
502
498
499
499
499
502
505
504
512
518
525
525
525
526
529
524
519
518
512
508
507
508
505
500
500
501
501
505
510
509
517
519
521
524
527
527
519
516
511
504
504
500
505
502
501
499
500
506
512
509
515
525
532
533
531
519
520
521
522
511
503
499
496
490
492
492
492
497
502
512
517
527
541
545
533
526
519
517
512
510
504
496
498
500
497
493
499
502
508
508
519
528
532
529
524
521
522
520
513
504
502
502
497
492
494
497
495
503
513
519
523
530
531
531
525
521
518
512
507
506
503
497
504
502
502
507
506
504
509
512
520
524
522
524
524
518
514
520
529
519
510
501
498
497
499
504
506
504
505
510
515
517
520
524
527
526
527
525
512
511
508
501
495
494
493
501
503
504
508
516
520
527
531
530
522
518
516
516
514
510
507
505
506
497
496
497
499
505
507
510
516
523
525
525
526
519
516
518
518
509
509
501
500
494
496
500
498
500
513
517
517
523
530
532
529
527
517
511
511
505
503
500
499
500
497
499
505
510
513
515
519
523
523
524
522
521
520
515
515
513
514
506
502
497
501
500
496
502
508
513
516
523
525
527
528
527
523
519
516
504
504
505
500
494
496
498
496
500
510
512
515
527
534
531
531
530
523
511
507
508
509
505
496
496
500
499
499
502
509
514
519
521
524
524
524
524
529
525
514
508
507
501
499
489
493
497
497
504
508
516
522
527
529
528
524
518
515
515
517
516
512
500
497
499
495
497
499
504
511
512
518
523
524
527
531
526
524
516
512
510
508
500
499
499
498
497
498
502
505
510
517
519
523
529
528
525
521
516
512
507
504
501
502
497
495
497
502
504
508
511
517
524
526
532
532
528
530
519
512
509
505
497
500
499
499
498
500
508
513
516
515
517
519
516
523
524
521
515
507
511
508
503
499
497
494
497
499
505
510
517
519
518
522
524
528
527
522
518
516
509
507
502
501
497
498
499
504
503
505
511
516
522
524
521
527
525
523
521
521
517
511
503
499
501
499
499
498
496
499
507
520
525
528
531
532
527
521
520
514
511
510
502
501
502
500
502
503
504
505
512
518
519
520
522
524
523
522
519
517
512
513
503
499
497
495
494
500
505
511
512
516
519
521
528
529
525
526
523
520
511
506
503
499
496
498
505
509
508
510
512
513
515
518
524
527
520
517
516
511
507
501
499
496
497
495
495
503
506
509
515
518
521
519
523
525
525
527
523
518
513
507
500
501
498
499
503
506
507
506
510
515
521
525
525
527
524
525
513
512
508
506
500
503
500
500
500
499
504
511
515
518
519
525
524
522
522
519
514
512
504
501
501
503
503
495
495
502
508
513
521
521
520
520
527
521
511
507
515
525
520
512
504
501
495
495
496
498
501
509
508
512
522
525
529
529
527
524
519
515
510
502
498
500
496
495
496
499
508
516
519
523
524
528
531
530
525
518
514
512
511
504
498
496
497
499
501
497
496
504
512
519
519
528
532
534
529
528
521
510
501
499
496
498
500
501
506
505
498
500
508
521
524
534
537
533
527
519
517
511
506
499
495
497
493
491
498
510
510
512
509
513
520
523
526
530
529
519
514
512
508
509
503
499
498
497
496
499
503
511
513
517
522
531
531
529
521
519
517
514
506
510
511
505
498
497
498
496
504
507
511
517
521
522
521
519
519
519
522
526
524
513
495
487
487
494
502
504
507
507
512
514
516
519
524
527
527
522
525
520
511
501
495
492
495
504
505
505
511
512
512
518
525
524
527
530
528
524
520
518
511
508
500
498
495
496
497
499
504
505
512
518
523
522
525
526
523
520
517
519
513
509
504
501
499
496
497
497
502
508
513
517
518
520
524
527
528
524
519
517
512
507
503
500
496
492
494
498
500
507
509
516
522
524
531
538
533
525
518
514
507
503
500
498
498
496
496
499
503
510
517
515
515
513
523
524
526
533
532
526
516
508
503
502
496
498
498
499
500
509
520
525
526
526
525
526
522
519
516
512
510
505
501
499
498
499
499
503
508
512
512
514
521
521
524
526
523
519
519
513
508
505
499
500
499
499
496
499
504
513
517
521
523
524
524
527
523
522
518
516
512
509
505
496
494
498
497
499
503
510
518
516
516
519
521
522
519
526
530
515
512
511
499
490
491
493
497
500
505
509
515
518
521
525
529
529
527
522
520
517
510
509
504
499
498
495
497
503
505
508
512
518
523
525
526
526
525
520
516
515
511
510
501
500
499
497
496
497
501
508
513
518
524
523
523
526
526
521
523
518
518
512
498
499
497
496
503
506
511
508
510
514
518
524
529
528
528
521
517
514
510
503
502
498
496
494
500
500
501
503
510
510
518
528
533
533
524
522
522
518
511
504
498
499
499
495
496
499
502
505
511
518
519
524
524
528
525
524
519
512
512
516
509
504
498
484
487
491
502
517
536
540
536
523
516
522
522
518
519
500
491
487
491
504
512
518
524
514
511
507
504
507
513
517
522
526
524
518
512
506
497
499
513
510
501
491
493
499
507
511
515
516
518
521
522
524
523
520
523
517
518
513
504
499
498
496
500
506
508
508
513
518
522
524
528
529
525
525
522
518
510
506
504
499
502
499
508
503
501
497
512
522
524
522
526
535
526
518
511
508
505
502
495
501
502
497
500
501
499
499
508
511
516
521
527
536
527
531
534
526
506
498
496
496
495
495
494
499
501
505
510
515
523
528
524
527
521
519
516
512
508
507
503
503
497
498
496
490
493
504
512
518
525
534
547
551
534
517
513
511
503
503
500
499
495
498
499
501
503
505
508
510
512
518
522
527
525
522
519
516
517
513
500
495
495
496
500
502
503
507
519
524
526
526
526
530
527
522
520
519
515
510
498
496
495
496
496
496
502
506
509
513
515
520
530
546
537
527
519
519
513
510
505
503
501
497
496
493
500
506
510
514
520
524
526
531
527
523
521
515
508
506
506
506
503
494
496
502
504
509
510
517
522
524
521
529
526
517
515
511
504
497
499
504
507
506
504
510
511
506
506
512
515
524
525
524
519
519
523
521
516
507
506
502
500
503
500
499
500
505
510
521
530
530
527
528
521
517
516
520
513
507
497
498
496
496
495
492
499
509
516
521
521
524
525
526
516
523
525
517
510
507
504
502
504
503
504
501
501
505
508
513
525
531
531
531
527
525
519
517
512
505
501
499
497
489
496
502
500
507
521
520
523
524
525
523
514
516
516
515
509
505
503
498
498
493
494
501
504
512
518
519
523
523
521
524
524
521
521
519
515
509
504
501
496
495
499
500
500
507
512
518
523
526
530
531
523
518
516
515
508
507
507
500
495
493
499
505
506
510
513
519
519
518
517
525
528
525
525
522
521
515
508
501
494
493
497
499
500
502
511
517
519
523
523
524
517
515
523
527
515
508
498
493
493
497
499
499
508
505
512
520
524
527
524
526
529
520
516
517
514
511
501
497
497
495
503
501
502
505
507
517
522
528
528
533
529
518
515
512
505
502
500
502
498
501
507
509
508
507
508
517
523
517
518
520
523
519
521
519
521
525
517
509
503
496
489
492
496
503
507
511
519
531
527
532
529
519
516
516
514
511
507
503
499
494
494
493
494
498
507
519
527
526
523
528
527
530
526
521
511
504
497
497
494
504
501
502
502
508
519
522
518
519
522
528
524
520
518
519
510
504
496
492
490
488
495
505
511
511
511
515
518
521
526
527
529
525
521
515
509
504
499
499
497
501
505
496
502
505
513
522
527
528
527
521
517
516
520
520
516
512
506
505
504
501
499
495
495
499
512
512
514
523
523
527
526
520
518
512
509
505
499
495
491
493
502
503
504
512
521
527
524
527
519
521
525
538
534
519
512
502
496
493
494
494
496
502
510
514
513
518
524
524
525
527
521
521
514
519
515
511
502
494
496
494
495
494
499
504
508
515
524
533
537
534
527
520
519
515
511
504
500
494
494
496
495
496
502
510
519
520
519
519
523
524
520
515
517
516
512
505
499
499
497
495
497
504
513
516
521
523
520
522
526
527
522
519
519
515
512
508
504
499
499
495
494
496
499
508
515
516
520
522
524
524
527
524
524
519
512
510
504
500
499
500
499
504
508
508
509
512
522
524
524
525
519
518
513
520
519
515
507
502
499
493
492
498
502
507
513
518
522
521
516
515
522
524
519
513
515
514
511
503
496
507
512
511
508
508
509
512
522
522
518
518
521
519
515
519
516
508
505
500
499
496
493
496
501
505
511
516
519
520
524
530
531
527
522
518
514
506
500
499
498
499
500
500
504
502
508
515
519
523
522
525
528
522
518
519
516
511
503
499
497
495
500
504
505
504
512
519
524
522
523
527
523
520
519
517
511
512
511
512
502
489
492
493
497
507
512
515
521
533
535
527
525
525
519
519
514
509
502
496
496
495
494
498
500
508
510
515
521
522
522
530
531
522
520
512
507
505
502
499
502
505
504
505
505
509
520
518
516
519
521
528
527
527
522
517
510
505
501
499
495
494
491
499
502
504
509
515
519
522
521
528
530
525
518
518
513
509
503
504
504
498
497
502
504
503
506
513
519
525
527
532
533
526
524
516
509
507
493
491
495
494
496
507
509
513
513
514
516
519
515
523
529
524
521
518
511
509
504
500
499
499
499
500
502
508
511
516
521
525
528
535
529
523
522
519
511
504
498
496
497
494
496
499
502
506
508
514
519
522
523
528
528
525
521
516
511
510
511
504
503
497
496
501
503
504
511
516
521
522
521
527
528
527
523
515
513
508
503
499
499
499
502
504
501
503
505
513
520
526
526
530
524
523
521
516
515
513
508
501
500
497
496
499
502
500
512
520
524
524
525
530
525
520
522
521
516
512
505
503
495
493
496
498
498
503
511
515
518
520
522
526
529
524
516
514
511
508
504
502
501
499
499
500
504
506
511
516
518
518
519
527
525
522
524
522
516
510
502
501
498
496
497
500
505
502
505
513
517
525
523
527
527
524
521
518
515
513
504
499
502
499
497
500
501
505
508
514
518
524
523
528
527
527
523
521
513
505
501
500
498
495
497
501
499
504
512
517
519
522
526
528
525
523
521
520
511
510
504
502
498
495
496
498
499
504
507
514
520
524
526
530
529
525
523
516
509
508
506
502
504
501
498
496
497
503
508
514
518
526
531
534
528
523
519
514
511
509
507
505
499
493
494
497
499
502
512
517
518
526
528
531
526
524
522
516
511
505
503
503
501
498
496
498
500
503
511
516
518
523
525
530
526
526
522
516
508
507
502
496
497
494
498
498
504
504
509
511
515
522
524
529
527
524
521
520
514
510
506
501
499
498
495
498
503
508
511
516
521
524
521
527
526
520
517
518
515
511
501
495
493
488
487
492
499
507
523
527
527
524
524
526
529
524
519
514
512
507
500
500
501
501
499
500
502
505
511
513
515
519
527
525
526
523
525
522
517
511
506
502
498
499
491
494
500
505
510
514
523
526
528
527
528
523
522
520
516
511
504
499
499
498
501
502
504
503
508
512
518
521
524
526
527
526
520
513
512
509
505
504
510
500
498
502
506
507
507
515
519
531
541
521
514
510
513
509
517
508
492
490
494
516
539
528
504
498
501
510
513
518
519
520
517
513
515
513
511
515
511
509
505
496
494
493
499
508
507
515
519
523
521
523
526
525
527
527
529
524
514
498
494
494
492
496
497
497
499
508
515
526
526
534
539
533
527
517
508
500
492
492
494
487
494
495
501
517
525
525
518
515
513
515
520
529
527
520
514
509
504
500
502
499
498
495
505
504
514
516
519
523
519
524
526
524
518
519
516
510
503
500
499
501
508
508
505
506
508
512
515
523
524
527
528
526
522
515
511
511
509
503
498
497
499
495
496
501
505
515
516
517
521
524
524
527
522
520
519
509
504
502
501
498
499
499
502
506
514
519
522
527
526
523
521
516
512
509
513
505
494
494
500
508
501
500
497
508
523
517
520
531
532
531
528
521
517
518
514
510
503
500
496
496
495
499
501
499
498
512
527
532
524
519
520
524
531
528
523
512
503
499
506
505
503
497
499
501
505
504
501
509
519
526
530
546
542
529
512
511
511
508
505
501
496
497
498
497
496
505
503
514
524
530
523
513
510
519
524
516
505
513
523
506
494
496
508
513
516
508
508
515
520
528
519
514
506
503
507
515
512
519
516
505
496
492
500
500
511
518
521
523
520
520
519
518
508
514
512
499
496
509
505
502
503
512
509
499
499
504
510
519
526
539
551
550
539
516
512
510
504
497
491
488
488
496
502
505
515
517
516
519
521
526
528
521
521
515
510
508
501
500
500
501
501
501
504
503
497
512
534
534
539
542
530
523
520
524
532
517
500
503
507
505
499
497
495
494
494
506
513
528
530
530
525
520
523
517
516
512
509
508
497
493
488
492
496
500
506
515
522
525
524
528
527
522
518
514
510
508
503
502
499
494
496
496
502
507
509
519
528
520
518
521
524
515
513
512
510
504
500
500
498
499
500
504
501
503
506
516
527
533
533
537
537
524
519
518
510
509
503
504
504
497
498
499
497
500
505
506
511
516
521
530
526
523
516
510
508
501
504
504
504
503
503
503
504
510
508
513
521
521
520
523
519
518
519
517
517
514
509
504
506
502
499
496
497
499
510
518
527
528
522
527
528
526
522
515
511
509
507
504
504
504
502
498
501
499
509
518
517
525
527
518
507
500
514
515
526
518
509
505
503
502
499
494
499
507
509
512
519
521
525
530
526
520
517
514
509
508
503
498
503
507
502
500
501
500
502
508
515
521
523
526
525
524
522
516
511
505
504
503
499
498
499
504
506
507
508
511
515
519
518
520
518
518
519
520
513
511
508
504
501
500
498
502
505
504
506
510
514
514
517
524
527
524
519
515
515
513
511
508
508
501
503
502
503
501
505
507
508
521
524
527
527
527
519
515
512
510
513
512
505
498
497
502
505
511
511
512
515
519
526
533
528
526
525
522
515
511
505
505
500
501
501
498
498
504
507
513
516
518
524
526
525
523
519
516
513
505
505
503
501
498
497
498
500
504
505
508
512
520
526
527
529
524
518
515
515
511
504
503
501
495
494
503
501
505
507
512
512
520
524
524
519
504
503
504
515
514
516
515
518
513
510
499
498
501
502
505
505
510
519
526
524
523
519
515
513
508
505
505
505
506
511
507
507
503
514
516
515
520
526
524
521
519
518
521
518
513
510
507
504
501
500
501
503
501
505
509
512
514
515
520
523
522
521
518
520
515
509
505
504
502
500
501
509
511
516
521
526
532
535
537
540
536
524
523
518
512
507
506
498
498
496
500
503
503
508
514
520
515
512
509
504
508
512
514
518
508
496
490
482
476
470
473
479
484
492
504
518
529
536
547
548
548
546
542
537
532
527
521
514
505
495
492
491
493
492
496
504
508
505
508
509
504
507
508
507
508
508
505
505
507
511
513
515
518
519
527
528
535
535
540
537
536
536
532
528
524
518
514
510
509
508
507
506
508
512
513
517
524
525
527
524
520
519
518
513
512
508
504
504
499
500
499
499
500
503
505
507
510
512
514
515
514
511
511
508
507
504
501
504
503
503
508
508
511
513
520
520
527
527
528
527
523
523
520
519
515
509
508
507
505
503
503
504
504
508
513
515
517
521
522
524
522
519
517
516
511
508
506
501
500
496
499
502
504
508
512
513
518
521
523
526
523
524
518
512
504
498
496
493
493
490
492
495
498
502
506
511
513
515
519
521
518
516
516
513
508
505
504
505
503
501
501
504
505
506
509
512
518
519
524
525
522
519
520
517
512
509
503
507
502
501
503
507
506
511
513
515
519
522
523
526
523
521
519
518
512
509
506
506
504
503
502
502
506
510
514
514
519
521
522
526
522
520
515
516
512
510
507
504
503
502
502
505
507
510
512
515
518
520
523
524
520
517
515
512
508
500
500
499
499
498
501
502
502
503
509
512
515
520
520
519
518
517
517
513
512
508
505
505
502
502
501
506
505
507
512
516
519
521
521
522
519
515
515
514
511
507
508
507
505
507
508
508
511
511
517
519
524
525
528
525
527
522
522
521
516
511
510
512
510
508
505
508
506
512
514
516
519
518
522
521
521
519
519
515
511
507
505
504
500
497
499
506
505
509
510
513
518
519
521
521
518
517
514
513
509
505
504
503
503
500
499
504
504
508
510
514
517
519
522
523
519
519
515
515
510
508
505
504
502
499
502
505
506
507
512
511
517
518
521
522
519
514
516
516
513
508
508
506
504
499
500
504
504
506
512
513
518
518
523
521
522
519
517
514
511
505
501
500
500
499
499
503
505
507
511
511
517
520
524
526
524
524
520
517
514
512
509
509
507
508
508
510
510
511
516
518
521
521
523
523
517
516
514
513
511
506
502
502
499
498
500
502
503
507
512
512
518
521
523
526
524
521
517
519
513
506
506
504
503
501
499
503
504
505
509
512
516
518
519
519
520
520
518
516
513
509
508
508
505
503
505
507
507
508
511
515
520
518
522
521
520
519
515
515
510
507
506
502
507
501
501
504
506
507
513
516
519
523
525
526
523
518
518
516
511
508
506
502
501
498
501
504
504
508
516
514
517
521
522
524
521
519
516
514
515
512
507
504
502
499
500
503
503
508
511
513
517
519
523
524
524
518
518
518
514
512
508
503
504
502
499
501
504
506
508
511
517
518
520
519
517
518
515
514
513
509
510
508
509
505
506
507
505
505
511
515
516
517
519
522
519
519
517
515
512
508
505
505
504
502
502
505
506
507
512
517
519
519
519
523
521
518
518
512
510
509
506
505
504
502
503
503
508
510
517
518
524
525
523
524
520
518
515
511
507
502
504
498
500
495
498
499
503
507
514
515
518
526
524
527
524
521
520
516
514
511
511
509
507
504
502
504
507
509
512
515
517
517
517
520
519
518
517
514
512
508
505
505
504
500
499
502
506
508
515
515
519
520
523
526
523
519
519
516
511
509
507
505
504
502
500
504
507
505
508
512
516
518
521
522
522
519
519
518
515
513
510
508
507
504
503
504
504
508
513
512
519
520
523
523
519
519
518
516
513
509
507
506
505
502
504
505
505
508
511
513
519
519
519
518
517
517
515
514
513
509
505
503
504
501
503
504
504
507
508
513
515
518
519
523
523
519
516
513
511
510
508
504
506
502
502
502
504
506
510
510
517
518
524
524
523
519
516
515
512
504
504
504
504
502
503
505
504
508
513
515
521
521
522
519
523
520
518
515
511
509
507
505
506
503
504
504
509
510
512
513
518
519
521
522
521
521
519
515
509
507
503
500
500
499
503
504
505
505
508
510
516
518
518
521
520
518
515
513
512
509
507
504
506
501
504
506
506
508
509
515
519
519
520
521
520
519
519
515
512
511
508
504
506
504
507
508
507
508
513
514
519
519
519
520
520
518
516
512
511
509
508
504
503
503
503
504
505
509
511
514
516
519
521
522
519
517
515
513
511
508
504
504
506
504
504
502
505
506
510
513
516
519
519
521
521
518
519
515
513
510
508
507
507
505
503
505
504
509
512
514
517
519
517
521
520
518
516
514
512
506
508
507
506
500
502
506
506
508
512
513
519
520
521
521
520
520
518
515
513
511
510
505
507
503
504
505
507
508
511
515
514
516
518
520
520
515
514
513
510
507
505
507
505
502
502
503
507
510
514
514
518
520
523
523
521
517
513
512
511
508
506
504
504
501
501
503
505
506
510
512
516
519
516
522
519
520
516
516
512
510
509
506
505
504
504
506
508
509
512
517
520
523
521
521
519
520
518
516
513
513
510
508
508
501
505
504
505
507
512
513
517
518
518
521
519
518
518
515
512
509
507
504
504
499
501
505
505
506
510
513
514
516
517
520
519
518
517
515
511
508
507
503
505
502
505
508
505
510
512
516
518
519
522
523
520
519
516
516
514
511
508
505
505
503
503
504
507
509
512
515
516
516
519
520
520
519
517
516
512
509
506
505
505
503
503
503
505
506
510
510
518
518
519
521
521
518
518
516
512
508
506
504
504
501
500
506
505
507
510
511
516
521
521
524
525
519
518
516
513
509
507
506
506
503
502
504
506
506
513
515
518
519
523
524
522
518
516
516
512
508
506
505
505
502
503
504
504
508
510
512
515
519
522
523
521
517
515
515
512
508
505
502
504
500
501
505
505
508
509
514
518
518
521
523
520
519
517
516
515
509
508
505
506
502
503
504
505
506
508
514
515
517
523
524
523
521
516
518
513
511
507
502
502
499
501
503
506
508
513
514
518
520
524
524
522
519
519
515
510
508
508
507
508
503
502
505
506
509
509
513
519
519
521
521
519
519
517
516
513
508
504
503
504
500
503
503
505
507
512
514
518
518
518
521
519
519
516
516
511
509
506
503
506
502
503
505
507
508
511
513
516
519
522
521
519
519
518
517
513
511
507
504
506
502
501
505
504
507
511
513
517
521
523
524
521
519
517
514
513
508
510
506
504
502
503
505
507
508
511
513
518
519
519
521
521
518
513
514
509
509
507
503
504
499
502
503
507
507
508
512
515
519
519
523
522
521
515
515
512
511
508
505
504
503
505
504
507
508
510
513
516
517
521
522
521
518
518
515
513
509
508
506
504
501
500
502
504
506
512
512
516
519
522
524
521
521
515
515
513
509
510
504
505
503
502
502
503
505
510
511
515
517
519
521
519
519
519
517
511
506
504
503
508
502
501
505
505
509
508
515
518
519
520
522
521
522
518
517
517
514
508
506
508
502
505
506
508
510
512
515
515
519
521
523
521
519
517
516
514
507
508
504
504
502
504
507
508
509
512
514
516
519
519
522
521
518
516
515
514
511
508
508
505
505
505
505
507
508
510
513
517
518
521
521
519
519
516
516
512
507
505
504
506
501
502
504
504
505
509
513
514
519
518
521
519
517
518
514
512
510
508
504
507
503
505
505
505
508
511
513
517
520
521
524
523
520
517
516
513
510
508
503
504
500
503
504
508
507
509
512
516
519
517
519
521
519
516
514
514
509
512
506
507
503
504
509
507
510
510
512
515
520
519
521
520
518
516
514
512
510
509
505
507
504
504
505
506
508
510
514
518
519
518
521
518
518
515
515
511
509
507
504
505
502
503
507
507
508
510
513
515
517
519
520
520
515
515
516
513
510
506
507
505
504
503
505
506
509
510
512
519
520
521
524
522
520
517
515
513
509
506
504
503
502
504
506
504
504
509
511
516
517
519
524
521
519
516
517
512
511
510
505
506
503
503
503
504
505
511
512
514
519
516
520
521
520
519
517
512
508
508
504
504
501
501
504
505
507
511
515
516
520
521
525
522
519
514
516
511
508
508
505
506
503
504
507
508
507
509
512
515
521
521
524
520
520
518
516
516
510
512
505
506
501
505
508
506
508
510
513
516
519
519
522
520
519
515
513
514
508
506
504
503
501
498
504
504
505
511
512
516
518
522
524
521
520
519
512
512
509
508
504
504
504
502
505
505
505
509
511
514
516
519
521
521
520
519
515
513
512
508
505
507
500
502
500
504
504
510
513
515
516
519
521
520
519
516
517
515
511
509
506
507
503
503
505
503
508
512
515
516
519
521
523
523
519
518
515
513
510
508
504
506
502
504
506
505
506
509
512
515
519
522
522
523
520
518
515
515
512
510
506
506
502
503
504
504
505
509
512
517
516
518
520
520
518
515
514
511
508
507
505
503
501
501
504
505
504
510
512
517
517
521
521
519
519
515
517
514
513
509
507
505
504
503
504
505
505
510
511
515
517
518
519
521
517
519
514
512
509
506
502
505
504
503
505
505
507
507
511
515
516
521
519
518
518
516
515
513
510
506
504
505
501
505
505
508
508
510
513
518
519
519
522
522
521
519
517
512
511
508
504
505
500
503
504
505
504
511
513
519
521
521
523
522
519
518
519
513
512
509
505
505
502
503
505
506
508
510
514
516
519
520
523
522
520
519
519
514
509
507
504
504
502
504
502
505
507
508
513
517
515
518
521
520
521
516
515
514
510
507
503
505
501
501
503
508
507
508
511
513
516
515
520
520
517
517
518
515
511
509
507
504
504
503
507
505
510
510
514
515
521
523
524
522
520
518
516
514
510
511
506
508
504
503
503
505
507
507
511
512
516
520
521
521
518
517
517
511
508
507
504
504
503
500
505
505
507
508
512
514
515
521
522
521
519
519
519
515
512
509
506
505
504
503
504
505
504
507
510
513
519
521
521
520
518
518
517
512
507
508
505
504
504
502
503
508
509
511
513
515
518
519
519
518
516
515
514
512
511
507
506
504
503
502
503
505
507
508
512
516
518
519
521
521
522
518
517
515
513
511
503
507
502
502
504
503
505
509
511
515
519
522
523
522
519
517
518
512
510
508
506
506
503
504
506
506
507
510
512
514
519
519
521
519
518
515
517
515
511
510
507
505
502
503
502
504
506
508
512
514
517
519
522
520
520
514
518
514
511
507
506
509
503
502
503
504
508
512
514
515
519
520
522
520
520
518
518
514
509
506
505
506
501
503
503
504
505
511
514
517
519
524
522
523
521
518
518
513
511
508
502
504
504
503
503
504
505
507
511
513
519
520
521
523
521
518
518
518
512
507
504
505
501
504
505
504
505
509
512
515
518
519
523
522
521
519
515
512
512
510
509
507
501
505
505
507
506
513
512
517
517
519
519
521
521
518
513
512
509
508
506
504
501
502
504
507
509
510
512
512
515
518
521
520
523
519
517
514
509
508
504
505
502
502
505
506
508
511
511
517
521
522
525
520
521
518
516
515
508
508
506
504
501
501
503
504
504
509
511
514
516
520
520
521
519
518
515
513
509
506
505
507
504
502
506
508
510
513
517
518
521
524
523
522
522
520
517
513
512
511
504
504
499
500
503
504
506
507
510
512
516
520
520
520
517
516
519
517
511
508
503
503
500
504
503
503
505
507
510
514
518
519
523
522
521
518
519
515
511
509
506
505
503
502
503
506
507
510
512
516
519
524
522
521
520
517
515
515
512
508
506
507
502
502
504
506
509
508
513
517
518
519
523
523
520
518
516
511
508
507
503
504
500
500
504
505
508
508
513
517
518
522
523
524
523
518
516
511
510
509
504
505
502
503
504
504
504
508
514
518
517
519
522
523
520
519
520
514
512
510
504
503
503
502
505
503
505
507
511
515
518
521
522
521
521
518
519
511
513
509
507
505
501
502
502
504
507
510
511
514
521
522
520
519
519
518
515
515
509
506
504
504
500
501
502
505
508
508
511
515
519
521
523
521
520
519
515
514
509
509
507
506
508
505
506
508
508
510
513
519
516
520
521
522
519
517
515
513
510
508
505
505
502
500
503
505
507
508
511
518
521
523
523
522
519
517
513
514
510
509
503
507
507
505
504
503
505
509
513
518
520
521
523
521
519
517
514
514
511
508
504
507
503
501
503
503
504
510
510
513
519
519
522
521
519
516
517
517
510
512
507
508
506
504
504
503
508
508
512
512
513
519
520
519
519
515
516
515
509
509
504
504
502
499
502
504
507
507
509
514
514
522
522
521
520
519
518
517
512
509
508
509
505
503
504
507
507
508
511
512
515
519
524
522
517
516
515
513
510
509
506
507
499
499
502
505
506
505
508
515
517
517
520
521
519
515
516
517
512
510
507
506
504
504
506
507
508
510
515
515
519
519
521
520
520
517
516
512
512
509
508
505
503
503
502
506
510
511
513
517
518
520
520
522
521
519
517
515
510
509
506
504
503
499
503
504
507
508
513
515
519
520
523
524
519
518
518
513
510
509
505
506
505
502
501
504
504
509
511
515
517
519
521
521
519
521
515
513
509
509
507
507
502
502
502
502
507
509
513
514
516
521
521
523
521
522
516
513
510
510
506
505
502
501
503
505
507
509
512
515
516
520
520
522
521
519
516
515
510
509
504
504
501
499
502
504
504
508
511
515
518
518
523
523
522
518
516
516
511
513
508
507
506
500
504
506
508
511
512
513
517
517
519
522
520
516
513
512
508
508
502
505
503
501
505
505
507
510
512
515
519
519
522
523
521
521
519
517
514
510
506
506
503
500
503
504
504
507
512
515
517
518
521
522
519
520
518
513
511
509
506
506
502
502
502
504
506
508
512
514
519
519
520
519
519
519
515
512
510
507
504
505
504
500
504
505
508
508
512
513
518
519
519
523
519
519
519
516
512
508
504
507
502
502
504
504
508
509
511
515
517
520
520
522
520
519
517
517
512
510
505
507
503
502
503
502
504
508
511
513
517
520
519
520
520
520
517
516
513
510
505
506
503
503
503
505
507
508
512
515
519
523
524
524
521
518
517
513
511
509
509
506
504
501
507
507
507
510
511
513
516
521
517
520
520
518
518
513
510
508
504
503
501
500
501
501
503
506
511
514
516
520
521
522
523
518
516
514
510
509
507
506
505
502
504
504
506
508
511
513
519
519
519
523
520
520
519
514
509
509
507
505
506
504
505
508
509
511
514
515
518
519
523
520
520
516
520
515
509
509
507
504
502
502
504
503
505
505
510
513
515
522
518
521
519
517
518
515
513
509
504
504
503
502
504
502
504
508
512
514
518
520
518
521
520
519
517
516
513
510
507
504
503
501
505
505
508
509
512
514
515
521
519
520
522
519
518
515
512
508
504
504
502
500
500
502
505
505
512
515
516
521
521
523
521
516
516
515
512
511
508
507
503
501
504
504
508
509
511
516
516
519
519
521
518
516
518
514
511
509
508
503
504
501
508
509
510
509
513
516
519
518
519
521
519
518
515
513
512
511
507
504
504
503
504
505
506
509
513
515
517
519
519
521
518
516
515
514
508
507
504
505
503
503
505
505
509
512
518
519
518
520
520
522
522
519
516
513
511
510
506
504
499
499
503
504
507
510
509
512
515
519
519
519
519
518
516
515
513
512
509
506
504
504
504
505
505
507
510
512
517
519
522
521
521
520
517
516
512
511
509
505
504
504
503
502
505
506
512
514
516
521
519
521
520
517
519
515
511
510
508
505
504
502
507
507
507
508
511
516
519
521
519
523
519
516
514
511
509
509
506
505
506
501
503
503
507
509
509
515
518
518
521
521
518
518
516
515
511
508
508
507
504
502
504
506
507
507
511
516
517
519
522
521
520
517
515
511
510
512
507
509
506
503
506
506
504
509
510
513
516
518
521
521
519
518
516
513
511
508
504
506
505
502
503
503
507
506
510
514
517
521
522
523
521
518
517
515
511
508
504
503
504
503
503
502
504
507
508
514
515
521
522
524
520
519
519
517
513
510
509
508
504
504
505
507
508
510
512
515
516
519
519
522
520
519
517
515
510
507
504
502
503
503
503
504
505
509
510
515
517
522
521
523
523
517
518
516
514
510
507
506
506
502
501
505
506
505
512
513
518
518
520
520
519
517
515
513
511
506
507
507
504
499
503
506
507
509
511
514
516
521
520
523
523
516
516
513
511
508
505
507
503
502
503
504
506
507
510
515
518
521
520
521
522
521
520
517
514
510
507
506
505
503
504
504
509
509
512
513
516
520
519
520
520
517
513
515
508
508
506
504
504
503
501
503
505
509
511
515
514
518
518
521
521
519
517
515
512
511
510
507
505
502
504
505
505
507
511
514
517
519
519
522
523
521
520
517
512
508
507
504
505
501
502
503
506
508
513
514
516
520
519
521
522
515
515
515
513
509
506
505
505
502
500
504
507
506
511
513
516
519
520
521
521
519
518
514
512
506
504
502
505
499
503
504
507
508
510
513
516
521
520
524
521
520
518
515
512
510
508
509
507
504
504
503
506
508
509
513
516
520
519
521
521
519
516
517
514
508
508
506
503
501
503
505
508
510
513
516
518
522
520
519
520
519
518
515
513
511
508
505
505
502
501
504
506
506
511
512
513
519
519
522
519
520
518
515
512
511
507
504
504
502
502
502
504
505
509
512
515
518
520
522
521
520
517
515
513
510
508
505
505
503
505
504
509
505
509
515
513
518
518
522
520
517
517
516
508
508
507
506
502
501
502
506
506
508
510
514
515
520
518
521
520
518
518
518
514
510
511
508
508
504
504
504
505
507
511
513
515
519
519
521
521
520
518
512
512
511
506
507
505
499
502
504
504
507
507
511
515
523
524
522
520
519
516
516
514
512
508
508
505
501
502
503
504
505
508
513
513
519
520
523
520
520
518
518
513
511
507
508
504
501
503
504
508
507
509
513
517
522
520
524
519
516
515
514
511
509
507
506
504
502
504
502
506
505
511
512
515
520
521
520
520
518
517
514
510
508
507
508
505
503
506
507
504
507
512
515
516
521
522
524
522
521
519
519
513
510
508
505
505
503
504
506
508
507
510
512
515
520
523
523
521
518
519
516
511
509
505
505
504
503
505
504
507
506
510
513
516
519
519
520
519
519
516
514
512
510
507
503
502
498
500
503
505
505
508
513
514
519
521
521
519
516
516
517
512
512
509
507
507
502
503
504
508
509
513
517
518
520
519
520
522
520
519
515
513
511
508
507
504
500
504
503
507
508
511
515
519
521
521
521
522
519
518
514
512
508
509
505
503
501
505
504
504
505
508
513
514
519
519
522
518
518
515
515
511
509
505
507
506
502
502
502
506
508
509
513
515
521
520
523
522
519
520
518
514
509
506
505
505
504
505
507
507
508
508
513
513
520
521
520
520
520
518
514
513
509
504
507
503
498
503
503
504
508
510
513
517
520
519
524
520
521
518
516
515
512
507
508
502
503
502
503
508
506
509
512
518
519
520
521
520
518
518
516
512
512
506
504
502
501
502
505
506
508
510
513
515
520
521
521
521
519
518
516
513
511
510
508
505
503
504
505
507
507
510
515
515
520
519
517
519
517
518
515
512
509
506
505
504
499
504
504
505
506
508
513
515
519
519
521
519
520
516
515
513
513
509
508
504
500
503
504
507
507
509
514
514
519
519
522
520
517
519
515
513
509
508
506
505
503
504
504
506
510
508
514
515
519
520
523
524
518
519
518
514
510
508
504
504
502
502
505
508
509
512
516
516
522
520
522
523
520
519
518
512
511
508
507
503
501
502
503
504
505
508
512
516
519
520
524
519
517
516
514
510
508
504
504
504
500
503
507
509
508
510
513
518
519
521
521
521
517
516
515
514
512
508
507
506
502
503
504
504
506
510
515
514
521
522
524
524
520
518
516
512
509
504
505
505
504
504
502
503
505
509
512
511
518
517
519
517
518
515
515
511
508
507
507
504
503
503
504
506
508
510
512
516
520
519
521
523
518
519
517
514
512
508
508
504
504
504
503
504
507
510
514
516
519
520
522
519
518
519
517
513
508
506
506
505
501
503
505
507
507
510
515
517
519
520
522
524
519
519
517
512
511
508
504
503
500
504
503
504
508
511
514
516
522
519
523
521
518
516
515
512
510
508
504
504
502
503
504
508
507
510
514
516
519
519
520
521
519
517
519
512
510
510
508
504
502
502
504
504
505
510
512
514
519
518
523
520
519
517
516
514
512
507
508
504
502
504
505
505
510
513
516
515
519
518
519
522
518
518
516
511
510
506
505
504
502
501
501
503
503
506
512
515
519
519
522
523
519
521
517
513
512
511
509
505
503
502
503
506
508
511
513
513
516
517
520
519
518
518
516
516
510
509
505
505
503
505
504
506
503
509
512
514
518
518
522
520
518
519
520
513
512
508
504
506
502
503
505
507
506
508
513
515
519
519
519
519
518
519
518
514
513
507
505
505
503
503
505
508
507
508
513
513
518
517
521
521
520
518
517
515
511
509
508
504
502
502
503
503
505
508
512
514
522
521
522
523
520
519
517
514
510
509
508
504
505
505
505
507
508
509
512
512
516
517
520
520
519
518
517
512
510
505
505
503
502
501
503
504
506
510
512
515
519
519
520
522
520
520
520
515
511
507
508
504
502
503
505
508
507
508
511
513
521
521
520
522
519
518
516
512
509
506
504
502
499
499
501
504
508
508
513
516
520
521
524
524
523
522
516
515
513
506
507
506
502
501
504
508
508
509
512
516
520
522
521
524
519
521
515
512
510
511
507
508
503
504
504
507
507
509
514
512
517
517
519
519
517
515
516
513
511
507
505
504
504
504
504
505
508
508
512
515
519
519
519
521
517
518
517
513
512
508
507
504
503
504
504
504
507
508
513
512
518
516
519
519
519
518
517
513
512
510
509
504
504
502
507
507
508
512
512
516
519
519
520
520
516
515
515
514
510
509
507
504
502
503
502
505
507
510
512
514
520
521
521
523
521
518
516
514
512
509
507
505
503
505
504
505
508
508
511
515
517
522
520
523
521
516
518
513
511
509
505
504
503
499
505
507
505
507
512
515
517
519
521
523
524
521
520
514
511
508
506
504
501
501
500
505
505
506
512
512
514
516
520
522
518
519
515
514
512
509
507
505
504
503
504
507
507
512
515
515
522
521
521
524
520
519
518
514
513
507
509
505
503
503
505
506
508
508
513
515
519
521
521
522
518
517
515
512
509
505
504
502
503
501
500
504
504
507
511
515
519
519
521
523
522
521
517
515
512
510
507
502
502
500
501
504
506
508
512
516
518
519
520
522
522
518
517
513
511
508
508
504
502
505
506
506
508
510
513
513
518
518
520
521
519
518
517
513
509
507
507
504
502
500
503
503
504
505
511
515
518
518
523
523
518
516
516
514
510
508
508
505
504
504
504
507
505
508
515
515
519
520
522
521
518
516
516
512
511
506
509
505
504
504
505
505
506
508
513
513
519
520
522
522
519
519
516
514
512
509
509
506
505
504
505
508
510
510
511
514
516
519
518
521
516
516
515
511
510
508
508
507
503
505
503
506
507
508
510
512
518
520
520
518
520
518
519
515
513
509
508
504
503
502
505
507
508
511
514
516
519
519
521
521
519
519
517
514
509
508
504
504
501
503
504
505
505
509
512
511
518
518
520
518
516
515
515
512
510
508
506
506
505
504
504
505
507
508
512
515
518
519
523
525
521
519
516
516
513
510
508
509
504
502
502
504
506
507
510
512
516
518
520
520
517
517
515
512
511
511
511
509
507
504
505
505
508
505
511
514
518
518
520
521
518
517
517
514
513
511
508
506
508
505
504
508
507
508
510
513
519
518
518
519
518
517
515
510
510
505
504
501
503
503
503
503
504
510
510
514
518
521
519
524
519
516
516
516
514
507
509
505
505
504
502
504
505
509
513
512
517
518
518
519
519
519
515
512
512
505
507
504
503
501
503
507
507
508
511
513
518
518
521
523
519
521
518
514
510
507
507
506
504
504
504
507
508
508
512
516
518
518
523
523
521
518
521
516
513
508
510
505
505
504
505
508
507
510
513
513
517
519
519
520
518
519
517
513
510
508
507
505
503
501
504
507
508
509
513
512
517
519
519
521
520
519
517
516
512
510
508
506
505
502
501
504
505
507
513
515
518
521
523
522
521
520
517
514
509
508
505
504
503
500
502
504
504
506
511
512
516
515
517
519
516
516
514
512
514
512
510
507
504
503
506
506
506
509
512
516
518
518
518
524
522
519
517
515
511
509
507
508
505
505
507
508
508
510
512
515
519
521
520
520
519
515
513
512
509
507
506
504
504
503
503
505
506
505
510
513
518
521
522
524
519
521
521
514
511
511
506
503
502
501
502
503
505
507
512
513
519
517
520
521
518
519
516
513
511
510
509
505
504
503
503
507
507
508
511
515
515
518
521
523
519
520
517
515
513
508
508
504
502
504
503
505
507
510
513
515
517
519
521
521
521
520
518
516
513
510
508
504
503
502
503
506
506
508
510
512
517
517
519
520
518
519
517
513
513
511
510
505
505
502
505
506
505
509
510
514
519
519
520
521
519
518
517
514
512
507
509
507
505
503
504
505
506
508
512
512
516
518
518
522
519
520
515
514
512
507
502
504
504
501
500
504
505
508
515
513
517
518
518
520
519
516
514
515
512
507
507
507
507
504
504
505
507
509
515
518
517
520
521
523
521
520
518
515
515
509
508
503
502
500
499
505
505
510
511
511
520
519
519
521
520
519
518
515
510
508
507
505
503
503
501
505
504
508
512
512
518
518
517
519
520
516
517
515
513
510
509
505
502
500
502
506
508
511
512
514
520
521
521
523
521
519
518
515
514
509
508
505
505
503
502
504
507
508
512
514
518
518
515
520
518
516
515
515
512
508
507
506
507
503
503
507
506
508
512
512
520
520
519
523
521
518
518
515
514
511
509
504
506
504
503
505
505
509
514
513
519
519
520
521
521
519
517
513
511
507
506
504
503
503
504
505
504
506
512
515
518
519
519
522
523
521
519
516
514
511
507
505
503
502
504
506
507
507
511
515
519
521
519
521
519
516
518
514
512
505
504
505
504
503
500
502
504
508
507
509
517
518
520
521
521
519
519
515
514
511
510
507
505
502
504
505
507
507
512
513
519
520
518
522
519
518
517
516
512
508
505
504
503
504
501
504
507
509
513
515
519
521
519
524
521
517
515
515
512
509
507
506
506
500
500
505
506
507
513
514
519
521
523
521
520
518
515
511
509
509
508
505
504
504
501
507
506
508
512
515
519
522
519
524
519
518
516
511
511
507
507
504
504
500
501
504
507
508
513
516
519
520
520
523
521
521
517
516
512
508
506
504
502
501
500
503
504
506
509
513
515
517
518
520
521
520
515
515
512
508
508
506
504
504
504
506
507
506
511
513
520
519
523
524
520
522
516
514
512
509
506
503
504
500
502
505
506
505
510
515
519
517
519
522
521
519
516
513
512
507
507
503
503
502
503
507
506
510
516
518
521
521
523
523
521
520
519
513
512
511
509
504
504
500
500
503
503
503
508
511
516
518
519
524
519
519
519
517
515
510
507
504
503
502
502
506
508
505
509
511
515
516
518
522
520
519
517
512
511
509
507
505
505
505
503
508
508
510
511
513
516
519
520
523
518
518
515
516
512
510
508
504
502
502
502
506
506
508
511
513
516
518
520
521
521
519
518
515
514
511
510
507
504
503
503
504
504
504
511
512
518
519
518
521
518
519
517
516
514
510
507
507
506
504
502
504
508
508
513
514
519
518
519
525
520
516
515
513
512
509
509
507
506
501
504
504
504
507
510
511
514
518
520
521
518
519
518
512
511
510
505
503
503
503
504
504
506
508
513
512
517
519
519
521
518
518
516
515
511
508
509
506
504
504
507
508
508
511
513
514
519
518
521
521
521
518
515
513
512
507
504
504
504
501
503
502
503
504
510
512
521
519
519
523
521
520
518
516
514
510
510
509
509
504
504
505
509
504
512
514
516
519
520
523
520
517
518
514
513
509
508
505
505
500
505
505
506
507
514
513
517
518
522
524
524
520
519
514
511
510
505
505
504
505
506
508
509
510
512
513
516
520
519
524
520
518
520
514
512
507
504
501
502
502
502
504
506
507
510
513
515
517
519
523
519
521
518
517
514
510
509
504
505
503
504
508
507
508
512
512
520
520
521
524
522
519
515
513
511
509
509
500
500
501
500
507
507
508
512
510
515
516
516
522
520
518
515
514
511
507
508
504
505
502
502
504
505
505
511
514
514
518
519
524
520
519
517
515
514
510
508
504
504
503
503
504
508
508
511
514
517
519
521
521
520
518
515
515
514
510
508
504
500
505
502
504
507
508
513
513
518
519
519
519
522
518
516
513
513
510
507
503
503
503
504
504
507
506
510
513
518
520
520
520
519
518
516
516
514
511
509
505
503
503
503
506
506
510
513
515
520
521
519
524
522
518
518
516
515
510
511
506
505
504
502
505
507
505
510
511
516
517
516
519
519
517
516
514
514
508
505
502
504
502
505
506
507
509
510
513
514
518
521
524
521
521
518
513
515
510
508
508
505
501
504
504
508
506
509
513
518
522
520
522
521
519
518
515
512
511
509
504
504
502
501
503
504
507
510
511
518
519
519
523
519
518
516
517
515
509
510
506
504
505
504
505
508
508
510
513
518
517
519
523
521
519
519
512
509
507
506
504
504
500
504
507
508
509
513
516
519
520
519
524
522
519
515
516
514
510
507
503
503
500
500
503
504
507
511
514
516
518
520
523
518
518
517
515
512
508
506
505
503
504
502
504
505
505
510
513
518
519
520
524
522
519
518
515
514
508
507
503
502
503
503
503
503
505
510
515
515
517
521
520
523
519
514
513
511
511
508
506
505
501
503
504
504
508
513
513
516
518
519
523
520
518
519
514
513
508
507
507
505
502
503
506
503
506
510
514
519
519
522
524
522
521
519
512
512
510
509
504
503
502
504
505
504
507
511
514
516
519
519
521
519
519
516
512
512
509
506
508
507
504
504
506
507
507
511
513
518
519
520
523
519
520
517
512
512
506
505
504
504
505
504
507
508
511
511
512
515
518
518
522
524
522
518
517
511
507
509
504
503
504
502
506
507
506
509
512
518
519
519
521
519
519
517
514
513
510
509
504
504
500
502
505
505
507
512
513
520
518
519
524
520
519
516
516
515
508
507
504
504
502
501
502
504
507
510
511
515
519
521
524
523
520
519
515
509
508
507
504
504
500
500
505
506
506
509
513
515
518
519
519
519
516
516
513
514
509
508
502
503
499
500
503
506
508
512
517
519
520
521
524
522
518
519
518
513
511
510
506
505
504
503
506
507
507
511
515
520
519
521
523
522
522
517
514
514
511
511
505
505
501
503
506
507
507
509
515
517
519
520
525
523
522
516
515
513
507
506
501
501
498
499
502
503
505
508
513
516
519
519
522
521
518
518
518
514
509
511
504
504
502
502
506
505
507
508
512
517
517
518
521
522
519
516
514
512
510
508
505
505
503
505
507
505
508
512
515
518
523
522
524
524
520
518
518
513
509
507
505
506
504
503
502
505
505
508
513
518
519
519
519
520
518
519
515
514
510
508
505
505
506
503
505
505
508
510
512
515
515
517
519
521
519
516
516
513
510
508
505
503
504
500
504
506
504
511
510
516
516
519
521
521
519
515
512
514
509
510
505
504
504
505
507
506
507
510
512
515
520
519
523
520
519
519
515
514
509
508
504
503
501
502
504
505
507
510
513
518
521
521
525
521
520
519
515
514
510
510
506
504
501
502
504
505
505
508
512
516
516
518
518
519
519
518
519
516
510
510
504
504
500
503
506
507
509
512
514
518
521
519
523
519
523
518
516
513
508
507
505
504
500
500
503
503
503
506
510
512
516
518
520
521
519
519
515
512
511
509
508
506
502
502
505
507
510
513
514
519
522
522
524
523
519
519
515
515
511
507
506
506
504
504
505
506
507
508
511
518
519
515
522
519
518
516
515
513
509
507
505
506
502
502
505
505
508
511
515
517
519
518
521
519
519
518
517
514
510
510
507
507
504
501
504
505
509
512
514
517
519
520
521
525
521
516
513
515
508
509
504
504
501
502
507
507
506
511
514
518
519
519
521
519
516
517
514
512
507
505
502
503
501
500
501
504
505
512
514
519
520
521
520
520
519
520
517
516
510
508
507
503
502
502
502
506
506
509
514
519
518
522
522
521
521
519
518
512
510
507
507
507
504
502
504
509
508
511
513
517
519
520
523
523
521
519
516
514
511
509
505
502
503
502
503
505
504
511
512
514
516
517
519
518
517
515
513
511
511
508
505
504
502
502
506
508
507
513
517
519
520
521
522
522
521
521
515
514
508
507
505
502
502
502
504
503
508
511
511
518
518
519
522
522
520
518
517
511
510
508
504
504
499
499
502
505
507
508
511
518
519
519
522
520
519
518
518
513
510
510
509
505
504
503
506
508
509
512
515
519
518
521
521
520
518
518
514
513
510
507
507
506
502
503
505
504
506
510
513
516
519
521
523
519
519
519
516
515
510
506
504
503
504
502
503
506
506
508
510
515
518
518
519
519
518
516
515
514
508
510
505
505
503
504
506
505
506
509
514
518
519
519
519
519
517
516
515
511
511
508
504
506
500
502
506
506
508
511
511
518
518
521
523
523
519
519
515
513
510
509
508
507
504
504
503
501
506
510
513
516
519
520
523
520
519
520
515
515
512
509
506
505
504
503
504
504
507
510
512
516
517
519
522
521
518
516
514
512
509
509
505
508
504
501
504
503
506
508
510
514
518
520
522
517
516
516
513
515
511
509
504
506
500
502
505
505
506
510
513
517
516
519
521
523
520
521
516
513
510
510
504
505
500
504
504
505
509
511
512
517
518
520
521
520
520
518
516
514
508
509
504
504
500
502
502
504
504
510
513
518
517
519
520
521
519
516
516
516
510
509
504
503
504
504
503
506
506
511
514
518
518
519
524
522
519
517
518
516
512
510
505
504
501
502
504
504
507
509
510
515
519
519
523
521
520
519
516
515
512
510
508
505
505
503
506
507
508
511
512
515
518
518
519
520
518
516
513
512
509
508
505
506
504
503
507
507
507
509
514
517
521
519
524
523
518
518
515
515
511
508
505
506
503
502
504
505
508
511
514
519
520
523
525
522
518
513
514
512
510
510
505
504
502
501
505
506
507
509
510
515
517
519
522
521
518
516
515
512
510
508
505
503
500
500
503
504
508
511
512
516
519
521
521
523
518
515
513
511
509
506
504
503
501
500
504
507
504
509
510
515
518
519
522
521
520
518
518
515
512
509
505
505
504
502
503
504
508
512
511
516
519
519
524
520
519
519
516
514
513
510
504
503
502
500
505
504
508
512
513
516
516
518
519
519
518
514
516
509
508
505
504
503
501
503
504
507
507
510
512
514
518
519
524
526
524
520
521
515
512
510
506
506
501
503
504
506
507
510
512
516
517
521
522
521
518
516
516
512
510
509
506
505
505
502
504
503
507
509
511
516
515
518
518
519
519
519
516
513
509
509
508
508
505
503
506
507
507
511
513
515
519
519
524
522
520
518
516
513
511
507
507
507
504
502
505
506
505
509
512
515
519
519
519
522
522
519
516
514
512
511
509
505
502
501
503
502
505
507
507
514
518
520
520
520
519
518
517
514
511
509
505
507
504
503
505
507
506
510
512
515
518
520
522
520
520
519
514
513
509
510
505
503
498
502
503
504
504
509
510
516
518
519
523
523
521
518
516
515
512
511
507
506
500
500
503
503
505
510
512
516
521
521
521
521
518
518
517
513
510
506
505
504
505
502
504
505
507
510
513
516
519
520
522
520
521
518
518
514
509
508
509
505
504
499
500
505
505
510
511
515
518
517
521
521
521
518
518
517
510
505
504
504
503
504
504
505
507
511
512
515
516
516
518
517
516
515
515
512
508
509
508
508
508
501
506
507
512
508
510
518
524
516
514
515
515
520
528
520
511
513
501
512
508
507
522
515
501
494
481
486
505
505
507
523
506
500
560
526
526
498
470
470
491
551
588
580
549
499
473
480
453
441
468
575
672
630
623
573
451
368
429
489
532
518
513
478
466
476
570
569
524
480
545
507
465
509
459
422
466
533
535
547
483
500
589
571
487
526
558
526
560
458
447
519
552
546
566
507
537
517
461
464
447
409
457
531
545
558
519
477
504
496
529
528
555
577
549
542
503
476
457
432
452
525
585
611
503
432
504
511
523
531
558
554
513
471
490
519
540
566
506
463
449
462
501
455
418
406
552
589
637
608
526
455
364
472
539
600
555
550
499
427
423
489
579
539
537
544
620
638
632
464
393
470
511
526
448
327
481
592
577
562
598
569
535
462
455
474
507
579
527
381
441
550
580
574
543
572
540
513
473
545
455
427
421
456
513
524
482
475
423
583
603
493
456
515
638
586
517
506
512
508
494
443
481
461
535
574
625
536
385
360
455
614
581
547
532
497
535
536
462
463
478
537
516
505
500
502
496
499
539
647
621
527
455
508
534
508
512
492
501
547
618
524
458
480
471
483
525
578
549
485
439
503
532
521
494
495
514
526
524
494
476
469
477
490
550
544
484
478
499
531
488
421
459
494
511
582
544
496
493
463
491
496
529
597
563
492
376
444
540
531
540
530
532
543
562
550
529
523
500
485
524
532
503
499
552
556
560
519
459
478
492
540
550
542
524
551
536
490
424
455
512
504
496
499
504
508
516
508
537
528
475
466
521
560
546
532
528
528
569
587
508
394
403
494
529
535
542
512
499
485
508
565
528
541
519
507
483
460
512
548
587
494
501
508
513
529
499
483
508
494
507
543
512
503
488
475
529
556
549
527
451
461
463
504
518
513
516
507
516
519
515
527
537
542
490
454
514
536
525
507
505
508
500
498
525
561
543
501
474
509
528
530
566
539
520
470
451
523
519
456
452
499
533
550
516
492
487
535
537
519
538
528
524
542
523
507
516
499
460
473
493
513
521
508
526
523
509
523
516
540
552
532
511
551
543
492
390
445
487
503
515
506
526
541
534
515
481
481
504
541
565
542
489
470
468
519
551
552
537
502
512
493
499
524
529
536
511
522
499
496
483
501
538
529
504
512
495
540
548
542
481
447
438
491
507
524
553
561
536
543
537
520
500
505
496
516
550
519
505
501
512
507
447
491
502
480
508
528
508
510
562
574
543
474
458
526
558
545
479
455
450
503
511
514
505
496
529
514
512
516
547
524
503
509
536
532
496
476
494
483
480
501
513
533
523
497
518
525
523
537
540
527
526
532
522
510
473
446
504
548
499
479
487
518
492
497
498
513
570
562
595
596
523
442
381
500
536
534
507
480
511
558
548
519
478
471
456
520
554
536
482
447
525
558
555
536
528
521
520
507
543
547
496
445
413
483
526
537
523
507
528
534
530
530
526
546
503
467
415
483
506
503
482
494
583
578
558
489
510
545
558
529
532
531
488
504
447
491
508
495
500
481
489
499
519
499
499
527
524
500
518
540
556
542
522
531
519
484
453
488
508
496
483
533
538
519
504
539
516
518
489
487
493
519
519
525
548
544
518
509
478
516
501
497
494
529
499
457
492
613
594
488
418
517
542
543
516
508
501
515
521
503
522
496
478
460
552
621
555
389
411
491
528
531
536
540
537
539
505
499
497
458
478
459
547
535
530
530
503
517
516
495
513
561
548
540
520
494
524
508
504
460
484
518
546
530
507
475
479
497
536
550
543
535
513
508
470
489
518
540
506
485
501
497
492
521
517
510
507
515
532
514
505
508
534
553
508
479
500
535
488
509
517
508
484
518
531
551
480
479
495
535
569
559
533
480
471
502
483
473
511
513
489
502
510
525
510
521
550
589
513
483
458
518
503
536
539
528
545
538
502
485
473
463
502
509
519
572
572
512
480
497
543
532
508
506
513
496
496
504
499
482
527
518
509
496
486
512
531
536
533
552
556
517
422
471
543
499
445
498
506
512
505
511
504
536
532
520
499
470
520
530
556
542
547
529
505
500
475
466
481
472
488
511
531
548
547
545
565
592
517
445
427
497
529
530
507
521
551
532
487
450
472
510
526
526
520
513
512
532
547
562
518
500
510
480
502
505
508
522
524
516
513
494
483
493
506
526
540
493
512
524
510
499
502
499
509
543
530
513
523
496
473
521
492
481
510
545
546
541
507
503
503
496
508
535
537
521
497
510
529
523
471
454
513
502
499
462
499
531
551
553
531
521
514
536
526
536
522
480
447
487
515
495
508
518
509
504
507
506
508
539
551
549
514
484
482
536
520
513
521
514
502
514
520
528
507
523
540
551
496
453
454
489
552
515
479
486
551
545
515
499
511
504
496
515
512
517
516
537
550
447
496
521
529
499
495
525
547
546
530
502
473
471
481
499
500
506
518
511
481
561
575
536
513
529
527
507
476
491
529
536
483
477
479
497
513
532
573
551
494
424
483
551
515
499
524
528
536
545
523
524
505
423
477
501
518
483
497
545
585
574
541
505
455
477
520
516
529
532
536
514
467
456
482
571
567
505
475
453
492
525
508
509
515
520
528
525
521
531
502
494
499
515
529
545
531
473
430
460
550
538
546
556
556
504
440
509
512
515
519
513
534
542
524
549
545
512
387
480
482
499
505
500
531
524
542
547
530
534
531
511
487
470
512
537
490
484
527
541
511
512
518
525
542
535
512
504
522
484
496
487
492
456
502
507
502
503
516
534
558
547
511
528
536
559
500
486
493
496
477
490
522
458
471
529
527
525
547
569
588
519
472
440
506
500
492
537
519
480
523
528
520
508
505
473
423
480
552
579
542
534
527
528
547
561
516
480
459
456
499
514
481
464
506
542
551
543
538
556
528
524
438
462
481
519
515
525
515
508
512
515
518
503
508
509
511
527
549
508
499
484
536
535
530
530
505
529
520
498
460
460
503
507
491
515
563
613
560
431
480
464
490
521
537
566
552
561
470
447
437
398
454
586
546
553
547
524
531
548
538
540
519
506
448
461
507
569
568
499
448
447
555
562
505
501
508
508
496
498
503
530
531
519
523
531
538
526
508
494
491
504
505
492
487
486
533
519
523
525
504
512
515
539
537
476
465
505
531
517
552
561
536
491
487
458
499
499
486
488
504
499
496
550
522
551
527
518
523
550
521
480
472
495
472
450
518
543
521
492
558
528
504
531
537
550
539
544
529
503
491
505
481
485
471
513
494
519
515
500
493
519
527
531
572
544
520
505
494
491
481
479
521
511
488
471
485
529
560
525
489
491
482
480
574
615
602
577
471
457
447
487
523
537
526
498
485
488
497
521
547
533
488
483
529
549
527
505
479
489
507
497
471
468
499
506
505
505
519
529
560
627
584
512
521
526
512
489
479
482
522
487
477
479
491
497
512
512
504
492
486
487
495
522
536
578
571
590
574
536
463
412
462
495
496
544
543
514
484
492
494
499
526
512
536
551
509
483
522
537
528
498
489
493
505
536
537
492
465
527
533
510
495
508
473
592
574
502
514
510
470
476
536
563
502
446
497
511
492
458
454
466
567
588
616
635
561
472
449
481
477
487
535
520
467
438
459
472
443
543
504
583
601
657
585
443
460
453
430
503
528
587
567
493
472
492
536
553
478
423
446
519
587
601
582
497
453
436
486
555
594
530
465
475
482
564
592
480
458
482
496
558
561
495
506
552
487
470
529
581
531
467
487
487
465
475
554
501
460
470
547
577
536
519
532
533
493
469
483
464
513
505
522
632
569
556
508
463
454
534
467
446
462
583
553
567
570
534
502
462
411
448
496
517
522
512
464
538
587
584
562
516
503
420
426
498
532
591
553
478
435
516
537
558
541
500
423
448
536
621
587
489
504
502
503
526
565
533
476
400
396
440
581
575
576
601
554
542
454
477
505
545
511
503
464
458
426
455
570
568
428
495
600
677
536
499
476
467
491
521
508
491
487
498
452
407
507
642
632
547
554
591
473
458
467
465
494
506
490
462
524
537
620
508
464
474
473
553
546
569
571
440
428
383
471
597
606
549
499
601
547
514
489
465
472
466
488
527
512
569
592
496
440
435
475
431
474
569
613
635
583
492
464
467
467
499
512
497
563
564
533
500
519
526
478
456
464
506
584
540
510
500
478
543
521
483
460
511
584
528
515
469
420
405
416
600
683
582
519
513
519
511
515
541
511
460
424
377
494
617
603
486
441
567
596
606
512
469
489
453
433
466
491
520
613
575
600
527
480
422
402
497
580
600
529
517
508
485
485
486
462
499
510
541
551
517
497
490
480
514
576
513
510
477
400
509
612
575
530
520
505
497
531
530
535
511
508
529
451
446
505
515
464
465
482
510
580
581
556
585
515
488
473
478
481
507
479
521
535
543
534
495
606
571
502
511
473
467
473
442
475
526
528
535
492
419
448
517
666
620
534
495
520
539
506
473
428
456
528
584
519
513
464
471
473
589
605
508
457
451
526
540
534
484
480
508
454
445
505
623
650
528
488
502
438
418
513
614
592
512
487
506
514
495
546
536
509
487
407
383
437
600
632
514
539
574
511
543
542
520
490
470
489
529
496
469
429
440
537
612
590
545
519
485
553
516
492
485
460
503
540
510
448
406
474
623
590
512
488
487
551
487
479
483
568
620
524
491
489
515
526
527
479
492
526
478
447
439
510
558
515
556
531
547
501
542
518
471
517
558
488
451
489
520
517
501
466
492
558
602
530
488
488
533
514
483
486
528
516
523
495
530
504
507
507
480
529
543
491
505
511
521
560
548
501
455
470
489
512
480
531
560
521
475
504
537
495
448
503
579
603
555
518
482
504
554
519
469
477
507
518
484
495
507
489
506
539
527
481
461
459
571
588
514
537
603
546
509
519
486
478
478
473
491
502
496
462
460
503
533
543
553
518
532
571
589
532
463
452
499
519
487
495
494
538
553
519
489
470
483
563
650
491
453
463
560
587
529
483
455
460
477
488
523
471
485
459
523
557
564
572
501
489
503
526
579
595
503
468
496
501
487
520
508
478
484
506
529
472
481
515
567
466
399
495
637
653
605
512
473
472
477
492
522
491
447
488
563
568
449
403
453
621
657
524
465
468
541
568
546
504
467
461
499
518
492
496
504
457
455
544
590
530
495
525
580
523
533
501
521
527
460
443
523
617
528
470
504
468
452
504
479
528
565
544
527
481
545
572
559
497
462
460
487
500
508
510
548
560
509
459
478
480
506
547
617
599
535
493
409
440
479
473
478
434
418
534
670
625
542
548
519
520
550
513
525
533
504
455
464
457
471
505
467
471
497
504
489
576
537
462
552
632
672
554
529
484
442
428
432
448
503
553
539
558
533
483
473
495
519
536
531
541
476
475
483
565
544
539
556
535
480
434
457
567
559
515
494
496
504
487
488
499
538
540
537
510
492
532
502
505
500
534
506
452
472
551
502
440
484
567
679
576
523
497
463
453
475
543
610
499
473
477
504
520
508
494
480
460
470
523
569
564
545
507
526
500
496
495
505
511
515
481
497
460
481
514
583
577
496
510
531
561
536
532
512
468
455
459
463
503
582
612
527
480
497
494
492
482
502
536
486
513
521
546
557
524
502
495
513
501
486
499
540
518
478
466
483
510
548
525
521
520
513
519
528
539
512
508
498
508
537
528
500
487
494
523
530
513
506
515
523
491
485
482
556
546
500
514
523
502
486
480
507
520
524
511
511
499
511
502
510
515
531
551
525
512
512
506
462
474
491
505
563
540
510
491
507
533
517
495
519
532
534
526
507
450
443
481
559
523
543
540
530
537
504
492
492
495
491
493
504
536
502
512
531
465
475
542
658
591
508
500
482
485
478
491
500
520
519
490
487
516
513
539
543
513
491
502
499
536
497
509
519
520
528
487
459
461
553
567
520
499
472
497
569
579
498
483
565
523
464
401
404
486
599
614
559
493
493
548
539
513
520
508
498
509
551
499
476
480
496
515
512
475
493
505
527
504
522
532
555
496
465
457
490
531
587
591
531
509
515
487
498
501
497
485
472
478
543
574
536
464
438
494
607
621
541
481
477
467
444
495
511
531
519
529
512
476
465
515
543
472
528
568
564
521
531
509
498
507
510
523
511
497
468
487
520
510
526
529
506
535
531
511
513
513
519
524
568
469
458
500
482
507
509
511
515
510
487
479
519
580
552
496
502
566
577
498
475
519
497
495
498
441
471
493
509
573
555
529
519
514
531
505
483
506
575
542
492
482
502
517
501
493
494
488
497
517
513
536
533
550
558
507
451
462
524
532
519
533
524
515
483
469
465
479
480
476
510
593
609
571
543
494
511
498
508
524
483
508
532
524
490
495
492
474
488
487
516
545
534
538
527
504
507
511
504
484
534
481
450
465
513
606
568
572
546
497
490
507
491
496
478
492
524
537
530
495
557
526
483
470
488
510
522
521
530
530
534
536
521
465
481
476
490
532
552
537
511
497
508
497
499
494
479
494
524
539
570
519
430
473
528
604
536
509
549
519
515
517
481
463
489
521
494
478
507
558
545
511
507
519
535
510
490
503
500
504
513
530
495
492
518
516
503
492
499
497
499
535
523
519
527
541
541
531
538
510
492
480
459
430
448
505
558
568
573
523
496
516
568
545
509
500
523
515
509
514
494
476
496
520
500
489
512
523
499
477
496
511
516
512
509
554
583
535
477
465
499
521
508
480
468
501
521
561
519
526
551
543
539
510
490
500
512
507
490
494
510
511
507
514
517
474
450
506
540
574
530
528
498
470
481
481
513
588
583
535
502
506
520
500
479
476
525
513
489
501
512
533
508
508
538
575
547
499
492
492
517
516
473
474
471
479
509
504
489
502
553
572
551
531
507
510
553
565
510
468
449
472
506
525
480
485
489
517
542
582
565
537
501
499
496
491
496
529
507
497
537
530
494
519
487
524
473
468
514
519
559
559
531
546
494
520
503
513
494
482
493
481
470
505
514
526
542
522
497
521
533
511
484
474
559
535
550
519
495
512
518
496
497
507
533
540
509
508
481
479
453
463
513
544
558
550
568
505
463
485
488
561
554
508
463
475
462
542
551
551
534
534
544
503
514
507
473
467
481
556
593
515
494
522
548
503
445
433
480
547
547
498
468
505
575
593
525
482
503
508
535
494
474
472
498
529
489
459
444
516
563
596
568
547
529
527
499
484
479
502
538
524
474
500
496
502
502
482
508
526
523
498
513
514
522
554
571
505
478
480
520
516
511
477
483
501
512
577
560
499
488
486
519
538
523
519
508
493
516
506
471
462
506
541
577
526
491
463
504
555
549
510
506
520
533
519
482
488
497
562
553
504
452
456
493
526
513
535
530
521
552
509
508
514
519
506
490
481
493
502
520
516
514
515
513
496
528
505
499
487
494
516
540
554
548
503
460
485
548
593
513
457
444
470
528
548
531
519
515
504
518
513
544
534
499
494
521
546
531
513
492
466
469
469
536
531
517
515
572
551
526
487
477
512
521
511
527
527
491
489
491
510
503
513
519
497
479
452
483
508
504
510
571
595
586
525
487
487
514
534
526
524
476
497
493
493
519
502
492
486
492
493
525
578
543
508
484
527
545
530
515
516
510
486
492
482
515
527
514
484
489
483
528
556
531
518
508
509
525
527
519
501
490
489
487
496
484
486
515
558
542
526
503
505
524
534
515
500
509
529
544
549
502
436
418
440
479
602
605
546
534
527
512
509
504
534
519
497
472
454
507
480
488
531
575
584
509
500
502
486
495
510
533
529
490
499
517
529
529
519
493
488
481
492
537
537
517
496
478
484
483
502
556
547
523
497
539
594
559
489
497
483
481
493
476
498
537
509
520
486
504
494
515
537
525
510
526
539
523
502
508
508
515
510
508
502
503
510
514
511
505
507
516
528
537
497
504
511
507
554
533
525
484
481
494
496
508
498
522
525
518
515
515
508
503
510
526
526
540
499
465
493
505
521
527
521
516
495
492
512
518
525
526
514
488
517
561
543
551
530
478
480
447
484
541
551
516
536
503
496
516
533
514
499
502
493
517
524
510
497
511
536
500
426
454
508
588
551
483
511
526
561
544
513
505
504
490
486
497
522
519
528
521
510
511
497
483
454
497
532
547
543
523
497
510
495
502
517
515
527
516
517
507
481
474
473
533
548
558
531
476
510
506
511
545
564
532
508
474
496
511
516
493
492
499
473
483
498
557
564
550
531
504
490
486
514
526
514
517
515
508
523
505
485
492
511
531
549
487
472
508
506
510
522
531
527
528
521
492
499
507
508
487
470
533
515
524
499
516
563
536
497
502
513
507
502
504
518
500
483
481
544
587
562
487
459
463
468
487
549
601
572
535
505
495
500
512
499
493
507
526
527
479
451
472
493
531
580
555
541
519
499
487
507
505
504
511
492
475
497
560
557
544
511
505
492
476
480
488
507
523
507
504
515
510
535
528
528
532
508
514
520
507
512
520
491
498
507
512
521
534
515
464
493
525
526
562
557
513
489
481
483
514
515
519
503
504
506
461
497
525
560
548
520
502
528
539
506
481
493
504
504
496
515
509
509
506
484
527
552
527
510
494
509
503
518
528
556
510
478
503
500
501
511
496
502
519
532
523
503
502
510
531
523
483
463
486
548
581
544
517
508
515
496
495
498
472
494
518
556
528
487
490
529
548
535
516
508
500
524
513
481
496
470
481
501
491
512
516
530
574
564
543
529
504
499
510
512
513
501
488
489
491
507
497
509
511
486
500
503
512
534
568
563
528
512
510
503
497
513
502
486
471
512
512
491
512
499
546
554
540
514
504
522
536
544
507
476
482
508
527
519
506
484
502
504
509
511
498
504
508
519
530
519
516
508
537
525
512
510
494
504
508
503
484
491
495
525
531
511
509
508
522
531
510
502
519
547
532
504
493
508
507
488
506
527
531
514
487
482
499
531
535
519
507
500
519
545
548
515
490
477
461
451
488
544
540
541
558
573
512
490
496
513
514
512
521
506
520
519
511
502
491
497
489
491
501
505
511
522
542
521
513
483
492
509
553
534
512
505
518
521
512
487
471
488
523
525
542
524
527
532
521
505
509
511
515
492
501
512
486
498
496
506
511
529
524
495
501
531
525
518
520
528
518
512
477
496
508
513
536
531
501
476
480
485
546
532
573
533
492
510
495
511
509
507
515
526
520
502
505
513
530
511
486
481
468
498
499
525
542
527
521
555
543
531
492
504
522
492
497
492
515
504
498
508
488
491
531
524
531
515
522
516
507
520
500
533
516
494
494
495
502
470
473
529
585
578
531
504
517
479
487
483
489
536
556
526
534
528
515
489
448
495
545
550
505
487
514
508
513
480
489
532
507
499
495
551
548
522
514
513
516
484
474
506
521
510
535
516
506
514
530
507
502
483
545
572
520
491
491
504
497
488
483
494
512
505
516
509
514
512
551
575
542
527
526
495
502
500
498
495
489
499
502
489
504
488
521
524
542
537
541
537
498
492
492
499
515
495
502
500
564
542
492
438
451
539
594
527
512
495
531
527
543
523
497
484
464
502
511
483
495
502
495
490
513
529
578
542
513
544
547
517
495
500
503
481
506
501
489
504
499
501
527
553
533
503
484
479
496
531
541
528
513
502
521
551
563
544
478
428
443
498
546
559
518
467
473
513
530
583
512
490
499
530
546
548
501
482
461
487
499
516
501
476
502
534
594
540
524
493
447
498
517
550
563
542
510
499
488
483
493
496
481
545
534
513
486
492
525
525
523
515
508
518
539
521
509
489
489
484
466
534
559
563
488
460
465
510
556
576
566
500
476
491
531
491
447
492
603
579
583
492
474
491
489
460
441
466
536
603
530
496
500
543
570
527
540
482
483
478
467
471
500
551
507
487
534
521
487
512
561
563
502
497
506
540
529
502
516
505
475
495
454
480
548
551
523
470
483
521
571
548
503
507
548
534
470
481
484
489
536
487
483
492
579
529
455
473
525
572
548
549
525
485
490
492
497
519
503
553
561
540
513
456
463
470
484
509
498
508
550
553
553
530
526
485
468
489
550
510
470
487
507
531
565
543
513
511
489
494
497
480
510
529
547
571
512
475
477
496
486
509
520
520
492
524
512
528
560
547
504
510
493
479
458
472
544
536
510
519
602
548
546
502
480
439
449
487
542
535
535
491
534
571
494
499
511
532
534
499
527
499
448
476
481
524
518
496
503
539
553
529
513
520
508
512
522
512
467
463
548
590
523
496
479
522
461
466
476
547
606
524
502
548
551
513
438
487
504
479
497
496
512
559
545
530
474
514
530
491
536
547
524
494
461
519
487
545
530
462
513
567
531
531
491
475
493
545
519
473
437
512
569
607
510
472
521
492
512
509
490
482
477
487
561
541
546
499
501
513
500
529
550
529
515
495
487
528
520
500
481
455
514
553
540
497
480
455
455
543
629
652
528
482
452
457
464
548
535
561
504
489
483
465
529
534
516
503
472
497
509
523
501
518
596
587
494
452
486
553
523
518
483
491
493
508
464
464
510
563
579
538
521
481
483
445
517
646
547
508
492
488
492
521
466
489
463
480
482
512
500
527
639
611
573
553
535
489
431
392
467
563
529
498
472
444
470
499
551
551
549
525
521
542
521
510
465
514
535
530
490
492
522
547
550
468
467
450
497
529
544
593
543
541
485
512
504
548
511
431
458
491
476
526
566
544
512
519
500
517
498
499
512
601
532
525
464
423
453
538
585
507
483
447
550
554
487
495
552
564
535
494
469
491
561
553
492
493
557
524
488
513
539
492
388
359
453
537
659
563
500
493
543
595
546
520
515
526
510
487
468
486
469
460
459
397
439
578
746
596
385
404
553
681
581
515
547
527
478
452
463
509
510
465
475
503
518
536
525
499
542
599
546
497
509
421
407
438
520
616
663
551
487
431
423
493
552
529
504
520
539
522
481
430
515
548
599
584
534
495
494
490
489
472
471
543
543
484
448
539
576
568
557
521
475
428
447
531
530
540
517
483
486
498
559
580
571
473
412
449
556
561
501
466
519
533
507
524
480
547
543
561
493
492
514
504
500
443
447
515
557
554
486
473
480
570
615
513
438
473
573
614
521
477
473
501
488
501
498
503
480
496
542
591
527
460
471
510
559
566
528
485
441
445
483
469
569
626
542
511
470
490
493
503
476
487
520
583
543
508
528
535
519
475
509
541
526
526
504
487
496
500
496
494
483
489
476
560
612
541
510
496
489
496
508
516
470
477
549
627
544
499
467
456
482
488
521
523
505
453
462
420
517
606
638
633
515
531
512
499
478
470
476
518
568
534
486
442
457
532
536
533
486
487
523
525
515
536
522
519
513
516
519
511
527
506
497
480
468
480
505
546
504
508
547
508
502
546
555
513
478
467
512
541
512
512
477
497
516
531
584
532
494
535
542
507
358
435
576
616
560
504
528
515
510
509
507
493
479
481
495
513
480
511
454
471
578
653
549
496
472
473
511
537
562
543
502
474
485
481
465
480
500
520
551
537
509
465
443
476
563
626
560
519
525
513
481
476
486
516
520
529
532
503
459
455
504
488
499
538
601
542
521
533
544
534
532
493
479
480
506
501
497
466
467
486
514
560
529
557
513
465
505
559
616
560
463
424
400
516
511
541
561
515
480
460
494
489
569
544
549
556
531
516
503
508
524
528
477
476
499
482
459
438
467
560
592
542
563
514
506
530
551
555
527
510
475
450
433
473
585
557
421
481
530
539
523
534
545
523
510
515
536
505
466
460
508
500
519
527
515
505
525
510
527
517
527
511
511
507
509
519
521
533
507
494
500
520
526
485
477
516
574
545
497
472
454
513
540
538
520
521
520
548
516
474
451
446
528
576
583
510
497
490
495
493
488
518
545
513
499
493
529
541
510
487
491
512
581
556
442
418
464
562
526
567
522
482
524
542
535
526
510
508
505
498
521
536
528
516
488
473
453
499
506
498
498
504
521
540
535
529
518
527
523
508
521
547
520
454
459
499
565
524
466
466
483
526
510
553
552
594
557
503
518
496
489
480
498
527
480
501
492
470
472
494
540
564
517
521
532
539
521
518
539
558
557
480
401
446
472
511
538
520
505
490
499
510
543
551
529
513
510
477
514
543
547
532
515
504
490
471
472
511
543
521
523
525
524
512
512
530
528
525
563
506
471
414
471
516
430
550
593
569
532
502
503
509
508
512
510
504
503
513
523
536
523
498
507
516
510
487
501
495
483
503
526
514
510
514
514
521
525
519
533
522
524
521
511
506
501
496
478
478
494
524
523
515
516
527
535
521
518
512
469
474
507
529
562
558
521
487
477
485
510
520
527
523
507
500
505
504
499
496
540
506
572
543
518
495
494
497
494
483
491
483
449
467
511
571
635
607
550
518
509
506
486
492
498
493
493
492
496
496
499
501
508
511
517
526
523
523
523
520
521
517
526
526
490
483
493
495
474
497
547
512
483
504
552
562
534
523
515
524
517
509
511
496
488
491
504
519
529
531
512
503
498
507
518
516
511
515
519
518
516
516
512
514
507
504
498
495
483
476
501
511
504
535
551
537
511
525
529
513
507
504
501
511
511
515
515
501
500
499
502
503
508
509
517
520
519
520
519
518
519
516
510
497
489
487
504
501
524
531
523
519
523
524
536
517
511
523
514
510
510
512
504
509
506
518
519
503
487
464
495
500
530
558
551
519
512
518
509
508
510
511
509
505
504
506
505
499
499
504
509
507
513
509
516
519
519
522
529
525
518
509
502
496
493
503
513
523
494
491
496
504
522
529
517
524
535
524
522
530
520
504
500
496
498
498
500
508
510
505
505
504
510
515
511
514
514
522
527
534
539
505
516
510
504
510
505
506
515
515
508
503
504
510
515
521
519
524
524
517
517
520
511
506
512
511
503
496
497
507
506
501
510
512
518
524
526
520
498
494
506
515
542
531
519
497
492
485
504
513
513
512
527
511
509
498
504
525
539
537
519
514
521
512
507
502
503
504
499
500
499
500
504
511
516
528
529
527
521
519
513
512
513
508
509
509
505
495
497
499
505
510
519
516
517
523
522
527
524
512
508
500
507
517
515
512
515
514
505
499
499
503
508
508
512
512
517
524
526
522
517
512
513
515
497
500
497
497
498
505
509
506
512
516
523
521
519
520
523
519
529
520
513
512
508
507
500
496
504
503
504
509
511
512
513
520
518
519
519
516
518
519
515
511
510
504
505
498
497
504
507
501
510
511
518
519
519
521
521
520
519
515
513
510
509
509
507
502
504
504
504
506
509
511
514
518
523
525
524
521
521
516
514
511
508
506
505
498
499
499
504
505
511
512
517
524
521
525
524
519
522
516
515
512
509
504
504
498
499
501
502
506
510
511
515
518
520
520
520
518
516
517
513
508
503
505
505
502
502
502
506
502
508
512
514
519
519
523
521
519
519
515
516
511
507
501
501
500
502
506
508
505
507
508
511
517
521
524
522
523
523
518
517
514
510
506
508
507
510
512
505
505
507
508
515
523
520
523
522
518
518
515
514
509
508
507
502
503
499
504
507
507
510
512
515
518
519
523
520
521
519
518
516
514
509
508
508
505
501
505
508
509
511
513
518
523
520
525
522
520
515
515
514
511
510
507
506
504
504
507
511
510
511
512
514
518
519
519
519
519
517
512
510
506
503
499
500
494
498
499
503
503
508
510
512
515
517
520
520
515
515
515
512
507
505
505
502
501
503
505
508
505
513
514
515
521
522
525
525
519
519
518
518
511
510
508
503
504
503
504
504
505
510
512
516
518
518
523
520
513
519
514
513
510
510
510
507
505
504
505
508
509
508
514
516
521
523
523
522
520
519
518
513
509
508
506
504
502
503
504
505
508
512
514
516
518
520
523
519
521
519
518
516
511
509
507
507
503
504
504
505
510
512
511
515
522
519
521
523
521
520
517
515
511
507
504
504
504
503
507
501
503
511
512
510
517
517
517
521
516
516
513
511
507
507
505
504
502
501
504
508
507
509
513
516
518
519
520
522
521
519
515
512
508
508
505
505
504
503
502
506
508
512
513
515
521
520
522
521
520
517
515
513
510
507
504
504
500
501
503
506
505
509
513
519
519
516
518
515
516
518
518
516
511
507
509
508
504
507
504
505
507
513
516
518
516
521
524
523
519
518
517
513
510
510
508
505
504
504
505
507
511
510
509
518
524
524
523
519
520
519
513
510
507
504
503
502
501
503
502
504
510
509
511
516
521
521
524
524
515
512
512
514
511
508
508
503
499
504
504
504
504
508
511
513
519
519
519
520
519
520
517
515
512
509
506
504
502
504
505
507
505
504
509
514
518
522
527
523
519
519
516
512
510
510
509
507
503
503
507
506
508
514
515
513
515
519
522
518
515
515
513
514
510
507
507
505
502
503
503
503
505
508
512
518
521
522
524
523
522
517
514
515
512
510
507
503
500
498
500
505
506
512
514
516
517
518
522
519
519
516
513
513
509
508
503
504
502
502
501
505
501
508
513
515
519
519
520
519
517
515
512
512
509
509
504
500
499
500
504
502
501
507
510
514
519
522
523
525
517
516
518
516
511
509
508
507
504
504
505
507
506
508
514
515
518
521
524
523
519
517
517
513
510
507
510
512
508
506
506
508
504
505
505
512
515
518
519
519
519
518
520
516
509
510
509
506
504
505
505
508
511
511
512
515
521
521
524
526
523
515
514
516
514
509
506
504
502
500
504
507
505
509
511
514
518
521
520
519
515
520
515
512
508
506
504
503
501
502
503
508
508
509
513
515
519
519
519
521
520
520
515
515
507
506
506
504
505
501
502
504
509
512
512
517
519
521
519
520
520
521
512
511
511
508
505
502
503
502
504
510
507
510
510
516
519
521
521
517
513
516
514
515
509
508
503
504
504
503
508
510
511
515
512
512
518
518
520
519
520
518
515
512
513
506
503
505
503
504
504
508
507
512
516
515
519
518
522
518
516
515
513
513
512
508
507
507
502
504
505
508
505
507
510
515
519
519
523
520
516
519
516
515
512
510
499
503
502
503
507
499
502
508
511
515
517
519
521
522
517
515
514
516
511
510
506
506
504
502
506
507
507
514
511
517
521
521
525
523
520
520
516
515
509
507
504
504
502
500
502
504
509
511
515
518
521
519
522
521
520
518
517
512
510
507
505
505
501
503
504
506
505
509
515
516
518
518
521
520
517
518
514
512
510
508
505
502
500
501
502
505
508
513
515
516
517
518
521
521
520
518
517
513
508
506
505
504
503
505
508
508
511
512
506
512
518
515
519
520
519
519
515
517
513
508
509
504
504
503
507
505
508
511
512
518
519
518
520
521
520
517
517
515
511
508
506
505
500
503
504
504
507
510
510
513
518
519
523
520
516
515
509
511
509
505
504
503
501
501
502
505
507
510
515
517
521
524
526
524
523
519
517
515
510
511
504
504
503
502
502
505
506
510
512
517
522
520
525
523
523
521
514
517
510
507
504
504
497
500
504
505
506
510
512
514
518
518
521
521
520
519
517
515
510
505
503
501
497
499
501
506
506
510
512
514
517
519
521
521
519
515
516
518
512
509
502
505
503
506
504
507
506
508
514
518
520
521
522
521
515
516
513
512
506
504
502
504
501
498
503
505
504
512
513
516
518
519
522
520
519
518
515
515
510
509
507
506
505
503
506
507
506
509
514
517
520
519
523
523
518
518
515
514
511
507
506
504
502
502
507
505
504
510
512
516
517
519
528
526
522
519
517
513
506
503
504
502
500
501
505
504
504
508
514
511
519
520
524
521
520
521
518
521
510
504
507
504
498
502
502
501
504
508
513
516
519
518
521
519
521
519
513
511
510
508
505
504
501
500
503
507
508
510
513
515
519
521
521
520
518
518
517
513
508
507
506
507
503
502
505
505
507
509
511
516
519
523
523
522
523
519
516
515
513
508
508
508
504
503
504
508
505
508
514
515
516
516
521
523
519
520
517
516
512
511
507
502
503
498
499
504
503
509
512
517
522
524
526
524
521
522
516
511
507
505
504
503
500
503
503
504
505
508
512
514
520
521
524
522
518
519
517
508
506
504
504
502
500
504
505
505
504
511
514
516
520
519
523
524
520
516
516
513
510
506
505
505
499
501
504
508
507
513
514
515
520
521
519
521
522
520
517
514
512
508
507
506
500
499
501
505
504
510
515
519
523
523
519
522
524
519
517
515
515
504
503
507
502
504
501
501
501
507
513
514
519
519
525
523
520
522
518
515
509
506
506
502
500
503
502
503
505
508
513
518
521
519
522
522
519
521
517
514
510
508
509
502
498
502
505
504
510
508
508
511
516
515
519
522
522
521
519
517
513
508
503
505
499
499
502
508
504
509
509
518
521
521
523
522
514
518
514
515
515
506
503
505
504
501
501
502
505
510
516
519
519
520
524
524
519
519
518
514
505
502
503
502
498
501
506
506
508
509
510
515
519
516
521
524
522
522
517
513
512
508
505
504
505
502
498
504
505
512
508
514
518
521
523
525
522
518
518
511
506
504
506
504
503
501
504
508
506
508
515
518
520
523
519
523
521
519
514
514
511
507
506
504
503
505
503
502
503
506
511
513
515
516
519
524
522
521
518
515
514
510
507
505
503
499
502
505
507
508
514
518
519
521
521
522
519
518
519
518
516
511
505
504
502
502
501
505
503
504
510
515
521
521
523
522
517
515
513
513
511
508
505
502
500
502
504
507
507
508
512
517
519
521
522
525
523
518
516
516
511
508
505
505
500
496
502
502
503
510
514
515
519
520
524
524
520
520
515
517
512
511
507
503
504
502
504
508
504
510
510
513
521
521
522
521
519
519
515
516
509
508
507
508
502
500
502
505
506
509
513
516
520
524
523
525
518
521
519
516
511
507
504
501
498
500
504
507
508
507
512
513
521
521
524
525
523
522
513
512
508
506
504
503
497
497
502
505
503
509
513
511
520
521
528
525
522
521
518
514
513
511
510
505
504
500
501
501
499
504
509
515
521
521
525
525
520
518
517
518
511
509
505
501
499
497
502
505
507
509
513
514
521
520
521
519
520
518
515
514
511
510
508
503
503
500
502
504
507
506
511
514
518
519
523
524
522
522
517
515
512
508
506
504
503
502
504
503
505
510
513
521
521
522
525
525
521
518
515
513
510
509
502
502
502
501
503
504
505
508
510
513
520
519
520
524
523
519
516
513
510
513
506
501
497
497
501
505
504
505
510
518
522
524
519
519
518
518
521
518
514
511
507
504
501
500
506
507
507
509
515
518
520
520
524
523
524
521
519
517
513
509
505
504
500
499
503
504
504
508
510
514
518
519
522
522
521
519
515
514
511
508
505
505
499
499
502
506
507
508
512
516
519
519
523
526
517
519
517
515
508
509
508
502
500
499
503
508
504
504
508
510
521
521
523
526
522
523
519
516
511
508
504
503
498
501
500
502
504
509
513
516
518
521
521
522
519
518
518
514
510
507
507
505
504
501
500
503
505
508
513
514
517
518
524
520
520
520
518
517
514
507
506
503
504
500
502
505
507
507
508
511
519
518
525
523
520
519
518
511
508
508
508
502
504
502
502
507
506
510
513
515
517
523
523
521
518
518
515
515
508
508
502
507
503
499
499
505
507
508
513
519
521
523
518
520
520
514
513
513
510
507
504
504
503
501
503
506
506
508
512
514
519
521
521
520
519
517
517
514
511
505
506
505
501
500
503
505
505
508
511
515
519
526
525
524
520
519
518
514
509
509
504
504
501
500
501
503
504
509
515
519
522
519
522
528
524
516
516
514
511
506
505
501
498
499
503
505
507
508
514
515
522
516
521
522
521
521
516
515
511
510
508
504
503
501
500
506
506
506
512
516
523
522
524
522
520
518
516
514
510
510
506
503
503
502
498
503
504
509
511
515
520
522
523
523
521
519
516
514
510
509
507
504
502
499
503
505
507
512
513
519
526
522
525
524
521
522
517
519
511
508
505
501
494
496
496
500
504
507
508
513
516
519
521
523
519
519
520
522
510
508
506
506
502
500
500
506
507
512
513
518
522
523
521
524
522
519
516
511
511
508
502
500
498
499
500
505
508
511
511
514
519
519
521
520
522
519
518
515
511
508
505
505
501
500
500
506
505
511
509
514
520
519
520
524
522
519
515
514
511
509
506
503
501
502
502
506
504
507
512
514
519
521
525
525
524
522
517
515
508
509
507
504
501
500
502
504
505
511
514
519
516
518
522
524
519
517
514
512
511
508
505
500
503
503
501
503
508
510
510
515
519
520
523
523
524
521
518
516
512
508
505
503
499
498
499
501
503
507
511
516
521
521
524
524
522
521
519
518
513
511
508
507
501
498
499
504
500
507
510
512
519
519
521
522
521
520
519
515
510
513
508
506
499
498
501
503
503
508
508
512
519
519
522
522
520
521
518
514
508
508
505
503
503
499
499
503
505
510
516
515
520
523
529
527
522
520
519
515
508
506
505
504
500
499
499
504
505
505
509
515
521
519
520
523
519
519
516
515
512
506
504
503
501
500
503
505
506
510
516
519
522
522
521
522
518
519
518
515
515
510
508
507
503
500
502
505
505
509
515
514
520
523
525
524
524
521
517
516
512
513
507
504
504
502
503
502
504
508
511
515
517
519
522
523
519
517
518
516
511
507
505
502
504
501
503
505
504
507
512
516
520
520
521
522
521
519
513
510
506
504
502
503
503
496
496
503
506
508
512
518
519
520
523
527
523
521
518
516
512
510
509
508
505
502
501
500
506
509
513
518
521
523
521
522
521
518
516
513
511
507
504
505
502
502
504
505
505
509
514
515
521
524
523
523
519
519
515
515
511
504
505
500
498
500
501
503
503
506
508
513
518
519
520
524
522
519
517
513
510
506
505
504
503
499
500
506
504
509
514
517
517
520
524
525
523
521
519
520
508
504
508
503
502
504
503
507
507
507
509
512
514
518
524
524
522
519
518
517
513
509
506
502
499
500
503
504
506
509
511
515
519
520
522
524
522
521
517
516
513
509
504
505
501
499
500
505
505
511
512
515
520
521
525
525
522
521
518
517
511
509
508
501
503
500
502
507
504
508
511
515
519
520
524
527
526
522
519
519
516
503
497
498
499
496
499
503
504
508
509
513
516
518
518
520
518
518
512
512
511
510
510
503
501
502
501
504
505
505
508
514
520
522
523
521
520
520
519
518
514
512
508
502
498
498
501
507
508
509
510
512
519
521
524
528
522
517
519
518
511
508
506
504
501
503
503
506
508
508
511
515
519
521
522
524
524
523
519
518
512
510
508
503
503
500
502
503
503
506
510
514
517
516
521
515
515
518
516
513
509
508
504
503
502
501
504
504
505
508
511
516
519
521
524
527
524
524
519
516
513
509
510
507
502
498
504
508
504
508
511
514
516
518
518
519
520
520
519
516
512
506
502
503
500
501
500
505
503
508
513
516
521
521
522
524
523
519
520
517
511
508
503
504
504
499
500
504
505
506
508
514
516
520
522
523
519
519
516
513
511
511
509
506
508
500
499
506
507
510
513
515
519
521
521
524
522
524
521
517
513
507
505
503
504
502
502
504
509
508
511
515
518
520
521
520
519
519
517
515
511
504
503
501
504
499
499
503
499
506
511
515
519
521
523
523
519
519
518
516
511
510
507
504
501
498
500
504
505
507
510
515
519
520
519
523
526
522
517
516
510
508
503
506
507
501
504
505
505
508
512
516
521
521
521
520
520
518
517
515
512
514
505
499
499
500
502
504
507
508
512
513
518
520
525
526
519
516
518
515
510
510
508
503
502
502
503
504
505
506
508
511
515
516
519
519
519
518
515
513
510
509
507
504
503
501
504
503
506
507
509
514
517
516
522
524
523
524
518
517
515
510
507
504
504
500
504
510
507
507
511
515
523
523
524
524
520
519
517
515
511
507
506
500
501
502
501
504
508
512
508
515
518
517
520
526
524
525
520
518
512
508
505
502
500
503
503
507
509
506
509
513
519
518
519
522
519
516
515
516
510
508
505
502
503
499
501
504
504
506
510
514
517
518
522
524
520
515
515
511
510
506
504
500
502
502
503
507
507
509
510
513
521
521
524
524
526
521
519
518
512
510
508
505
505
504
505
499
504
508
511
515
519
519
518
522
522
518
515
514
511
508
506
505
505
505
503
507
506
508
510
516
517
518
518
520
519
521
517
516
512
508
504
500
502
502
502
503
505
509
515
512
516
521
522
521
520
519
516
512
511
512
507
506
506
504
504
505
507
511
513
513
518
519
519
520
520
520
519
514
510
508
507
505
507
502
499
500
505
510
511
516
519
519
522
522
521
520
520
518
511
506
504
499
501
498
499
504
506
510
510
513
519
520
520
522
522
520
518
514
512
508
506
507
504
503
505
505
507
506
511
516
518
518
521
525
523
520
515
514
511
510
506
505
503
500
501
506
507
511
512
519
526
520
514
521
522
522
516
515
510
505
504
504
502
502
504
505
507
510
513
515
520
523
523
522
520
516
513
512
511
509
506
506
505
500
503
503
501
504
506
513
513
518
518
518
514
516
514
513
510
505
505
505
507
504
504
505
506
508
513
519
517
519
520
524
522
521
517
515
510
506
506
505
502
502
502
505
510
512
514
515
519
521
519
518
519
519
519
520
512
511
510
504
506
502
500
505
510
509
513
516
524
517
522
524
523
522
523
521
513
509
507
505
505
504
502
504
504
510
512
513
519
518
518
519
517
517
513
512
511
507
502
503
499
498
501
503
504
509
514
513
516
518
517
517
517
519
516
515
510
508
504
505
507
504
505
506
507
511
511
514
523
521
517
519
519
518
518
516
512
508
508
504
507
503
507
509
507
510
512
514
518
519
518
522
518
516
519
514
509
505
502
504
505
503
503
505
505
507
511
513
518
516
520
523
524
519
516
518
510
512
506
503
505
500
503
508
508
511
512
516
518
519
520
521
521
520
518
514
513
509
505
503
503
501
504
503
505
507
507
510
514
514
515
519
516
515
513
515
511
509
508
505
505
503
505
506
509
509
511
515
519
523
521
522
519
518
518
513
512
510
506
505
504
504
504
505
508
510
511
514
520
521
520
521
519
517
517
515
509
508
507
505
505
503
502
506
508
515
512
513
516
518
521
524
523
521
516
516
512
511
508
507
505
502
501
505
506
507
509
513
516
516
523
523
518
516
519
514
509
504
504
503
500
499
502
503
505
506
508
509
515
518
519
522
521
520
519
518
514
512
507
507
506
501
502
507
504
510
512
513
519
518
519
522
518
516
515
515
512
508
507
504
503
498
502
503
506
506
508
510
516
518
519
519
520
519
518
517
515
515
510
507
505
504
505
508
508
510
514
516
516
519
520
520
522
517
515
519
510
506
507
503
502
500
501
505
505
508
510
511
513
518
521
521
520
521
519
516
515
513
508
505
505
500
502
504
506
510
511
515
516
515
519
521
520
519
517
520
510
507
507
504
505
501
501
506
505
508
508
513
516
519
521
520
524
521
518
519
512
511
505
504
505
504
504
505
508
512
512
517
517
520
523
524
520
519
517
516
510
508
504
504
504
503
504
505
503
507
512
519
522
523
519
520
518
516
516
514
512
508
505
506
503
498
501
504
505
507
508
512
517
523
523
528
527
524
518
514
511
507
505
505
504
504
500
505
505
510
511
513
516
516
518
519
519
518
517
514
511
509
506
503
504
501
502
503
507
509
512
515
519
520
521
521
521
520
516
519
515
510
504
506
504
502
502
504
502
505
511
514
521
519
517
519
522
517
517
514
510
507
505
503
504
499
502
509
511
510
509
513
517
519
519
521
526
521
517
513
512
511
510
505
507
497
498
502
503
508
510
514
520
518
521
523
521
517
519
513
511
510
507
504
505
500
500
505
504
507
510
514
519
519
519
525
523
518
516
519
515
512
509
505
506
500
507
507
505
505
511
515
518
524
522
526
521
519
520
517
510
508
506
507
506
502
500
504
502
505
508
512
516
519
523
523
520
519
521
511
510
508
505
504
502
498
499
505
503
504
510
513
519
522
521
523
519
521
518
518
513
507
504
504
499
497
500
503
503
506
508
515
519
521
522
523
521
519
516
517
511
511
507
507
504
501
502
507
506
508
510
515
521
518
519
523
520
519
516
518
513
509
510
503
503
504
504
504
503
507
509
512
515
517
519
522
521
520
518
516
512
507
507
505
502
501
501
503
506
511
513
516
520
523
523
526
523
521
515
514
511
506
506
504
504
499
501
504
505
507
511
514
515
519
519
522
517
518
513
514
510
507
505
504
504
504
507
505
501
507
510
513
518
522
520
523
519
521
518
519
514
511
511
507
505
500
502
505
504
508
512
513
518
520
519
520
517
519
517
515
514
510
510
505
505
502
503
506
507
509
513
514
518
520
523
523
517
517
513
513
508
507
508
508
504
499
502
500
503
508
511
514
519
518
519
519
517
520
515
515
512
512
510
504
505
502
503
505
507
510
512
516
518
523
524
525
522
521
519
519
513
511
507
505
509
503
499
504
507
509
510
513
517
519
520
522
519
519
519
515
515
513
507
505
506
502
504
505
507
509
510
509
515
519
519
520
521
519
515
516
512
510
508
505
506
503
504
502
501
504
508
511
514
519
519
519
520
520
518
516
512
510
507
504
501
497
499
501
506
505
510
512
518
519
520
524
521
521
518
516
515
512
509
508
506
502
506
509
503
505
507
514
519
521
520
523
522
517
516
514
510
506
506
503
506
502
501
506
510
508
509
515
520
524
523
520
523
521
515
515
513
508
506
504
504
499
502
506
506
510
510
512
513
519
519
519
516
518
512
514
511
505
507
504
503
501
498
504
505
506
509
513
518
521
522
524
521
525
520
520
515
514
511
508
506
503
505
505
505
506
510
515
517
519
519
523
521
522
515
514
513
510
506
507
505
505
500
505
505
505
510
512
517
520
520
523
521
518
518
515
511
507
506
504
503
499
504
506
507
502
504
510
509
511
512
515
515
518
517
515
511
509
511
503
504
501
499
503
504
510
513
518
516
519
519
522
523
519
518
519
514
512
511
508
505
503
506
509
510
511
511
515
518
520
521
523
519
517
516
514
513
508
510
507
507
503
504
509
507
506
511
516
519
518
520
521
519
518
516
514
513
510
507
505
503
502
503
506
505
507
507
512
513
516
518
520
521
519
518
519
514
509
509
508
507
498
501
505
507
508
512
512
514
518
517
521
522
521
516
515
511
508
504
504
505
500
503
504
506
505
509
511
515
519
519
520
521
519
518
517
512
511
507
505
506
503
502
506
505
508
508
515
516
520
520
520
522
517
514
515
514
510
511
508
506
508
503
505
507
506
510
513
513
519
520
523
522
520
518
517
512
508
510
505
502
505
499
501
503
506
511
514
517
520
518
519
520
520
514
516
513
508
507
504
506
498
502
504
504
509
513
515
516
515
519
526
520
515
514
516
514
511
507
507
507
503
504
505
508
508
510
512
514
519
519
518
519
519
516
514
509
508
505
501
505
503
504
504
507
507
513
516
519
521
518
523
521
521
517
516
511
508
505
508
506
503
503
503
505
506
507
512
513
519
515
521
519
521
520
517
508
509
509
507
505
503
505
507
507
508
512
514
515
519
520
521
519
523
518
513
511
508
504
500
500
502
503
504
506
508
510
513
518
519
521
524
522
523
518
518
515
511
509
508
505
501
503
503
502
506
511
512
517
519
521
522
519
521
519
516
515
512
509
507
506
500
498
501
501
504
507
512
515
518
518
518
519
519
518
515
514
512
508
504
505
501
503
503
502
505
510
514
518
520
521
524
523
519
518
516
513
512
510
507
505
502
504
505
505
508
510
513
517
520
520
523
521
521
523
515
510
509
506
505
503
496
500
504
506
509
510
514
517
518
522
520
517
519
515
516
512
511
510
506
506
503
505
506
505
509
512
515
517
520
519
521
522
518
516
517
511
509
508
503
504
503
500
504
503
508
507
514
519
519
520
521
521
519
512
514
508
508
507
508
507
503
499
504
504
506
510
513
515
517
518
522
521
519
517
519
516
513
509
509
506
504
505
505
503
504
508
514
515
516
517
518
521
519
519
521
511
510
509
509
502
502
505
508
505
510
509
515
515
520
519
522
519
517
515
515
513
510
509
504
504
500
500
503
505
507
508
512
514
517
516
520
519
518
515
514
511
507
504
503
502
502
503
507
508
510
512
518
521
521
519
521
522
520
513
513
513
510
511
508
506
502
503
506
508
509
508
511
515
520
517
519
523
520
516
517
515
515
508
503
504
502
505
507
508
507
509
514
517
517
520
521
523
518
515
515
510
510
507
506
505
502
504
507
507
507
508
512
513
515
516
521
521
518
516
515
511
510
507
505
504
503
500
504
505
506
508
511
518
520
522
522
522
521
519
518
515
511
511
505
507
505
504
508
508
509
515
519
520
521
525
525
524
524
521
517
512
506
505
503
497
495
498
501
503
507
509
508
515
517
519
523
521
520
516
514
512
512
508
504
505
498
501
503
508
504
509
513
515
516
518
517
519
515
512
511
509
507
503
501
501
499
498
503
503
506
508
512
517
518
519
516
520
519
518
519
517
514
511
509
509
507
505
507
508
509
510
515
520
523
524
521
522
523
520
516
512
510
510
508
507
503
503
507
505
509
512
516
518
518
519
522
520
518
516
516
512
511
508
505
504
502
501
504
503
505
508
511
515
519
518
521
520
519
515
515
511
510
507
506
504
502
501
504
504
507
507
511
518
519
520
523
521
519
519
518
515
514
510
505
505
502
502
505
504
505
508
509
510
518
516
520
521
519
517
516
515
510
510
504
505
503
504
505
504
506
509
512
516
516
517
519
519
518
515
514
514
510
508
507
507
505
504
504
506
506
507
512
516
518
521
520
522
520
516
518
514
511
508
507
506
504
505
508
508
505
510
511
514
518
518
520
519
516
516
518
511
509
507
504
500
500
502
504
505
505
510
512
518
521
523
524
521
520
519
516
511
511
512
506
507
502
502
504
508
510
514
516
521
522
520
521
521
523
520
518
514
511
509
508
504
505
506
510
508
510
512
515
515
521
526
525
520
521
520
518
515
512
511
506
503
503
502
504
503
504
506
508
517
511
513
519
523
520
516
513
511
511
502
503
502
505
505
507
506
507
510
513
514
519
518
519
519
515
511
511
506
505
502
502
499
497
497
503
503
509
508
514
515
515
515
516
519
522
519
517
517
509
508
505
505
504
502
505
507
509
511
512
517
516
519
523
519
517
518
519
513
511
508
504
504
503
503
505
505
506
510
514
515
518
519
519
520
518
521
516
517
511
507
506
505
503
504
504
505
505
511
512
515
517
517
517
521
519
518
516
515
512
509
508
507
504
504
505
505
509
510
516
518
518
519
520
523
519
515
515
513
511
509
504
505
504
503
503
505
505
508
514
517
519
524
520
519
521
518
519
515
512
513
508
505
505
502
503
505
507
507
509
512
516
516
519
519
517
516
516
515
511
507
508
508
505
504
506
507
507
509
512
518
516
518
519
520
519
517
515
512
511
504
502
503
502
504
504
504
507
508
513
515
519
520
523
522
521
517
513
515
511
511
508
505
504
502
503
507
509
506
515
513
518
520
522
521
519
515
513
510
506
506
505
505
503
501
504
504
507
508
514
517
515
519
519
521
520
519
515
512
513
508
504
504
503
501
507
508
506
510
513
516
517
519
520
519
520
517
516
512
511
508
505
504
504
504
505
506
508
508
512
514
516
519
520
522
523
521
515
512
512
509
506
503
502
501
502
505
508
509
515
516
517
519
521
520
519
518
515
515
511
509
506
504
505
504
504
504
507
513
513
518
519
519
522
523
523
519
516
512
512
508
506
504
503
502
504
503
507
508
511
517
520
522
521
524
524
520
516
515
512
510
505
505
502
504
505
509
510
509
510
512
518
516
521
521
517
518
515
513
512
509
506
507
504
503
504
506
503
506
510
513
515
517
519
521
518
519
515
515
511
511
507
506
504
503
506
505
507
508
512
518
517
519
521
521
518
516
513
510
510
508
507
504
503
500
502
502
507
508
512
513
516
519
519
519
518
518
516
512
508
507
505
504
503
503
505
506
508
513
516
518
519
521
519
519
519
519
516
513
511
508
507
508
505
506
505
507
506
510
513
517
519
519
522
521
519
515
516
512
512
508
504
504
502
501
502
501
504
507
509
513
518
521
520
522
519
515
516
514
509
508
506
505
503
501
503
507
506
505
513
517
518
519
521
521
520
518
517
515
511
508
504
502
502
501
504
502
506
507
513
513
516
519
519
519
519
520
522
516
513
509
507
506
503
505
508
507
510
512
511
516
517
519
518
520
521
519
518
517
512
507
503
506
503
501
502
502
504
507
512
515
518
522
519
522
519
518
516
515
510
508
506
504
503
504
504
504
505
508
510
511
515
517
515
516
518
518
516
514
512
509
508
506
500
501
505
505
509
511
514
517
517
522
523
523
521
516
516
515
512
509
506
504
505
503
506
504
505
510
512
515
515
518
521
523
519
519
516
520
511
507
508
505
499
499
502
503
508
512
516
519
520
520
521
523
519
515
515
513
510
509
505
504
501
502
504
504
504
507
513
514
518
517
519
523
520
518
516
514
509
510
508
503
502
501
504
507
508
509
511
515
514
518
521
520
519
518
517
513
515
510
509
508
505
502
504
505
508
509
513
518
519
519
522
523
521
516
516
515
511
507
505
500
502
504
504
503
509
513
515
517
517
520
526
526
522
517
519
515
514
508
504
504
504
503
505
507
511
508
512
519
520
521
523
526
524
521
519
512
510
511
508
505
504
504
504
504
506
508
512
515
518
521
521
520
521
517
518
511
512
510
508
505
503
502
504
506
506
509
510
512
515
518
519
519
516
517
513
511
510
507
505
501
499
499
504
504
507
504
513
515
518
522
521
524
521
520
517
515
509
506
505
504
504
499
503
501
504
507
513
513
515
517
519
522
522
518
517
512
511
508
507
504
502
503
503
506
505
509
514
516
520
520
522
521
519
518
518
515
512
511
508
508
505
504
502
504
507
507
512
517
516
520
520
519
520
516
514
512
511
509
505
507
503
499
500
503
507
510
511
516
519
520
524
522
520
519
520
518
513
511
506
506
506
503
503
505
505
507
512
513
518
521
519
522
518
518
513
515
513
509
506
505
501
503
504
504
507
509
514
515
520
523
519
521
520
516
519
515
513
509
508
504
505
500
502
504
505
507
511
514
519
517
520
520
520
518
517
515
513
505
503
504
504
502
502
503
504
508
515
515
519
522
520
521
522
519
519
514
514
511
505
505
504
502
505
507
508
508
512
514
518
518
518
519
518
516
512
509
510
507
504
504
504
501
503
505
508
508
510
514
517
518
521
521
519
519
519
515
512
510
508
505
501
502
504
505
507
506
511
512
515
515
516
518
517
515
515
515
511
508
506
502
499
499
501
505
506
508
513
515
520
521
523
525
524
520
518
519
514
513
508
506
504
503
503
502
504
504
512
518
518
520
520
522
519
517
517
515
511
508
506
504
504
503
504
507
509
511
512
514
518
521
521
524
522
519
519
515
513
510
510
506
502
505
506
505
510
510
516
518
518
521
521
520
520
517
517
510
509
507
504
503
501
500
499
503
502
505
509
514
518
523
522
525
521
521
519
515
513
509
508
508
505
502
502
508
511
512
512
516
517
520
522
522
519
515
513
509
508
504
501
499
499
499
501
504
505
504
508
511
516
518
520
524
523
520
519
513
513
512
510
507
506
503
505
504
505
508
508
515
518
518
519
521
521
519
518
516
512
508
506
505
503
498
501
504
504
510
512
514
517
521
518
519
521
521
521
517
513
512
510
506
506
503
505
506
508
509
513
513
515
519
520
521
521
515
518
515
510
509
505
502
500
499
502
503
507
508
511
514
518
519
521
521
523
522
518
519
518
513
509
508
507
504
504
506
506
507
510
514
516
519
519
521
521
516
515
513
511
509
504
504
505
505
503
504
505
507
511
514
516
519
518
520
522
519
520
515
512
510
508
507
504
500
503
506
507
509
511
515
517
522
521
525
521
518
518
513
509
505
503
503
504
501
502
503
505
504
507
512
516
517
516
520
521
518
514
513
510
508
504
505
502
501
504
505
508
510
515
516
518
519
520
524
527
521
520
515
512
509
507
504
502
500
503
504
504
505
509
512
516
521
520
521
520
515
518
515
511
505
505
503
504
501
504
503
508
506
511
515
519
521
521
524
522
520
521
520
515
511
509
506
504
502
504
507
505
507
509
513
517
520
520
523
519
518
518
516
511
510
508
507
505
502
502
505
507
507
513
516
519
520
521
523
523
519
517
512
509
506
504
503
502
500
503
504
507
508
511
516
519
519
521
521
519
518
517
513
512
510
508
504
504
501
502
504
505
508
509
511
516
518
519
523
522
520
519
517
514
508
507
503
503
501
502
506
504
509
510
515
518
522
521
525
526
521
520
514
511
508
506
503
502
500
500
502
504
505
511
515
515
521
521
522
521
519
518
515
512
510
508
508
507
502
504
507
509
510
512
515
517
521
519
520
521
519
518
515
515
509
506
501
502
500
502
506
504
509
510
513
517
518
520
521
522
520
517
515
515
508
506
507
503
502
502
503
506
510
511
517
518
518
519
523
521
519
516
516
514
507
506
504
504
500
501
504
506
508
510
513
520
522
522
524
523
520
518
513
511
510
508
507
505
502
504
505
510
508
510
515
515
518
521
519
519
515
514
511
510
507
504
503
500
500
501
505
505
507
513
515
517
520
524
522
523
523
518
512
511
508
506
505
503
503
502
504
506
507
513
513
515
516
520
520
522
519
519
516
511
508
504
502
501
501
501
504
507
509
513
517
517
523
521
524
524
518
516
516
515
510
509
504
506
504
506
507
507
509
513
514
518
520
519
523
523
517
517
516
514
511
507
504
500
500
504
503
504
508
512
515
517
516
519
520
521
520
518
515
512
509
509
506
506
501
502
503
505
508
510
514
517
520
519
522
523
519
518
513
513
508
504
508
502
502
501
503
507
507
511
513
515
520
516
520
519
517
516
513
514
507
505
501
502
500
504
503
508
508
512
515
516
519
518
522
520
519
516
516
512
511
509
507
504
501
503
505
507
504
512
515
519
519
523
526
524
519
516
515
510
507
506
504
502
502
502
504
503
505
510
513
518
521
520
525
522
519
518
516
512
508
507
503
503
499
500
504
505
504
508
512
517
519
518
520
522
519
517
514
512
511
508
504
503
499
503
504
507
510
511
516
516
521
519
522
520
519
517
514
513
509
508
505
503
503
508
507
508
511
515
516
523
522
520
521
518
515
515
514
510
507
507
504
504
498
500
502
507
509
511
515
516
521
520
523
522
520
521
518
513
511
508
504
504
502
506
508
506
507
512
513
517
519
520
521
522
520
518
516
513
508
503
502
501
500
503
502
505
507
511
514
515
515
519
521
521
520
520
516
515
510
508
507
507
503
504
504
503
507
509
514
515
519
519
522
520
519
518
513
510
507
504
501
504
504
501
502
503
507
513
513
519
519
519
520
521
519
514
511
511
511
507
504
506
505
505
509
509
510
513
514
520
522
521
524
522
517
516
514
511
509
510
504
500
498
502
502
506
507
510
514
516
519
519
523
521
517
519
515
515
512
508
506
505
504
502
505
507
506
507
512
514
516
519
522
521
519
516
514
511
511
508
507
504
500
503
503
504
508
511
513
516
519
521
521
521
518
516
513
512
509
505
507
504
503
503
506
509
510
511
515
519
521
520
523
522
517
519
515
511
506
505
505
502
502
504
505
504
508
508
514
516
519
520
524
521
519
518
517
515
509
509
505
504
501
505
506
508
509
512
514
517
519
520
524
525
518
515
514
512
509
507
504
504
500
502
505
506
508
511
513
515
517
518
521
520
519
516
514
512
507
505
503
502
502
503
504
507
506
514
512
517
520
519
522
521
519
517
515
514
505
503
503
503
502
503
503
504
505
511
514
516
515
521
521
520
520
518
513
510
511
508
504
504
501
505
508
507
506
511
516
519
522
523
524
521
517
518
516
515
510
508
504
503
502
505
504
504
505
509
513
515
518
517
521
521
521
517
516
515
510
507
507
506
505
504
504
506
508
509
514
517
518
521
524
522
518
516
516
511
507
507
504
505
504
503
504
505
505
510
512
512
522
523
525
522
520
517
515
513
510
508
508
504
503
504
505
506
509
511
514
516
516
519
523
521
522
517
514
513
509
511
505
505
504
505
504
504
505
509
511
515
519
520
521
522
519
516
514
512
508
506
504
504
504
502
502
505
510
512
513
513
517
519
521
523
521
520
520
515
511
508
506
504
500
497
499
505
508
511
515
515
519
517
519
521
518
518
515
515
510
508
504
503
498
502
502
505
509
512
515
520
519
523
522
521
519
516
511
512
511
508
505
503
502
503
504
505
504
512
515
515
518
520
523
522
517
515
513
513
509
505
505
504
503
502
504
503
506
510
513
517
518
519
522
526
523
521
517
514
511
510
506
505
502
503
504
507
507
512
514
517
518
519
520
523
520
519
515
513
510
510
509
506
503
502
504
504
505
512
516
516
520
521
523
525
519
517
516
514
509
507
504
504
502
500
504
507
507
511
515
516
519
519
523
522
521
519
517
513
509
505
504
504
502
503
505
502
503
506
514
515
516
516
519
520
517
515
515
512
510
509
507
508
503
506
504
505
508
509
513
516
520
522
523
521
517
518
516
512
508
508
505
502
500
501
504
509
507
513
511
518
519
520
520
522
519
516
516
512
511
511
506
506
503
507
505
507
505
509
513
515
517
519
525
522
518
518
513
512
508
504
502
500
501
500
501
503
507
508
515
513
518
520
524
524
519
517
517
515
510
508
506
503
504
502
501
506
505
510
515
517
521
519
522
524
521
520
515
515
509
509
507
504
503
503
504
508
507
511
514
515
517
521
522
520
517
517
513
513
509
508
505
504
502
502
501
503
505
508
513
517
519
519
521
520
518
516
517
515
510
507
502
505
503
502
504
505
507
510
510
515
516
517
519
519
519
519
513
512
508
506
506
504
502
503
502
503
506
511
516
516
520
520
524
520
520
520
517
514
511
509
504
505
505
505
505
509
510
512
515
518
521
519
526
524
523
519
514
514
509
508
505
505
502
503
507
506
505
511
514
513
516
517
523
523
520
520
517
513
509
508
504
505
503
502
505
504
505
508
512
515
520
521
522
521
519
518
517
515
512
507
504
502
499
499
503
504
506
510
512
516
517
521
520
523
520
518
517
516
510
508
505
503
499
502
504
504
505
509
516
518
519
518
524
524
521
517
514
514
511
509
505
505
500
500
502
502
506
511
516
516
518
519
520
519
519
518
517
515
510
510
506
505
504
502
505
506
507
510
512
515
516
519
523
520
521
518
515
511
510
507
504
504
500
505
504
505
508
510
515
518
522
521
522
520
518
516
515
514
511
505
503
502
502
503
503
507
509
511
513
515
519
520
523
525
519
519
515
513
510
509
508
504
499
502
501
503
503
509
512
516
519
520
523
524
519
519
518
514
511
510
504
501
501
504
504
505
507
510
514
516
518
519
521
521
520
520
515
513
509
507
502
503
500
502
500
503
504
511
513
515
519
518
521
521
519
518
514
514
511
509
505
504
504
502
506
507
507
511
516
519
521
523
525
526
523
518
519
512
509
508
504
503
500
501
500
505
503
508
511
514
515
518
520
523
519
519
517
514
511
507
505
504
502
504
504
505
505
508
512
515
518
523
522
521
519
517
516
514
510
506
505
505
503
503
504
505
506
508
511
515
518
515
519
521
519
516
514
512
510
507
501
501
502
502
504
508
508
514
513
518
521
521
524
523
521
521
514
514
509
505
502
504
502
500
502
502
507
510
512
518
520
520
524
521
520
517
515
513
510
509
502
503
504
503
504
503
505
510
513
517
518
519
521
523
520
516
519
515
511
509
506
502
501
500
503
505
505
511
514
519
521
521
524
524
523
520
517
511
511
507
505
503
499
499
503
510
508
509
514
518
522
520
523
523
523
518
515
515
510
505
500
502
502
502
504
504
506
510
511
513
519
519
521
522
521
518
516
515
510
507
503
502
499
500
505
505
508
510
516
518
519
519
521
522
518
517
516
517
512
505
504
504
501
501
503
505
508
509
514
518
519
518
523
525
520
519
516
515
512
510
506
503
501
503
504
505
505
509
510
513
519
520
520
523
519
520
520
515
512
508
506
504
500
502
503
507
507
511
508
512
516
516
520
520
519
518
515
517
510
506
504
504
501
500
505
509
509
507
515
518
522
522
523
522
520
518
517
511
511
507
505
504
501
503
503
506
506
508
513
515
519
520
521
522
519
518
518
513
510
508
505
504
501
499
502
508
508
511
513
517
517
519
523
524
519
516
518
513
511
510
507
507
503
502
504
508
508
511
513
515
517
517
522
525
517
517
517
514
511
508
505
503
501
502
504
504
504
508
511
516
520
520
520
523
520
517
515
514
510
508
507
504
499
500
504
507
506
508
513
517
519
519
524
521
520
518
514
512
510
507
506
506
500
501
503
503
505
509
513
517
518
519
520
519
518
515
514
512
511
509
505
504
501
502
504
504
505
507
515
519
521
519
522
524
518
518
517
516
514
511
505
505
503
502
504
507
508
510
511
513
518
521
522
523
521
520
516
519
512
508
505
504
503
503
504
504
509
508
513
516
516
518
519
521
520
519
517
511
511
506
501
502
497
499
503
504
507
510
514
516
519
520
524
525
523
520
518
517
511
507
503
502
504
501
503
505
506
511
512
517
521
519
519
519
522
518
517
515
511
509
504
501
500
501
501
504
506
508
512
516
520
519
520
521
518
518
517
513
510
511
505
505
504
499
503
504
508
511
514
514
518
519
521
520
520
519
518
514
512
510
505
502
499
500
503
509
508
511
512
517
520
520
522
521
521
516
516
514
510
510
506
505
499
499
502
504
505
511
512
514
520
521
519
521
521
520
516
513
512
509
504
504
503
500
501
505
505
505
510
513
514
518
518
520
520
518
517
517
512
510
505
506
502
501
504
509
508
512
514
518
519
522
523
526
521
522
518
513
511
508
507
504
503
504
504
506
508
511
513
517
517
521
519
524
518
519
515
513
510
505
503
502
500
500
501
504
503
509
510
514
518
521
520
522
522
521
517
515
511
508
506
505
504
504
504
507
509
511
513
514
518
520
523
525
521
520
515
514
513
508
505
504
502
501
505
508
507
511
512
515
518
520
523
522
521
516
513
512
509
507
503
503
502
502
507
502
499
506
513
517
516
516
520
520
519
516
513
513
513
509
506
505
503
506
506
507
508
511
513
515
518
520
523
521
520
517
515
515
511
510
506
503
506
505
505
506
507
510
512
513
515
518
522
521
520
516
517
513
511
508
505
504
502
502
502
504
504
508
512
513
517
518
519
519
518
519
516
513
511
510
505
505
502
506
504
505
507
510
513
518
521
521
521
522
521
520
518
513
509
508
506
502
503
503
503
503
505
509
513
516
518
520
522
524
523
520
517
513
509
509
504
503
501
500
502
505
504
507
512
516
518
521
521
523
519
519
519
515
510
509
506
507
503
502
504
505
506
510
515
515
518
517
519
521
523
519
520
516
512
506
504
502
500
502
503
505
506
511
512
515
518
521
521
522
518
516
512
511
510
505
504
502
503
501
501
504
505
508
512
517
518
520
523
524
521
522
519
516
513
508
506
506
501
500
504
505
505
509
513
516
520
524
524
524
523
520
517
514
511
509
506
505
503
500
502
500
503
507
511
511
513
518
522
522
522
519
518
514
508
508
505
501
501
498
501
503
504
508
512
515
519
524
524
524
520
518
517
512
509
507
506
504
504
499
504
504
506
508
513
513
516
520
522
522
519
519
517
515
511
509
505
503
503
501
503
504
507
508
512
518
519
524
521
521
521
520
516
515
508
507
505
504
504
501
504
505
506
511
511
514
515
518
523
523
522
518
516
513
512
507
504
504
502
500
503
504
507
510
515
518
520
521
522
526
524
520
517
514
510
510
506
504
504
504
503
502
507
509
513
518
519
520
522
525
522
520
519
515
510
507
502
505
502
502
503
505
505
509
512
515
519
521
523
526
524
521
517
514
510
509
504
502
500
499
500
501
503
507
510
515
519
521
523
524
522
521
516
516
511
510
507
503
501
499
501
505
506
508
513
517
517
520
521
524
525
521
519
516
509
508
504
500
501
501
499
502
507
509
510
515
518
519
520
519
521
520
514
516
511
508
507
505
503
502
504
504
506
509
513
516
521
521
522
525
521
519
515
513
508
508
503
502
501
500
503
503
506
508
509
514
519
521
523
524
523
523
516
513
512
508
506
502
502
504
503
504
506
509
511
515
521
520
520
521
520
519
517
513
508
508
508
507
505
501
505
505
507
507
510
517
519
524
523
522
520
521
519
518
511
507
504
503
500
500
502
503
503
509
509
513
518
518
521
521
521
519
517
514
510
507
506
504
503
500
501
504
505
508
511
515
519
519
522
525
520
518
518
518
512
510
505
504
503
501
504
505
505
508
510
516
518
521
522
524
520
520
518
515
511
508
504
504
502
499
502
504
506
505
511
514
516
519
523
523
521
516
515
515
511
507
502
506
503
503
502
505
505
510
512
513
519
519
521
525
521
519
517
513
510
506
505
503
502
501
501
504
504
508
512
515
518
519
522
523
522
518
516
515
512
506
504
503
501
501
506
508
507
510
515
518
518
521
523
525
522
520
519
516
512
512
504
504
499
501
504
505
505
508
512
519
517
519
523
525
524
519
519
513
511
508
504
507
506
505
503
506
504
507
513
518
519
519
524
523
523
519
517
514
510
506
504
501
499
501
501
505
506
508
513
515
519
520
521
520
517
519
516
513
511
509
503
502
503
501
505
505
504
507
511
517
518
521
523
519
520
519
515
514
515
512
504
503
503
503
502
504
507
509
512
515
517
519
521
522
520
519
518
515
513
508
507
503
502
502
502
504
504
508
513
516
521
521
522
521
521
520
515
516
511
507
503
503
499
499
500
504
504
505
509
517
520
523
524
527
524
519
516
514
510
508
504
504
505
504
503
507
506
508
512
515
515
518
519
523
523
521
516
513
512
508
504
506
502
501
506
505
505
507
513
516
517
517
516
521
519
515
515
513
511
508
504
503
503
504
504
505
505
510
513
517
521
519
523
523
521
519
517
515
510
508
505
504
504
504
505
508
507
508
512
515
519
521
521
523
519
518
516
516
512
509
505
502
502
500
502
504
507
510
511
514
518
519
521
521
521
522
517
514
508
507
505
505
503
502
504
504
505
508
512
515
518
518
520
523
524
521
516
514
512
511
506
502
501
498
500
504
505
505
510
516
516
521
521
523
523
518
516
515
511
509
505
505
504
504
504
508
507
510
515
515
518
521
521
522
523
519
516
516
511
508
505
504
504
504
503
505
504
511
510
513
519
520
523
523
521
519
513
511
511
508
505
503
502
500
500
504
504
507
511
515
516
519
521
521
521
521
519
513
508
508
505
502
504
504
507
506
505
510
515
515
515
519
522
521
522
519
515
514
511
510
506
505
503
501
499
507
506
508
513
523
522
521
520
524
523
519
515
512
510
507
504
505
503
502
504
507
506
507
512
518
519
518
520
520
519
517
517
515
508
508
507
499
503
504
503
504
506
508
512
517
519
520
524
526
523
519
515
515
510
507
503
503
504
502
503
505
505
507
510
516
520
521
522
523
523
521
518
513
510
509
504
502
501
503
504
507
505
508
512
514
517
520
520
520
522
520
516
516
515
510
508
507
505
502
502
504
506
508
510
513
518
521
522
519
519
518
516
516
513
508
507
504
503
502
501
503
505
506
511
514
516
520
522
524
521
519
518
516
512
508
505
507
502
500
499
502
506
508
512
514
516
522
521
524
523
518
516
514
513
509
507
504
504
503
504
504
505
507
512
517
519
524
521
523
523
519
519
516
512
507
504
503
501
501
504
503
504
505
508
514
516
521
524
523
521
519
518
517
511
510
510
504
504
503
504
504
505
509
513
516
521
521
522
524
518
521
514
515
512
510
504
502
504
502
503
505
504
509
507
511
518
517
520
522
521
518
517
516
510
508
504
504
503
502
505
506
506
511
514
516
519
518
522
521
523
521
518
514
513
509
506
505
503
499
500
501
503
507
510
516
517
521
523
524
521
521
518
516
510
509
503
503
500
499
501
502
505
510
513
518
516
520
522
525
521
519
518
513
510
508
507
504
504
502
503
505
504
508
513
515
516
521
521
525
523
520
520
516
514
510
508
504
504
501
502
503
504
507
512
514
516
519
519
522
520
518
517
513
510
509
505
502
499
497
502
504
504
510
513
517
518
523
523
524
524
522
518
515
510
508
505
503
503
503
504
505
507
510
512
512
516
518
518
520
518
516
515
515
513
509
507
506
504
502
505
504
504
510
511
514
518
522
524
525
520
520
518
516
515
510
508
504
504
500
502
504
505
509
509
514
517
518
520
523
522
519
516
516
510
511
507
505
503
504
499
503
504
506
512
514
519
519
521
523
523
518
518
518
514
511
508
505
504
502
505
502
504
508
511
513
518
518
522
525
525
523
519
518
513
509
505
504
502
500
501
502
504
505
510
512
515
518
521
524
521
520
517
515
511
510
507
503
503
501
500
502
505
505
512
514
516
520
523
525
524
518
515
514
511
511
508
504
506
504
501
504
505
508
510
515
517
520
523
523
521
519
515
512
509
509
504
504
504
502
502
503
506
506
511
518
515
520
521
524
522
519
517
515
510
508
504
503
500
499
503
504
505
509
515
517
519
523
522
524
524
522
518
515
511
508
507
504
502
501
499
499
502
507
509
512
516
519
522
521
522
518
516
516
512
508
505
504
505
502
506
505
505
507
513
516
519
522
522
526
522
519
515
513
511
511
505
502
502
504
503
504
504
504
512
516
516
520
522
520
521
521
518
515
512
508
504
503
503
499
502
506
506
509
510
514
518
519
519
523
522
522
519
517
514
510
507
505
506
500
503
505
504
508
512
514
519
519
521
527
521
520
518
515
510
508
504
501
500
500
501
503
503
506
511
513
517
518
520
523
526
523
518
516
512
512
505
504
503
497
500
504
506
508
509
518
520
520
521
524
521
518
516
513
511
510
505
504
503
500
500
504
505
507
508
511
517
520
521
523
523
520
519
519
511
509
504
502
502
498
502
503
507
506
510
515
516
519
522
524
521
519
518
516
513
509
504
503
504
502
500
502
502
506
511
518
519
521
521
524
525
522
519
515
510
504
503
504
500
502
505
507
510
512
514
517
519
523
524
524
523
518
521
517
512
511
506
505
504
500
500
504
505
506
508
515
518
519
523
522
524
518
518
515
510
509
505
503
501
499
500
501
503
510
508
515
518
519
521
523
521
518
517
515
513
510
508
508
504
500
503
506
504
506
512
517
519
521
522
522
521
519
515
517
512
510
504
504
505
500
500
501
503
507
512
512
515
518
519
522
522
518
514
515
510
510
505
505
504
502
502
505
504
507
510
516
520
522
526
524
520
521
519
518
514
511
511
505
502
501
502
507
507
508
511
516
518
520
517
520
519
518
516
515
514
513
507
505
504
499
504
505
503
508
511
515
516
518
524
525
520
519
518
515
510
510
507
505
504
502
504
504
507
511
515
520
519
519
517
516
511
513
515
514
511
508
504
504
503
501
504
506
507
512
515
517
516
518
519
521
519
519
510
504
508
514
515
502
487
483
490
489
495
502
513
523
528
529
555
579
562
536
503
486
473
485
505
501
496
469
491
531
518
486
510
542
532
539
573
597
548
511
467
456
455
436
430
464
478
530
595
595
647
624
537
486
482
508
519
503
499
461
427
430
390
379
424
479
529
594
675
708
677
561
495
483
499
480
475
486
492
488
432
421
417
449
507
605
623
587
504
509
536
526
539
522
488
454
429
443
439
439
489
578
603
660
636
591
583
487
460
475
435
412
459
527
533
557
570
519
478
525
523
491
461
485
499
495
537
557
481
524
558
549
511
